Time,S1D1HbO,S1D1HbR,S1D1HbT,S2D2HbO,S2D2HbR,S2D2HbT,S3D3HbO,S3D3HbR,S3D3HbT,S4D4HbO,S4D4HbR,S4D4HbT,S5D5HbO,S5D5HbR,S5D5HbT,S6D6HbO,S6D6HbR,S6D6HbT,S7D7HbO,S7D7HbR,S7D7HbT,S8D8HbO,S8D8HbR,S8D8HbT,S9D9HbO,S9D9HbR,S9D9HbT,S10D10HbO,S10D10HbR,S10D10HbT,S11D11HbO,S11D11HbR,S11D11HbT,S12D12HbO,S12D12HbR,S12D12HbT,S13D13HbO,S13D13HbR,S13D13HbT,S14D14HbO,S14D14HbR,S14D14HbT,S15D15HbO,S15D15HbR,S15D15HbT,S16D16HbO,S16D16HbR,S16D16HbT,S17D17HbO,S17D17HbR,S17D17HbT,S18D18HbO,S18D18HbR,S18D18HbT,S19D19HbO,S19D19HbR,S19D19HbT,S20D20HbO,S20D20HbR,S20D20HbT,S21D21HbO,S21D21HbR,S21D21HbT,S22D22HbO,S22D22HbR,S22D22HbT,S23D23HbO,S23D23HbR,S23D23HbT,S24D24HbO,S24D24HbR,S24D24HbT,S25D25HbO,S25D25HbR,S25D25HbT,S26D26HbO,S26D26HbR,S26D26HbT,S27D27HbO,S27D27HbR,S27D27HbT,S28D28HbO,S28D28HbR,S28D28HbT,S29D29HbO,S29D29HbR,S29D29HbT,S30D30HbO,S30D30HbR,S30D30HbT,S31D31HbO,S31D31HbR,S31D31HbT,S32D32HbO,S32D32HbR,S32D32HbT,S33D33HbO,S33D33HbR,S33D33HbT,S34D34HbO,S34D34HbR,S34D34HbT,S35D35HbO,S35D35HbR,S35D35HbT,S36D36HbO,S36D36HbR,S36D36HbT
15.0,-0.001577729194,-0.0002830227636,-0.001860751957,-0.002771144176,0.0001982958016,-0.002572848375,-0.00164291631,-0.0005752828681,-0.002218199179,-0.001378659738,-0.0006050565779,-0.001983716316,-0.002730956635,-0.0002367590328,-0.002967715668,-0.004430968282,-0.001310533362,-0.005741501643,-0.005746886834,1.70911288e-05,-0.005729795705,-0.002239936943,-0.001849720522,-0.004089657465,-0.004762125936,0.001521217274,-0.003240908662,-0.003240669572,0.0004495260529,-0.002791143519,-0.002429267955,0.0006920249361,-0.001737243019,-0.001541218216,-0.001935799328,-0.003477017543,-0.002822480976,0.002208385829,-0.0006140951465,-0.002670073911,-0.001156064178,-0.003826138089,-0.004562513814,0.001334544843,-0.00322796897,-0.001527621608,-0.001425702008,-0.002953323616,-0.004414776843,-0.0006985462455,-0.005113323088,-0.002823645441,-0.0007220585744,-0.003545704015,-0.003955453241,-0.0003389477476,-0.004294400988,-0.001945880471,-0.000595572435,-0.002541452906,-0.0004951122047,-0.0005045561553,-0.00099966836,-0.0006228732423,0.001141325383,0.0005184521412,0.0007448008099,-0.0007598270175,-1.502620758e-05,0.0009563086623,-0.0008865853189,6.972334342e-05,-0.000853404623,-0.002650210083,-0.003503614706,0.002771971077,-0.001843779826,0.0009281912514,-0.00489207901,-0.001680411619,-0.006572490628,0.001753129517,-0.001656312403,9.681711402e-05,-0.003205223166,-0.0004861515598,-0.003691374726,-0.001974274149,6.392469503e-05,-0.001910349454,-0.004177528323,-0.0004069598349,-0.004584488158,-0.0009735150559,-7.733904035e-05,-0.001050854096,-0.002085040442,0.0001339581799,-0.001951082262,0.001269513273,0.0002028504115,0.001472363684,-0.002912461968,5.75881933e-05,-0.002854873775,-0.007850154204,0.004143858237,-0.003706295967
15.1,-0.001558668503,-0.000284878803,-0.001843547306,-0.002740518029,0.0002002287722,-0.002540289257,-0.001621222933,-0.000573927046,-0.002195149979,-0.001335748544,-0.000601545953,-0.001937294497,-0.002664804473,-0.00024391954,-0.002908724013,-0.004346649796,-0.001327123479,-0.005673773275,-0.005642715053,7.921913802e-06,-0.005634793139,-0.002074903763,-0.00190227444,-0.003977178202,-0.004727448056,0.00152129021,-0.003206157846,-0.003180102926,0.0004443825234,-0.002735720403,-0.002375183327,0.0006952313213,-0.001679952006,-0.001478457048,-0.001921387864,-0.003399844912,-0.002977892413,0.00216512203,-0.0008127703824,-0.002624851618,-0.001175601867,-0.003800453485,-0.004517406026,0.001325491845,-0.003191914181,-0.00150959641,-0.001428743832,-0.002938340242,-0.004377064972,-0.0006705030962,-0.005047568068,-0.002748441265,-0.0007218950445,-0.003470336309,-0.003929982973,-0.0002932080026,-0.004223190976,-0.001873100093,-0.0006080467301,-0.002481146823,-0.0004426676939,-0.0005012788626,-0.0009439465565,-0.0005957410118,0.001104823557,0.0005090825454,0.0007826393275,-0.000768456569,1.418275841e-05,0.0009798450533,-0.0008936003451,8.62447082e-05,-0.0008418017508,-0.002646757155,-0.003488558906,0.002820456398,-0.001863945428,0.00095651097,-0.004694623091,-0.001603520171,-0.006298143262,0.001704286136,-0.001621018003,8.326813314e-05,-0.003141314797,-0.0004668977685,-0.003608212566,-0.001877397919,2.436977733e-05,-0.001853028142,-0.004077106854,-0.0003906630888,-0.004467769943,-0.0009270301253,-7.230606338e-05,-0.0009993361887,-0.002005085909,0.000122276082,-0.001882809827,0.001377711075,0.000199824512,0.001577535587,-0.002723289195,-3.883787865e-05,-0.002762127073,-0.007919044218,0.004306217669,-0.003612826549
15.2,-0.001542551427,-0.0002865062993,-0.001829057726,-0.002711893497,0.0002020448468,-0.00250984865,-0.001600750388,-0.0005723638097,-0.002173114197,-0.001293730032,-0.0005983053982,-0.00189203543,-0.002601171323,-0.000251133427,-0.00285230475,-0.004263005541,-0.001342662481,-0.005605668022,-0.005542547068,-1.404392889e-06,-0.005543951461,-0.001917030549,-0.00195518252,-0.00387221307,-0.004695896501,0.001521421346,-0.003174475156,-0.003122403238,0.0004387507227,-0.002683652515,-0.002323761122,0.0006982386555,-0.001625522466,-0.001419105516,-0.001906523826,-0.003325629342,-0.003122078745,0.002110221349,-0.001011857396,-0.00258139988,-0.001195769431,-0.003777169311,-0.004461598756,0.001298927571,-0.003162671185,-0.001492658258,-0.001431505687,-0.002924163945,-0.00434476491,-0.0006432144438,-0.004987979354,-0.002674974377,-0.0007235450941,-0.003398519471,-0.003910500134,-0.0002464784469,-0.004156978581,-0.001802159283,-0.000620566114,-0.002422725397,-0.0003907483888,-0.0004982492675,-0.0008889976563,-0.000557341594,0.001051684395,0.0004943428015,0.0008190775923,-0.0007770407552,4.203683714e-05,0.001000738269,-0.0009005921486,0.0001001461203,-0.0008303351485,-0.0026451597,-0.003475494849,0.00286401884,-0.001883278053,0.0009807407868,-0.004481549015,-0.001531946868,-0.006013495883,0.001654417735,-0.00158872096,6.569677535e-05,-0.003083690145,-0.0004446220263,-0.003528312171,-0.001784277999,-1.483968447e-05,-0.001799117684,-0.003980364154,-0.0003707709891,-0.004351135143,-0.0008882571414,-6.640680513e-05,-0.0009546639465,-0.001929395482,0.0001123783177,-0.001817017164,0.001473956383,0.0002039456042,0.001677901987,-0.002533821866,-0.0001383660848,-0.002672187951,-0.007979336738,0.004469147716,-0.003510189022
15.3,-0.00152944473,-0.0002878890032,-0.001817333733,-0.002685513141,0.000203789438,-0.002481723703,-0.001581558505,-0.0005705618599,-0.002152120365,-0.001252753894,-0.0005953359831,-0.001848089877,-0.002540175754,-0.0002583590618,-0.002798534816,-0.004180382359,-0.001356916229,-0.005537298588,-0.00544652094,-1.086704742e-05,-0.005457387988,-0.001766455987,-0.002008539602,-0.003774995589,-0.004667541566,0.001521667899,-0.003145873667,-0.003067680565,0.0004326420082,-0.002635038557,-0.002275164252,0.0007010746123,-0.00157408964,-0.001363372189,-0.00189135064,-0.00325472283,-0.003252584901,0.002044231417,-0.001208353484,-0.002540101877,-0.001215998667,-0.003756100544,-0.004395167745,0.001255288608,-0.003139879137,-0.001476207457,-0.001434156041,-0.002910363498,-0.004317624403,-0.0006169998798,-0.004934624282,-0.00260357799,-0.0007269616879,-0.003330539678,-0.003896880054,-0.0001992884599,-0.004096168514,-0.001733070941,-0.0006332593684,-0.00236633031,-0.0003394574241,-0.0004955008454,-0.0008349582695,-0.0005071968976,0.0009813281544,0.0004741312568,0.0008540736151,-0.0007855596755,6.851393959e-05,0.001019027082,-0.0009076315652,0.0001113955171,-0.000818973726,-0.002645369935,-0.003464343661,0.002902574438,-0.001901665068,0.00100090937,-0.004256485106,-0.001465409174,-0.00572189428,0.001604657404,-0.00156006264,4.459476365e-05,-0.003032749066,-0.0004196045457,-0.003452353612,-0.001695854077,-5.32254059e-05,-0.001749079483,-0.003887899366,-0.0003473922538,-0.004235291619,-0.0008576738934,-5.941919157e-05,-0.000917093085,-0.001858846617,0.0001052051421,-0.001753641474,0.00155681065,0.0002160561418,0.001772866792,-0.002346117509,-0.0002396703089,-0.002585787818,-0.008031152484,0.004632097124,-0.00339905536
15.4,-0.001519406151,-0.0002890090156,-0.001808415167,-0.00266161639,0.0002055091513,-0.002456107239,-0.00156370587,-0.000568491013,-0.002132196883,-0.001212968466,-0.0005926376794,-0.001805606145,-0.00248192876,-0.0002655556486,-0.002747484409,-0.004099180634,-0.001369631157,-0.005468811791,-0.005354749359,-2.044350707e-05,-0.005375192867,-0.001623275301,-0.002062497497,-0.003685772798,-0.004642443178,0.00152208386,-0.003120359318,-0.00301603677,0.0004260723158,-0.002589964454,-0.002229554042,0.000703767605,-0.001525786437,-0.001311413419,-0.00187605559,-0.003187469009,-0.003367445976,0.001967933593,-0.001399512383,-0.002501381377,-0.001235699746,-0.003737081123,-0.004318449243,0.001195296265,-0.003123152978,-0.001459752849,-0.001436789588,-0.002896542437,-0.004295393446,-0.0005921368329,-0.004887530279,-0.002534596488,-0.0007320566255,-0.003266653114,-0.00388896122,-0.0001521472821,-0.004041108502,-0.001665869832,-0.0006462270746,-0.002312096907,-0.000288904001,-0.0004930703047,-0.0007819743057,-0.0004451629807,0.0008935564382,0.0004483934575,0.0008875868159,-0.0007939923474,9.359446852e-05,0.001034753295,-0.0009147835177,0.0001199697776,-0.0008077523818,-0.002647261208,-0.00345501359,0.002936066281,-0.00191900489,0.001017061391,-0.00402306913,-0.001403684947,-0.005426754076,0.001556064894,-0.001535598225,2.046666955e-05,-0.002988822097,-0.0003921401088,-0.003380962205,-0.001613101111,-9.024797485e-05,-0.001703349086,-0.003800347619,-0.0003206352251,-0.004120982844,-0.0008356663503,-5.116204308e-05,-0.0008868283934,-0.001794278279,0.0001016355817,-0.001692642697,0.001624896545,0.0002369017317,0.001861798277,-0.002162436009,-0.0003412634593,-0.002503699468,-0.008074820026,0.0047944449,-0.003280375127
15.5,-0.001512483342,-0.0002898469965,-0.001802330338,-0.002640436219,0.0002072505562,-0.002433185663,-0.001547249594,-0.0005661224288,-0.002113372023,-0.001174519907,-0.0005902092243,-0.001764729131,-0.002426534739,-0.0002726836063,-0.002699218345,-0.004019844608,-0.001380544879,-0.005400389487,-0.005267321314,-3.010964189e-05,-0.005297430956,-0.001487570757,-0.002117221801,-0.003604792558,-0.004620651531,0.001522719374,-0.003097932157,-0.002967567717,0.0004190635341,-0.002548504183,-0.002187090027,0.0007063466792,-0.001480743348,-0.001263326372,-0.001860872704,-0.003124199076,-0.003465175548,0.001882261886,-0.001582913663,-0.002465686117,-0.001254277035,-0.003719963152,-0.004232056456,0.001119937515,-0.003112118941,-0.001442924,-0.001439417969,-0.002882341969,-0.004277833624,-0.0005688560354,-0.004846689659,-0.002468380283,-0.000738703508,-0.003207083791,-0.003886547767,-0.0001055361935,-0.003992083961,-0.00160061542,-0.000659536347,-0.002260151767,-0.0002392046959,-0.0004909964968,-0.0007302011927,-0.0003714421444,0.0007885827269,0.0004171405825,0.0009195765695,-0.0008023169679,0.0001172596017,0.001047960843,-0.0009221053742,0.0001258554687,-0.0007967687659,-0.00265063409,-0.003447402855,0.00296446422,-0.001935210672,0.001029253548,-0.003784833079,-0.00134668279,-0.005131515869,0.001509599034,-0.001515773565,-6.17453114e-06,-0.002952152325,-0.00036253832,-0.003314690645,-0.001537003761,-0.0001253242829,-0.001662328043,-0.003718371452,-0.0002906043858,-0.004008975837,-0.0008225205825,-4.150154262e-05,-0.0008640221251,-0.001736467848,0.0001024657295,-0.001634002119,0.001676948701,0.0002671003279,0.001944049029,-0.001985190187,-0.0004415210673,-0.002426711254,-0.008110871924,0.004955491429,-0.003155380495
15.6,-0.001508713906,-0.0002903824676,-0.001799096373,-0.002622197097,0.0002090589182,-0.002413138179,-0.001532245956,-0.0005634288646,-0.002095674821,-0.001137552222,-0.000588048022,-0.001725600244,-0.002374093251,-0.0002797048237,-0.002653798075,-0.003942848029,-0.001389401323,-0.005332249352,-0.005184305576,-3.983921446e-05,-0.005224144791,-0.001359427797,-0.002172851196,-0.003532278993,-0.004602208471,0.001523620365,-0.003078588107,-0.002922366723,0.0004116446823,-0.002510722041,-0.00214793069,0.0007088414696,-0.00143908922,-0.001219145587,-0.001846081356,-0.003065226942,-0.003544767343,0.001788231878,-0.001756535464,-0.002433471292,-0.001271144471,-0.003704615764,-0.004136886402,0.001030439484,-0.003106446918,-0.001425482628,-0.00144196444,-0.002867447069,-0.004264727428,-0.0005473351874,-0.004812062615,-0.002405283761,-0.0007467409089,-0.003152024669,-0.003889413442,-5.990290874e-05,-0.003949316351,-0.001537392619,-0.0006732187779,-0.002210611396,-0.0001904857883,-0.0004893189778,-0.0006798047661,-0.0002865827117,0.0006670473493,0.0003804646376,0.0009500003103,-0.0008105111391,0.0001394891712,0.001058694664,-0.0009296452571,0.0001290494065,-0.0007861809786,-0.002655222403,-0.003441403381,0.002987761149,-0.00195021329,0.001037547859,-0.003545106149,-0.001294496565,-0.004839602714,0.001466090389,-0.001500906852,-3.481646307e-05,-0.002922889562,-0.0003311143134,-0.003254003875,-0.001468529496,-0.0001578500021,-0.001626379498,-0.003642653556,-0.0002573961709,-0.003900049727,-0.0008184237354,-3.035232971e-05,-0.0008487760651,-0.001686108146,0.0001083879324,-0.001577720213,0.001711863214,0.0003071126367,0.002018975851,-0.001816901745,-0.0005387101637,-0.002355611909,-0.008140024843,0.005114438342,-0.003025586501
15.7,-0.001508125929,-0.0002905941656,-0.001798720095,-0.002607113569,0.0002109769271,-0.002396136642,-0.001518751224,-0.0005603849533,-0.002079136177,-0.001102207719,-0.0005861501315,-0.001688357851,-0.002324700921,-0.0002865827854,-0.002611283707,-0.003868675804,-0.001395969659,-0.005264645463,-0.005105755514,-4.960249508e-05,-0.005155358009,-0.001238940266,-0.002229465016,-0.003468405282,-0.004587148896,0.001524828318,-0.003062320578,-0.002880527837,0.0004038526818,-0.002476675155,-0.002112234077,0.0007112820355,-0.001400952042,-0.001178844422,-0.001831998479,-0.003010842902,-0.00360571124,0.001686892083,-0.001918819157,-0.002405181181,-0.001285741858,-0.003690923039,-0.00403410288,0.0009282348084,-0.003105868071,-0.001407328823,-0.001444265216,-0.002851594039,-0.00425588527,-0.0005276915729,-0.004783576843,-0.002345665924,-0.0007559750197,-0.003101640943,-0.003897306613,-1.565781978e-05,-0.003912964432,-0.001476310735,-0.000687270991,-0.002163581726,-0.0001428850484,-0.0004880766967,-0.000630961745,-0.0001914624317,0.0005300144046,0.0003385519728,0.0009788120024,-0.0008185519063,0.0001602600961,0.001067000235,-0.0009374401449,0.0001295600896,-0.0007762067251,-0.002660698009,-0.003436904734,0.003005968581,-0.001963963297,0.001042005284,-0.003306956178,-0.001247419773,-0.004554375951,0.001426217719,-0.001491174528,-6.495680933e-05,-0.002901097249,-0.0002981705645,-0.003199267813,-0.001408600746,-0.0001872247595,-0.001595825506,-0.003573888496,-0.0002210955839,-0.00379498408,-0.0008234735223,-1.76727576e-05,-0.0008411462799,-0.001643797531,0.0001199768246,-0.001523820707,0.001728739843,0.0003572164802,0.002085956324,-0.001660156649,-0.0006310283923,-0.002291185041,-0.008163138421,0.005270351011,-0.00289278741
15.8,-0.0015107381,-0.0002904603797,-0.00180119848,-0.002595388588,0.0002130434906,-0.002382345098,-0.001506821902,-0.0005569675196,-0.002063789421,-0.00106862726,-0.0005845104068,-0.001653137667,-0.002278452718,-0.0002932826486,-0.002571735367,-0.003797803941,-0.00140006422,-0.005197868162,-0.005031713847,-5.936459122e-05,-0.005091078439,-0.001126209479,-0.002287061966,-0.003413271445,-0.004575501391,0.001526380126,-0.003049121265,-0.002842147413,0.0003957325164,-0.002446414897,-0.002080157182,0.0007136984241,-0.001366458758,-0.001142341357,-0.001818965272,-0.002961306629,-0.003648012576,0.001579301756,-0.00206871082,-0.002381228135,-0.00129755205,-0.003678780185,-0.003925091391,0.0008149166566,-0.003110174734,-0.001388495963,-0.001446080887,-0.002834576851,-0.004251147527,-0.0005099748853,-0.004761122413,-0.00228989189,-0.0007661813862,-0.003056073276,-0.003909956393,2.682858071e-05,-0.003883127812,-0.001417501708,-0.000701656465,-0.002119158173,-9.655177014e-05,-0.0004873069668,-0.0005838587369,-8.725648523e-05,0.0003789503828,0.0002916938976,0.001005961646,-0.0008264156188,0.000179546027,0.001072924085,-0.0009455138605,0.0001274102246,-0.0007671219392,-0.002666675821,-0.003433797761,0.003019114423,-0.001976431728,0.001042682694,-0.003073170709,-0.001205910288,-0.004279080997,0.001390490302,-0.001486599421,-9.610911988e-05,-0.002886763133,-0.0002639790871,-0.00315074222,-0.001358067901,-0.0002128763648,-0.001570944266,-0.003512767948,-0.0001817773881,-0.003694545336,-0.00083769232,-3.455984145e-06,-0.0008411483041,-0.001610052448,0.0001376880946,-0.001472364354,0.001726913166,0.000417486911,0.002144400077,-0.001517552519,-0.0007166515221,-0.002234204041,-0.008181158103,0.00542211599,-0.002759042113
15.9,-0.001516558715,-0.0002899592942,-0.001806518009,-0.002587210863,0.0002152926221,-0.002371918241,-0.00149651398,-0.0005531559595,-0.00204966994,-0.001036949732,-0.0005831228276,-0.00162007256,-0.002235442156,-0.0002997713845,-0.00253521354,-0.003730680054,-0.001401561741,-0.005132241795,-0.004962215983,-6.908435026e-05,-0.005031300334,-0.001021338458,-0.002345552668,-0.003366891126,-0.004567287809,0.001528307935,-0.003038979874,-0.002807323352,0.0003873366696,-0.002419986683,-0.002051853595,0.0007161199729,-0.001335733622,-0.001109510209,-0.001807331534,-0.002916841743,-0.00367219738,0.001466530411,-0.002205666968,-0.002361970896,-0.001306116665,-0.003668087561,-0.003811392768,0.0006921853183,-0.003119207449,-0.001369132573,-0.001447118029,-0.002816250601,-0.004250382301,-0.0004941614185,-0.00474454372,-0.002238333185,-0.000777105867,-0.003015439052,-0.003927079784,6.722757601e-05,-0.003859852208,-0.001361118213,-0.0007163074146,-0.002077425627,-5.164483345e-05,-0.0004870447095,-0.0005386895429,2.460564198e-05,0.0002156841402,0.0002402897822,0.001031395871,-0.0008340777804,0.000197318091,0.001076514325,-0.0009538749204,0.0001226394045,-0.0007592573898,-0.002672719963,-0.003431977353,0.003027244216,-0.001987609762,0.001039634454,-0.002846252977,-0.001170522223,-0.004016775199,0.001359239369,-0.001487043372,-0.0001278040024,-0.002879805475,-0.0002287722243,-0.003108577699,-0.00131768681,-0.0002342805775,-0.001551967387,-0.0034599573,-0.0001395130669,-0.003599470367,-0.0008610414685,1.228045008e-05,-0.0008487610185,-0.001585336459,0.0001618703987,-0.00142346606,0.001705972128,0.0004877836605,0.002193755788,-0.001391636423,-0.0007937813613,-0.002185417785,-0.008195052492,0.005568414246,-0.002626638246
16.0,-0.001525583645,-0.0002890694435,-0.001814653088,-0.00258275117,0.0002177523983,-0.002364998771,-0.001487881476,-0.0005489326326,-0.002036814109,-0.001007310641,-0.0005819809331,-0.001589291574,-0.002195760556,-0.0003060180467,-0.002501778603,-0.003667705214,-0.001400413877,-0.005068119091,-0.004897291769,-7.871420163e-05,-0.004976005971,-0.0009244204303,-0.002404768964,-0.003329189394,-0.004562522329,0.001530639033,-0.003031883296,-0.002776152747,0.0003787240009,-0.002397428746,-0.002027470157,0.0007185745076,-0.00130889565,-0.001080193436,-0.001797440174,-0.00287763361,-0.003679290466,0.001349664285,-0.002329626181,-0.002347695667,-0.00131104855,-0.003658744217,-0.003694625447,0.0005617897995,-0.003132835647,-0.001349474986,-0.00144705686,-0.002796531846,-0.004253481864,-0.0004801516759,-0.00473363354,-0.002191365854,-0.0007884656509,-0.002979831505,-0.003948389622,0.0001052538918,-0.00384313573,-0.001307331613,-0.0007311263058,-0.002038457919,-8.329624971e-06,-0.0004873220146,-0.0004956516395,0.0001424905497,4.234834344e-05,0.0001848388931,0.001055058991,-0.0008415130689,0.0002135459219,0.001077819945,-0.0009625144917,0.0001153054535,-0.0007529934629,-0.002678350556,-0.003431344019,0.003030424701,-0.001997507543,0.001032917158,-0.002628403543,-0.001141833844,-0.003770237386,0.001332621759,-0.001492209755,-0.0001595879963,-0.002880074082,-0.0001927430757,-0.003072817158,-0.001288103058,-0.0002509752562,-0.001539078314,-0.003416066814,-9.43812742e-05,-0.003510448088,-0.0008934328505,2.950396203e-05,-0.0008639288884,-0.001570090093,0.0001927840634,-0.00137730603,0.001665770301,0.0005677461288,0.00223351643,-0.001284838801,-0.0008606892328,-0.002145528034,-0.008205756652,0.00570772341,-0.002498033242
16.1,-0.00153779408,-0.0002877703289,-0.001825564409,-0.002582158416,0.0002204440619,-0.002361714354,-0.001480975156,-0.0005442831242,-0.00202525828,-0.0009798403211,-0.0005810781681,-0.001560918489,-0.002159496055,-0.0003119941168,-0.002471490171,-0.003609218156,-0.001396654458,-0.005005872614,-0.004836966754,-8.820072055e-05,-0.004925167475,-0.0008355169923,-0.002464493187,-0.003300010179,-0.004561210924,0.001533395831,-0.003027815093,-0.002748729397,0.000369958395,-0.002378771002,-0.00200714399,0.0007210875983,-0.001286056391,-0.001054216815,-0.001789612791,-0.002843829606,-0.003670764037,0.001229800197,-0.00244096384,-0.002338602887,-0.00131204128,-0.003650644168,-0.003576407381,0.0004254716652,-0.003150935716,-0.001329816576,-0.001445580228,-0.002775396803,-0.004260359165,-0.0004677742543,-0.004728133419,-0.002149366726,-0.000799951615,-0.002949318341,-0.003973602952,0.0001406677652,-0.003832935187,-0.001256329819,-0.0007459874759,-0.002002317295,3.322484209e-05,-0.0004881679878,-0.0004549431457,0.0002646163438,-0.0001386951509,0.0001259211929,0.001076893775,-0.0008486956025,0.000228198172,0.00107688879,-0.0009714053446,0.0001054834452,-0.0007487525079,-0.002683051546,-0.003431804054,0.003028747043,-0.002006152632,0.001022594411,-0.002421475521,-0.001120397619,-0.00354187314,0.00131063315,-0.001501657392,-0.0001910242426,-0.002887348225,-0.0001560526101,-0.003043400835,-0.001269842753,-0.0002625703074,-0.00153241306,-0.00338162267,-4.647890194e-05,-0.003428101572,-0.000934735759,4.817263206e-05,-0.000886563127,-0.001564750125,0.000230617678,-0.001334132447,0.001606429268,0.0006567950183,0.002263224286,-0.001199411279,-0.0009157566443,-0.002115167924,-0.008214128872,0.00583834935,-0.002375779522
16.2,-0.001553155004,-0.0002860430932,-0.001839198098,-0.002585556666,0.0002233815149,-0.002362175151,-0.001475842258,-0.0005391962505,-0.002015038509,-0.0009546624532,-0.000580408025,-0.001535070478,-0.002126733029,-0.0003176738211,-0.00244440685,-0.003555484132,-0.001390400445,-0.004945884577,-0.004781264081,-9.748565881e-05,-0.00487874974,-0.0007546200513,-0.002524508772,-0.003279128824,-0.004563351825,0.001536595923,-0.003026755902,-0.002725142202,0.0003611074421,-0.00236403476,-0.001991000901,0.0007236819564,-0.001267318945,-0.001031403045,-0.001784136372,-0.002815539417,-0.003648468396,0.001108019469,-0.002540448927,-0.002334801126,-0.001308875672,-0.003643676798,-0.003458289885,0.0002849227684,-0.003173367117,-0.001310479819,-0.001442400989,-0.002752880808,-0.004270944397,-0.0004567963369,-0.004727740734,-0.002112708686,-0.0008112331128,-0.002923941799,-0.004002448311,0.0001732769676,-0.003829171344,-0.001208314989,-0.0007607396353,-0.001969054625,7.284753406e-05,-0.0004896085914,-0.0004167610573,0.0003891113474,-0.0003249410401,6.417030735e-05,0.001096841676,-0.0008555993959,0.0002412422801,0.00107376493,-0.0009805024307,9.326249929e-05,-0.0007469868554,-0.00268628145,-0.003433268305,0.003022327261,-0.002013588237,0.001008739025,-0.002226915391,-0.001106727361,-0.003333642751,0.001293123852,-0.001514822296,-0.0002216984438,-0.002901331334,-0.0001188404339,-0.003020171768,-0.001263309612,-0.0002687547757,-0.001532064388,-0.003357041381,4.067745841e-06,-0.003352973635,-0.0009847786509,6.823632569e-05,-0.0009165423252,-0.001569755419,0.0002754964596,-0.00129425896,0.001528334735,0.0007541403444,0.00228247508,-0.001137371324,-0.0009575171979,-0.002094888522,-0.008220919828,0.00595847932,-0.002262440508
16.3,-0.00157161487,-0.000283871042,-0.001855485912,-0.002593043795,0.0002265713606,-0.002366472435,-0.001472527395,-0.0005336638232,-0.002006191218,-0.0009318933293,-0.0005799640351,-0.001511857364,-0.002097552259,-0.0003230343376,-0.002420586597,-0.003506690034,-0.001381845785,-0.004888535819,-0.004730207336,-0.0001065074017,-0.004836714738,-0.0006816022721,-0.0025846657,-0.003266267972,-0.004568936863,0.001540252226,-0.003028684637,-0.00270547459,0.0003522412479,-0.002353233343,-0.001979155252,0.0007263770454,-0.001252778207,-0.001011583952,-0.001781250054,-0.002792834006,-0.003614562326,0.0009853550117,-0.002629207314,-0.002336308988,-0.001301421544,-0.003637730533,-0.003341710715,0.0001417632495,-0.003199947466,-0.001291799228,-0.001437284703,-0.002729083931,-0.004285182642,-0.0004469374803,-0.004732120123,-0.002081755167,-0.000821965932,-0.002903721099,-0.004034670053,0.0002029369537,-0.003831733099,-0.00116350079,-0.0007752096594,-0.001938710449,0.000110365536,-0.0004916660902,-0.0003813005542,0.0005140752516,-0.0005138327544,2.424971945e-07,0.001114842756,-0.0008621988658,0.0002526438898,0.001068485872,-0.0009897445776,7.874129415e-05,-0.0007481622011,-0.002687487686,-0.003435649888,0.003011302724,-0.00201987084,0.0009914318846,-0.002045719516,-0.001101316258,-0.003147035774,0.00127981234,-0.001531043037,-0.0002512306974,-0.002921643275,-8.123702843e-05,-0.003002880303,-0.001268789455,-0.0002692999374,-0.001538089392,-0.003342608535,5.708968453e-05,-0.003285518851,-0.001043347964,8.96350923e-05,-0.0009537128718,-0.001585539955,0.0003274821286,-0.001258057827,0.001432125459,0.0008587944029,0.002290919862,-0.001100452171,-0.0009847012429,-0.002085153414,-0.008226748046,0.00606624667,-0.002160501376
16.4,-0.001593106328,-0.0002812398639,-0.001874346192,-0.00260469152,0.0002300133469,-0.002374678173,-0.001471074144,-0.0005276803149,-0.001998754458,-0.0009116418392,-0.0005797397695,-0.001491381609,-0.002072031559,-0.0003280558952,-0.002400087454,-0.003462944465,-0.001371249531,-0.004834193996,-0.004683823806,-0.0001152027069,-0.004799026513,-0.0006161740903,-0.002644945129,-0.003261119219,-0.004577953054,0.001544373179,-0.003033579876,-0.0026898045,0.0003434313787,-0.002346373121,-0.001971710501,0.0007291889809,-0.00124252152,-0.0009946125555,-0.001781131412,-0.002775743967,-0.003571445846,0.00086276594,-0.002708679906,-0.002343065608,-0.001289633758,-0.003632699365,-0.003227965191,-2.465974899e-06,-0.003230431166,-0.001274120498,-0.001430063587,-0.002704184084,-0.004303033012,-0.0004378838822,-0.004740916894,-0.00205685292,-0.000831803614,-0.002888656534,-0.004070029544,0.0002295479521,-0.003840481592,-0.001122108446,-0.0007892079303,-0.001911316377,0.0001456036399,-0.0004943580392,-0.0003487543993,0.0006376434978,-0.0007028581306,-6.521463273e-05,0.001130836029,-0.0008684693146,0.0002623667146,0.001061079875,-0.0009990563919,6.202348304e-05,-0.0007527386924,-0.002686122893,-0.003438861585,0.002995825532,-0.002025066576,0.0009707589564,-0.001878432773,-0.001104661434,-0.002983094207,0.001270298395,-0.001549588122,-0.0002792897276,-0.00294781596,-4.337463478e-05,-0.002991190594,-0.001286460997,-0.0002640566075,-0.001550517604,-0.00333846246,0.0001123592708,-0.00322610319,-0.001110186498,0.0001122972821,-0.0009978892155,-0.001612513641,0.0003865675744,-0.001225946066,0.001318678568,0.0009695864808,0.002288265049,-0.001090056257,-0.0009962809565,-0.002086337213,-0.008232076732,0.006159796813,-0.002072279919
16.5,-0.001617547235,-0.0002781375915,-0.001895684827,-0.002620545754,0.000233700928,-0.002386844826,-0.001471526407,-0.0005212425569,-0.001992768964,-0.0008940096767,-0.0005797289673,-0.001473738644,-0.002050246215,-0.0003327218261,-0.002382968041,-0.003424280212,-0.001358920917,-0.004783201128,-0.004642147207,-0.0001235082736,-0.004765655481,-0.0005578637362,-0.002705504586,-0.003263368322,-0.004590383583,0.001548962983,-0.003041420599,-0.002678204113,0.0003347499548,-0.002343454158,-0.001968759146,0.0007321306512,-0.001236628495,-0.0009803738296,-0.001783884806,-0.002764258635,-0.003521674593,0.0007411143675,-0.002780560226,-0.002354946678,-0.001273544962,-0.00362849164,-0.003118190598,-0.0001463069083,-0.003264497506,-0.001257811197,-0.001420640256,-0.002678451453,-0.004324466185,-0.0004293039562,-0.004753770142,-0.002038322004,-0.000840411116,-0.00287873312,-0.004108304306,0.0002530502315,-0.003855254075,-0.001084360448,-0.0008025356253,-0.001886896074,0.0001783849872,-0.0004976962199,-0.0003193112327,0.000758053213,-0.000889643005,-0.0001315897919,0.00114476114,-0.0008743874844,0.0002703736553,0.001051564413,-0.001008350339,4.321407394e-05,-0.0007611520535,-0.002681661673,-0.003442813727,0.002976055234,-0.002029245969,0.0009468092652,-0.001725193823,-0.001117271253,-0.002842465076,0.001264083534,-0.001569686798,-0.0003056032644,-0.002979299715,-5.39267291e-06,-0.002984692388,-0.001316407075,-0.0002529484953,-0.00156935557,-0.003344584833,0.0001695752457,-0.003175009587,-0.001184991271,0.0001361381054,-0.001048853166,-0.001651032435,0.0004526676715,-0.001198364763,0.001189094511,0.001085178346,0.002274272857,-0.00110721264,-0.0009915107948,-0.002098723434,-0.008237189193,0.006237346764,-0.001999842429
16.6,-0.001644840933,-0.0002745544653,-0.001919395398,-0.002640626224,0.0002376218104,-0.002403004414,-0.001473928597,-0.0005143495037,-0.001988278101,-0.0008790910308,-0.0005799257653,-0.001459016796,-0.002032268481,-0.0003370186333,-0.002369287114,-0.003390658307,-0.001345203214,-0.004735861521,-0.004605218976,-0.0001313617502,-0.004736580726,-0.0005060231991,-0.002766689296,-0.003272712496,-0.004606207582,0.001554021793,-0.003052185789,-0.002670738635,0.0003262689005,-0.002344469735,-0.00197038104,0.0007352118208,-0.001235169219,-0.0009687909018,-0.00178953534,-0.002758326242,-0.003467832424,0.00062112844,-0.002846703984,-0.002371778779,-0.001253259085,-0.003625037864,-0.003013358819,-0.0002883907859,-0.003301749605,-0.001243271192,-0.001408983311,-0.002652254504,-0.004349455131,-0.0004208682762,-0.004770323407,-0.002026442896,-0.0008474786992,-0.002873921595,-0.00414928533,0.0002734201991,-0.003875865131,-0.00105047146,-0.0008149938221,-0.001865465282,0.0002085338919,-0.000501686007,-0.0002931521151,0.0008737027793,-0.001072031569,-0.00019832879,0.001156561646,-0.0008799322878,0.0002766293585,0.001039947014,-0.001017529666,2.241734788e-05,-0.0007737950321,-0.002673618245,-0.003447413278,0.002952153749,-0.002032477521,0.0009196762285,-0.001585815056,-0.001139644223,-0.002725459279,0.001260605083,-0.00159056525,-0.0003299601671,-0.003015482704,3.256461531e-05,-0.002982918089,-0.001358619583,-0.0002359668492,-0.001594586432,-0.003360800652,0.0002283542316,-0.00313244642,-0.001267408905,0.0001610578821,-0.001106351022,-0.001701361129,0.0005256055965,-0.001175755532,0.001044681775,0.001204082201,0.002248763977,-0.001152541642,-0.0009699572224,-0.002122498864,-0.008242165121,0.006297238474,-0.001944926647
16.7,-0.001674875455,-0.000270482781,-0.001945358236,-0.002664925015,0.0002417585433,-0.002423166472,-0.001478324297,-0.0005070020458,-0.001985326343,-0.0008669713197,-0.0005803248848,-0.001447296205,-0.002018165922,-0.0003409361036,-0.002359102025,-0.003361974931,-0.001330457004,-0.004692431936,-0.004573087792,-0.00013870226,-0.004711790052,-0.0004598539257,-0.002829006345,-0.003288860271,-0.004625398843,0.001559545763,-0.00306585308,-0.002667463895,0.000318059226,-0.002349404669,-0.001976640098,0.0007384390232,-0.001238201075,-0.0009598258742,-0.001798028822,-0.002757854696,-0.00341236681,0.0005033493533,-0.002909017457,-0.002393346737,-0.001228947036,-0.003622293773,-0.00291427166,-0.0004274488788,-0.003341720539,-0.001230935365,-0.001395117397,-0.002626052762,-0.004377956401,-0.0004122757863,-0.004790232188,-0.002021441969,-0.0008527339542,-0.002874175924,-0.004192772223,0.0002906690119,-0.003902103211,-0.001020637899,-0.0008263931586,-0.001847031058,0.0002358804238,-0.0005063262369,-0.0002704458131,0.0009831952559,-0.001248142708,-0.0002649474526,0.001166189077,-0.0008850856595,0.000281103418,0.001026228507,-0.001026492432,-2.639250944e-07,-0.0007909993085,-0.002661565024,-0.003452564333,0.002924283633,-0.002034821221,0.0008894624113,-0.001459880296,-0.001172224924,-0.00263210522,0.001259281415,-0.001611486723,-0.0003522053082,-0.003055718311,7.035631464e-05,-0.002985361997,-0.00141299609,-0.000213169836,-0.001626165926,-0.003386786951,0.0002882308943,-0.003098556057,-0.001357027685,0.00018693881,-0.001170088875,-0.00176363465,0.0006050973564,-0.001158537294,0.000886939855,0.001324682221,0.002211622076,-0.001226229678,-0.000931514818,-0.002157744496,-0.0082468686,0.006337991721,-0.001908876879
16.8,-0.00170752234,-0.0002659166583,-0.001973438999,-0.00269340464,0.000246089223,-0.002447315417,-0.001484754029,-0.0004992028765,-0.001983956906,-0.0008577252297,-0.0005809216417,-0.001438646871,-0.002007999205,-0.0003444674586,-0.002352466663,-0.003338072976,-0.001315043119,-0.004653116094,-0.004545807853,-0.0001454707825,-0.004691278636,-0.0004184452543,-0.002893071648,-0.003311516903,-0.004647924306,0.001565527012,-0.003082397293,-0.00266842336,0.0003101901927,-0.002358233167,-0.001987580611,0.0007418152762,-0.001245765335,-0.0009534778191,-0.001809235083,-0.002762712902,-0.003357423723,0.0003880801852,-0.002969343537,-0.002419395681,-0.001200842408,-0.003620238088,-0.002821555608,-0.0005623271444,-0.003383882752,-0.001221269646,-0.001379109675,-0.002600379321,-0.004409885705,-0.0004032838885,-0.004813169594,-0.00202347783,-0.0008559506759,-0.002879428506,-0.004238567259,0.0003048435372,-0.003933723722,-0.0009950288784,-0.0008365622439,-0.001831591122,0.0002602650626,-0.0005116092487,-0.000251344186,0.001085360988,-0.001416399324,-0.0003310383353,0.001173606245,-0.0008898333361,0.0002837729088,0.001010407502,-0.001035136369,-2.472886655e-05,-0.0008130202016,-0.002645149348,-0.00345816955,0.002892607994,-0.002036322827,0.0008562851669,-0.001346842586,-0.001215358742,-0.002562201327,0.001259557744,-0.001631789646,-0.0003722319016,-0.003099351781,0.0001078543381,-0.002991497443,-0.001479330698,-0.0001846857874,-0.001664016486,-0.003422086038,0.0003486649402,-0.003073421098,-0.001453368737,0.0002136401411,-0.001239728596,-0.001837827815,0.0006907411413,-0.001147086674,0.0007175375569,0.001445261515,0.002162799072,-0.001328013403,-0.0008764110795,-0.002204424483,-0.008250959799,0.006358357879,-0.00189260192
16.9,-0.001742636188,-0.0002608517166,-0.002003487905,-0.00272599667,0.0002505882694,-0.002475408401,-0.001493253237,-0.0004909564393,-0.001984209676,-0.0008514148279,-0.000581711748,-0.001433126576,-0.002001820233,-0.0003476094912,-0.002349429724,-0.003318759197,-0.001299305883,-0.00461806508,-0.004523436873,-0.0001516105275,-0.004675047401,-0.0003808185765,-0.00295954568,-0.003340364257,-0.004673743268,0.001571953655,-0.003101789613,-0.002673645694,0.0003027284598,-0.002370917234,-0.002003224547,0.0007453398137,-0.001257884733,-0.0009497802962,-0.001822952554,-0.00277273285,-0.003304719039,0.0002753567454,-0.003029362294,-0.002449633256,-0.001169234678,-0.003618867934,-0.002735657988,-0.0006920013388,-0.003427659327,-0.00121476416,-0.001361054729,-0.002575818889,-0.00444509656,-0.0003937354001,-0.00483883196,-0.002032631236,-0.0008569543066,-0.002889585543,-0.004286470759,0.0003160286244,-0.003970442135,-0.0009737804716,-0.0008453536332,-0.001819134105,0.0002815418215,-0.0005175207891,-0.0002359789675,0.001179260703,-0.001575534873,-0.0003962741705,0.001178788759,-0.0008941653897,0.0002846233695,0.0009924850373,-0.001043364348,-5.087931091e-05,-0.0008400268303,-0.002624105219,-0.00346413205,0.002857289246,-0.002037009336,0.0008202799102,-0.001246106364,-0.001269267044,-0.002515373408,0.001260941201,-0.001650917198,-0.000389975997,-0.003145740484,0.0001449509754,-0.003000789509,-0.001557302571,-0.000150717761,-0.001708020332,-0.003466119494,0.0004090525349,-0.003057066959,-0.001555881236,0.000240994047,-0.001314887189,-0.001923742585,0.0007820146347,-0.00114172795,0.0005382845744,0.001564037426,0.002102322,-0.00145717078,-0.0008052021583,-0.002262372938,-0.00825393397,0.006357369675,-0.001896564295
17.0,-0.001780055601,-0.0002552847757,-0.002035340377,-0.002762601627,0.0002552271803,-0.002507374447,-0.001503851208,-0.0004822689379,-0.001986120146,-0.0008480884323,-0.0005826909405,-0.001430779373,-0.001999671159,-0.0003503626057,-0.002350033765,-0.003303825701,-0.001283558178,-0.00458738388,-0.004506034335,-0.0001570672863,-0.004663101622,-0.0003459704397,-0.003029070393,-0.003375040833,-0.004702807696,0.001578810038,-0.003123997658,-0.002683143772,0.0002957374838,-0.002387406288,-0.002023570562,0.0007490080006,-0.001274562562,-0.0009487979707,-0.00183891381,-0.002787711781,-0.003255454056,0.0001649451984,-0.003090508857,-0.002483735859,-0.001134459424,-0.003618195283,-0.002656848971,-0.0008155877817,-0.003472436753,-0.001211925414,-0.001341060118,-0.002552985532,-0.004483369872,-0.0003835748594,-0.004866944732,-0.002048899858,-0.0008556247097,-0.002904524568,-0.0043362801,0.0003243496818,-0.004011930418,-0.0009569934666,-0.0008526474239,-0.001809640891,0.0002995793405,-0.0005240398436,-0.0002244605031,0.001264173343,-0.001724583316,-0.0004604099739,0.001181724709,-0.0008980764671,0.0002836482421,0.0009724687242,-0.001051089939,-7.86212151e-05,-0.0008720979794,-0.002598259718,-0.003470357697,0.002818485392,-0.002036885958,0.0007815994332,-0.00115708494,-0.001334041988,-0.002491126928,0.001263019281,-0.001668435391,-0.0004054161103,-0.003194269146,0.0001815642635,-0.003012704883,-0.001646465313,-0.0001115472612,-0.001758012575,-0.003518201769,0.0004687410652,-0.003049460703,-0.001663945892,0.0002688052797,-0.001395140612,-0.002021011232,0.0008782763239,-0.001142734908,0.0003510985684,0.001679204385,0.002030302953,-0.001612519303,-0.0007187582139,-0.002331277517,-0.00825518597,0.00633438458,-0.00192080139
17.1,-0.001819605442,-0.0002492136843,-0.002068819126,-0.002803090245,0.0002599752292,-0.002543115016,-0.001516571018,-0.000473148325,-0.001989719343,-0.0008477804613,-0.0005838545086,-0.00143163497,-0.002001584226,-0.0003527306876,-0.002354314913,-0.003293071777,-0.001268070153,-0.00456114193,-0.004493659716,-0.0001617898545,-0.00465544957,-0.0003129127639,-0.003102213595,-0.003415126359,-0.004735063328,0.00158607718,-0.003148986148,-0.002696915145,0.0002892772795,-0.002407637865,-0.002048594471,0.0007528114535,-0.001295783017,-0.0009506204101,-0.001856792398,-0.002807412808,-0.003210262878,5.63591747e-05,-0.003153903703,-0.00252135931,-0.001096885614,-0.003618244924,-0.002585231995,-0.0009323462095,-0.003517578204,-0.001213267579,-0.001319234551,-0.00253250213,-0.004524415773,-0.0003728514628,-0.004897267236,-0.002072197226,-0.0008518975892,-0.002924094816,-0.004387793834,0.0003299747709,-0.004057819063,-0.0009447333477,-0.0008583532995,-0.001803086647,0.0003142605953,-0.0005311387193,-0.000216878124,0.001339574595,-0.001862858145,-0.0005232835496,0.001182413339,-0.0009015658399,0.000280847499,0.0009503758948,-0.001058241871,-0.000107865976,-0.0009092229645,-0.002567534756,-0.003476757721,0.002776344764,-0.002035934753,0.0007404100101,-0.001079233835,-0.001409640388,-0.002488874223,0.001265462741,-0.001684040588,-0.0004185778469,-0.003244364559,0.0002176429935,-0.003026721565,-0.001746240302,-6.753522544e-05,-0.001813775527,-0.003577552903,0.0005270464679,-0.003050506435,-0.001776887538,0.0002968554374,-0.0014800321,-0.002129104546,0.0009787663354,-0.00115033821,0.0001579711052,0.001788979669,0.001946950775,-0.001792422531,-0.0006182387878,-0.002410661319,-0.00825409407,0.006289123199,-0.001964970871
17.2,-0.001861099813,-0.0002426372575,-0.002103737071,-0.002847305729,0.0002648001674,-0.002582505561,-0.001531430027,-0.0004636041943,-0.001995034222,-0.0008505120021,-0.0005851968541,-0.001435708856,-0.002007582001,-0.0003547207875,-0.002362302788,-0.003286321508,-0.001253062583,-0.004539384091,-0.004486369892,-0.0001657307388,-0.004652100631,-0.0002807127634,-0.003179423623,-0.003460136387,-0.004770450792,0.001593733295,-0.003176717498,-0.002714942987,0.0002834043538,-0.002431538633,-0.002078250218,0.0007567383022,-0.001321511916,-0.0009553523543,-0.001876210901,-0.002831563255,-0.003169190767,-5.110599042e-05,-0.003220296757,-0.002562150755,-0.001056900181,-0.003619050936,-0.002520762032,-0.001041673271,-0.003562435303,-0.001219301432,-0.001295680231,-0.002514981663,-0.004567882726,-0.0003617119109,-0.004929594637,-0.002102354671,-0.0008457652012,-0.002948119873,-0.004440821134,0.0003331155766,-0.004107705558,-0.0009370307969,-0.0008624118352,-0.001799442632,0.0003254824822,-0.000538783514,-0.0002133010317,0.001405112033,-0.001989924945,-0.000584812912,0.001180863946,-0.0009046374323,0.0002762265136,0.0009262355777,-0.001064766209,-0.0001385306311,-0.0009513077651,-0.002531943837,-0.003483251602,0.002731001309,-0.002034114757,0.000696886552,-0.001012069533,-0.001495857014,-0.002507926547,0.001268019135,-0.001697558467,-0.0004295393323,-0.003295511928,0.0002531735298,-0.003042338398,-0.001855915283,-1.911954244e-05,-0.001875034825,-0.003643310987,0.0005832727119,-0.003060038275,-0.001893994409,0.0003249103023,-0.001569084106,-0.002247335164,0.001082606107,-0.001164729057,-3.906801021e-05,0.001891648246,0.001852580236,-0.00199480448,-0.0005050630711,-0.002499867551,-0.00825010748,0.006221699907,-0.002028407572
17.3,-0.001904344849,-0.0002355552718,-0.002139900121,-0.002895066282,0.0002696689893,-0.002625397293,-0.001548440127,-0.0004536475984,-0.002002087725,-0.0008562914943,-0.0005867112399,-0.001443002734,-0.002017677382,-0.0003563427019,-0.002374020084,-0.003283434607,-0.001238704941,-0.004522139547,-0.004484214953,-0.0001688472727,-0.004653062226,-0.0002485322774,-0.003260995973,-0.00350952825,-0.004808905845,0.001601754256,-0.003207151589,-0.002737196088,0.0002781713867,-0.002459024701,-0.002112470204,0.0007607735729,-0.001351696631,-0.0009631016151,-0.001896750494,-0.00285985211,-0.003131719274,-0.0001583142706,-0.003290033545,-0.002605755373,-0.001014892756,-0.003620648129,-0.002463269633,-0.00114308641,-0.003606356043,-0.001230518606,-0.001270490668,-0.002501009274,-0.004613367412,-0.0003503883894,-0.004963755801,-0.002139125702,-0.0008372756815,-0.002976401384,-0.00449519437,0.0003340264829,-0.004161167887,-0.0009338812565,-0.0008647955894,-0.001798676846,0.0003331564646,-0.0005469347297,-0.0002137782651,0.001460579226,-0.002105568405,-0.0006449891792,0.001177095955,-0.0009072999115,0.0002697960435,0.0009000897352,-0.001070626154,-0.0001705364188,-0.0009981856293,-0.002491584614,-0.003489770244,0.002682573052,-0.002031363476,0.0006512095762,-0.000955184708,-0.001592272338,-0.002547457046,0.001270502908,-0.001708934941,-0.0004384320325,-0.003347272157,0.0002881899794,-0.003059082178,-0.001974647379,3.319004086e-05,-0.001941457338,-0.003714546692,0.0006367337892,-0.003077812903,-0.002014540072,0.0003527289777,-0.001661811094,-0.002374852025,0.001188796546,-0.001186055479,-0.0002379903928,0.001985605335,0.001747614942,-0.002217174414,-0.000380877868,-0.002598052282,-0.008242819622,0.006132638704,-0.002110180918
17.4,-0.001949140553,-0.0002279685358,-0.002177109089,-0.002946167124,0.0002745487323,-0.002671618391,-0.001567606964,-0.0004432908731,-0.002010897837,-0.0008651148346,-0.0005883897917,-0.001453504626,-0.002031872776,-0.0003576085948,-0.002389481371,-0.003284310959,-0.00122511737,-0.004509428329,-0.004487232105,-0.0001711030397,-0.004658335145,-0.0002156612046,-0.00334705156,-0.003562712765,-0.004850358294,0.001610113981,-0.003240244313,-0.002763626981,0.000273626247,-0.002490000733,-0.00215116433,0.0007648997275,-0.001386264602,-0.000973966601,-0.001917962011,-0.002891928612,-0.003096843706,-0.0002662045166,-0.003363048222,-0.002651812256,-0.0009712464037,-0.00362305866,-0.002412490636,-0.001236198975,-0.003648689611,-0.001247369925,-0.001243753926,-0.002491123851,-0.004660422416,-0.0003391839382,-0.004999606354,-0.002182192615,-0.0008265298951,-0.00300872251,-0.004550779776,0.0003330005495,-0.004217779227,-0.0009352429764,-0.0008655101408,-0.001800753117,0.0003372106509,-0.0005555477304,-0.0002183370795,0.001505888257,-0.002209752495,-0.0007038642384,0.001171140164,-0.000909566798,0.0002615733655,0.0008719943931,-0.001075800611,-0.0002038062178,-0.001049628532,-0.002446630772,-0.003496259304,0.002631165747,-0.002027599844,0.0006035659036,-0.0009082589691,-0.001698191998,-0.002606450967,0.0012727817,-0.001718217249,-0.000445435549,-0.0033992977,0.0003227862881,-0.003076511412,-0.002101470374,8.881952243e-05,-0.002012650851,-0.003790280585,0.0006867767223,-0.003103503863,-0.002137804496,0.0003800745753,-0.001757729921,-0.002510629711,0.001296216472,-0.001214413239,-0.0004368129348,0.002069396708,0.001632583773,-0.00245666856,-0.0002475203701,-0.00270418893,-0.008232019105,0.006022872215,-0.00220914689
17.5,-0.001995281542,-0.0002198791308,-0.002215160673,-0.003000381709,0.0002794072263,-0.002720974482,-0.001588928087,-0.00043254748,-0.002021475567,-0.0008769645842,-0.0005902236288,-0.001467188213,-0.002050158387,-0.0003585327459,-0.002408691133,-0.003288891049,-0.001212375043,-0.004501266092,-0.004495438389,-0.000172469403,-0.004667907792,-0.0001815399984,-0.003437524395,-0.003619064393,-0.004894730017,0.001618784733,-0.003275945285,-0.002794168539,0.0002698102898,-0.002524358249,-0.002194218215,0.0007690973596,-0.001425120855,-0.0009880257592,-0.001939377046,-0.002927402805,-0.003063185413,-0.0003756979043,-0.003438883317,-0.002699940246,-0.0009263378995,-0.003626278145,-0.002368103359,-0.001320690907,-0.003688794267,-0.001270238948,-0.001215559585,-0.002485798533,-0.004708564397,-0.0003284540623,-0.005037018459,-0.002231174858,-0.0008136756313,-0.003044850489,-0.004607480925,0.0003303612625,-0.004277119663,-0.0009410343446,-0.000864594883,-0.001805629228,0.0003375924636,-0.0005645729731,-0.0002269805095,0.00154104216,-0.002302576839,-0.0007615346793,0.001163040115,-0.0009114564858,0.0002515836292,0.0008420208654,-0.001080282898,-0.0002382620324,-0.001105355829,-0.002397326116,-0.003502681945,0.002576880705,-0.002022728495,0.0005541522104,-0.0008710516656,-0.00181261135,-0.002683663015,0.00127475483,-0.001725524382,-0.0004507695521,-0.003451343861,0.0003571253971,-0.003094218464,-0.002235308651,0.0001471424873,-0.002088166163,-0.003869500393,0.0007328011065,-0.003136699286,-0.002263092594,0.0004067255422,-0.001856367052,-0.002653465759,0.00140363089,-0.001249834869,-0.0006336427936,0.002141757621,0.001508114827,-0.002710110708,-0.0001069733547,-0.002817084063,-0.008217719536,0.005893729037,-0.002323990498
17.6,-0.00204255734,-0.0002112908529,-0.002253848193,-0.003057462681,0.0002842137485,-0.002773248932,-0.001612390872,-0.0004214317965,-0.002033822669,-0.0008918086754,-0.0005922029055,-0.001484011581,-0.002072510218,-0.0003591313957,-0.002431641613,-0.003297153871,-0.001200513499,-0.00449766737,-0.00450882378,-0.0001729271294,-0.004681750909,-0.0001457698442,-0.003532157262,-0.003677927107,-0.004941933085,0.001627737398,-0.003314195688,-0.002828730471,0.0002667562822,-0.002561974189,-0.002241491851,0.0007733459988,-0.001468145852,-0.001005330626,-0.001960517535,-0.002965848161,-0.0030291212,-0.0004876144717,-0.003516735672,-0.002749721923,-0.0008805443065,-0.00363026623,-0.002329770878,-0.001396283864,-0.003726054742,-0.00129941229,-0.00118600846,-0.00248542075,-0.004757287879,-0.0003185840047,-0.005075871884,-0.00228563864,-0.000798900025,-0.003084538665,-0.004665233792,0.0003264506705,-0.004338783121,-0.0009511323317,-0.0008621231709,-0.001813255503,0.0003342704359,-0.0005739560889,-0.000239685653,0.001566112021,-0.002384238157,-0.0008181261359,0.001152852298,-0.0009129920212,0.0002398602767,0.0008102567129,-0.001084080053,-0.0002738233397,-0.001165039964,-0.002343980089,-0.003509020053,0.002519822625,-0.002016644844,0.0005031777817,-0.0008433714645,-0.001934225311,-0.002777596776,0.001276326035,-0.001731011742,-0.0004546857072,-0.003503273877,0.0003914413817,-0.003111832495,-0.002374999727,0.0002074971345,-0.002167502593,-0.003951175705,0.0007742720054,-0.003176903699,-0.002389749871,0.0004324855643,-0.001957264307,-0.002801999115,0.001509718951,-0.001292280164,-0.0008267185968,0.002201650939,0.001374932342,-0.002974086085,3.868455656e-05,-0.002935401529,-0.008200167284,0.005746910574,-0.00245325671
17.7,-0.002090753139,-0.0002022097349,-0.002292962874,-0.003117143447,0.0002889396024,-0.002828203845,-0.001637971279,-0.0004099588235,-0.002047930102,-0.0009095994694,-0.0005943166238,-0.001503916093,-0.002098888642,-0.00035942258,-0.002458311222,-0.003309112616,-0.001189534382,-0.004498646997,-0.004527346281,-0.0001724681928,-0.004699814474,-0.000108111404,-0.003630505488,-0.003738616892,-0.004991868849,0.001636941793,-0.003354927056,-0.002867197191,0.0002644863872,-0.002602710804,-0.002292819832,0.0007776249458,-0.001515194886,-0.001025902206,-0.001980904556,-0.003006806762,-0.002992926681,-0.000602599539,-0.00359552622,-0.002800696121,-0.0008342483753,-0.003634944496,-0.002297179729,-0.001462729549,-0.003759909278,-0.001335047488,-0.001155225458,-0.002490272946,-0.004806085992,-0.0003099642454,-0.005116050237,-0.002345107743,-0.0007824212066,-0.00312752895,-0.004723997673,0.0003216169848,-0.004402380688,-0.0009653738124,-0.0008582012062,-0.001823575019,0.0003272341934,-0.0005836379296,-0.0002564037362,0.001581221662,-0.002455003219,-0.0008737815566,0.001140644572,-0.0009142005306,0.0002264440413,0.000776805963,-0.001087212273,-0.00031040631,-0.001228311611,-0.002286962496,-0.003515274107,0.002460103596,-0.002009240603,0.0004508629935,-0.0008250338015,-0.002061476006,-0.002886509808,0.001277378966,-0.001734838903,-0.0004574599367,-0.003555058762,0.0004260347615,-0.003129024001,-0.002519323267,0.000269206496,-0.002250116771,-0.004034271891,0.0008107281196,-0.003223543772,-0.002517175792,0.0004571908017,-0.00205998499,-0.002954748704,0.001613118502,-0.001341630201,-0.001014444155,0.002248303498,0.001233859343,-0.003245024525,0.0001873305541,-0.003057693971,-0.008179819019,0.005584446998,-0.002595372021
17.8,-0.002139651587,-0.0001926444638,-0.002332296051,-0.003179140993,0.0002935586818,-0.002885582311,-0.001665633905,-0.0003981438881,-0.002063777793,-0.0009302738418,-0.0005965522645,-0.001526826106,-0.00212923806,-0.0003594258733,-0.002488663933,-0.0033248085,-0.00117941097,-0.00450421947,-0.004550930052,-0.0001710974909,-0.004722027543,-6.847442353e-05,-0.003731948219,-0.003800422643,-0.005044428215,0.001646367061,-0.003398061153,-0.00290942787,0.0002630105337,-0.002646417337,-0.002348013461,0.0007819140813,-0.00156609938,-0.001049728694,-0.002000068756,-0.00304979745,-0.002952929879,-0.0007210589451,-0.003673988824,-0.002852364902,-0.0007878378233,-0.003640202726,-0.002270066468,-0.001519814879,-0.003789881347,-0.001377140324,-0.001123374445,-0.00250051477,-0.004854474199,-0.0003029680942,-0.005157442294,-0.002409075816,-0.0007644796092,-0.003173555426,-0.004783747882,0.0003162050676,-0.004467542814,-0.0009835606391,-0.0008529650396,-0.001836525679,0.0003164927214,-0.0005935547337,-0.0002770620123,0.001586537925,-0.002515190609,-0.0009286526842,0.001126493176,-0.0009151123532,0.0002113808225,0.0007417884417,-0.001089711861,-0.0003479234191,-0.001294765931,-0.002226697255,-0.003521463186,0.00239784222,-0.002000409478,0.0003974327428,-0.000815817131,-0.002192619587,-0.003008436718,0.001277760725,-0.001737146247,-0.0004593855223,-0.003606774261,0.0004612641515,-0.003145510109,-0.002667031442,0.0003315982929,-0.002335433149,-0.004117768804,0.0008417903296,-0.003275978474,-0.00264483621,0.0004807153314,-0.002164120879,-0.003110158939,0.001712474995,-0.001397683945,-0.001195414095,0.002281238247,0.001085824151,-0.003519293941,0.0003368515869,-0.003182442354,-0.008157284567,0.00540862245,-0.002748662116
17.9,-0.002189035559,-0.0001826066031,-0.002371642162,-0.003243159929,0.000298048059,-0.00294511187,-0.001695333105,-0.0003860024458,-0.002081335551,-0.000953754404,-0.0005988954147,-0.001552649819,-0.002163487559,-0.00035916202,-0.002522649579,-0.003344303697,-0.001170092592,-0.004514396289,-0.00457946676,-0.000168833894,-0.004748300654,-2.690298055e-05,-0.00383570543,-0.003862608411,-0.00509949272,0.001655982187,-0.003443510534,-0.002955258567,0.0002623254172,-0.00269293315,-0.002406864182,0.0007861946411,-0.001620669541,-0.001076762547,-0.002017564041,-0.003094326588,-0.002907656933,-0.0008431163895,-0.003750773323,-0.002904212304,-0.0007416998184,-0.003645912123,-0.002248228411,-0.001567382618,-0.003815611029,-0.001425497094,-0.001090672132,-0.002516169225,-0.004902012888,-0.0002979331861,-0.005199946074,-0.002477019989,-0.0007453291899,-0.003222349179,-0.004844472725,0.0003105505771,-0.004533922148,-0.001005468119,-0.0008465756345,-0.001852043753,0.0003020717589,-0.0006036385695,-0.0003015668105,0.001582263531,-0.002565155059,-0.0009828915276,0.001110479281,-0.0009157600832,0.0001947191983,0.0007053384818,-0.001091621267,-0.0003862827855,-0.001363970109,-0.002163656194,-0.003527626303,0.002333159171,-0.001990052505,0.0003431066652,-0.0008154257085,-0.002325791218,-0.003141216927,0.001277272795,-0.001738041717,-0.0004607689226,-0.003658596031,0.0004975368728,-0.003161059158,-0.002816876505,0.0003940219353,-0.002422854569,-0.004200688725,0.000867173909,-0.003333514816,-0.002772274417,0.0005029759712,-0.002269298446,-0.003266641995,0.001806487853,-0.001460154142,-0.001368431454,0.002300297693,0.0009318662394,-0.003793300662,0.0004851998971,-0.003308100765,-0.008133245361,0.005221873812,-0.002911371549
18.0,-0.002238691357,-0.0001721106503,-0.002410802007,-0.003308897188,0.0003023885976,-0.00300650859,-0.001727014498,-0.0003735500252,-0.002100564523,-0.0009799514115,-0.0006013296017,-0.001581281013,-0.002201552037,-0.0003586524696,-0.002560204506,-0.003367673412,-0.001161508156,-0.004529181568,-0.004612819242,-0.0001657102759,-0.004778529517,1.643717288e-05,-0.003940857792,-0.003924420619,-0.005156935681,0.001665756575,-0.003491179106,-0.003004505546,0.0002624142743,-0.002742091272,-0.002469147245,0.0007904499638,-0.001678697282,-0.001106916091,-0.002032984433,-0.003139900523,-0.002855945099,-0.000968609152,-0.003824554251,-0.002955724844,-0.0006962157152,-0.003651940559,-0.002231519075,-0.001605362883,-0.003836881958,-0.001479719524,-0.001057398022,-0.002537117546,-0.004948327844,-0.0002951458547,-0.005243473698,-0.002548414614,-0.0007252292386,-0.003273643852,-0.004906172916,0.0003049758876,-0.004601197028,-0.001030855126,-0.0008392128182,-0.001870067944,0.0002840115166,-0.0006138181857,-0.0003298066691,0.001568631991,-0.002605273101,-0.00103664111,0.001092686178,-0.0009161776612,0.0001765085168,0.0006676035559,-0.001092990174,-0.000425386618,-0.001435471392,-0.002098353257,-0.003533824649,0.002266171917,-0.001978082475,0.0002880894413,-0.0008234719772,-0.002459047781,-0.003282519758,0.001275667722,-0.001737596727,-0.0004619290054,-0.003710792001,0.0005352993569,-0.003175492644,-0.002967633258,0.0004558618741,-0.002511771384,-0.004282131547,0.000886702803,-0.003395428744,-0.002899116738,0.0005239355524,-0.002375181186,-0.003422616866,0.001893954859,-0.001528662007,-0.001532515027,0.002305651628,0.0007731366015,-0.004063585395,0.000630444531,-0.003433140864,-0.00810836679,0.005026677125,-0.003081689665
18.1,-0.002288411435,-0.0001611740088,-0.002449585444,-0.003376046485,0.000306565571,-0.003069480914,-0.001760616086,-0.0003608022855,-0.002121418371,-0.001008764656,-0.0006038364744,-0.001612601131,-0.00224333305,-0.0003579188632,-0.002601251913,-0.003394995935,-0.001153570411,-0.004548566347,-0.004650825812,-0.0001617726667,-0.004812598479,6.126403234e-05,-0.004046365355,-0.003985101322,-0.00521662267,0.001675660581,-0.003540962088,-0.003056968466,0.0002632473964,-0.002793721069,-0.002534624406,0.0007946661212,-0.001739958285,-0.001140055783,-0.00204598237,-0.003186038153,-0.002797008308,-0.001097122496,-0.003894130803,-0.003006404837,-0.0006517590971,-0.003658163934,-0.002219831957,-0.001633808135,-0.003853640092,-0.00153920694,-0.001023897823,-0.002563104763,-0.00499312722,-0.0002948274254,-0.005287954646,-0.002622743286,-0.0007044372457,-0.003327180532,-0.004968860406,0.000299786092,-0.004669074314,-0.00105947322,-0.0008310694205,-0.001890542641,0.0002623658076,-0.0006240202992,-0.0003616544915,0.001545903634,-0.002635930844,-0.00109002721,0.001073197791,-0.0009163994913,0.0001567982992,0.0006287434575,-0.001093872084,-0.0004651286265,-0.001508804627,-0.00203133857,-0.003540143197,0.002196991549,-0.001964426922,0.0002325646274,-0.000839482175,-0.002590388876,-0.003429871051,0.00127265008,-0.001735847562,-0.0004631974819,-0.003763710188,0.0005750275052,-0.003188682683,-0.003118114508,0.0005165471338,-0.002601567374,-0.004361308872,0.0009003210248,-0.003460987847,-0.003025068304,0.0005436025153,-0.002481465788,-0.003576548841,0.001973813252,-0.001602735589,-0.001686894704,0.002297783402,0.0006108886983,-0.004326903777,0.0007708108826,-0.003556092895,-0.008083220121,0.004825434584,-0.003257785537
18.2,-0.002337995978,-0.000149816922,-0.0024878129,-0.003444301841,0.0003105692248,-0.003133732616,-0.001796068477,-0.0003477751564,-0.002143843633,-0.001040084799,-0.0006063963134,-0.001646481113,-0.002288718902,-0.0003569825625,-0.002645701464,-0.003426340644,-0.001146181487,-0.004572522131,-0.004693303758,-0.0001570788719,-0.00485038263,0.0001071767025,-0.004151082019,-0.004043905317,-0.005278411038,0.001685665884,-0.003592745154,-0.003112432456,0.000264783138,-0.002847649318,-0.002603045045,0.0007988322942,-0.001804212751,-0.001175996146,-0.002056285246,-0.003232281392,-0.002730456609,-0.001228046623,-0.003958503233,-0.003055775842,-0.0006086958611,-0.003664471703,-0.002213079414,-0.0016529233,-0.003866002713,-0.001603174681,-0.0009905780113,-0.002593752693,-0.005036210977,-0.0002971236683,-0.005333334645,-0.002699507909,-0.0006832025061,-0.003382710415,-0.005032555877,0.0002952651332,-0.004737290744,-0.001091072838,-0.0008223465678,-0.001913419406,0.0002372028448,-0.0006341711341,-0.0003969682893,0.001514359177,-0.002657509896,-0.001143150719,0.001052098451,-0.0009164595523,0.0001356388983,0.0005889304315,-0.001094321271,-0.0005053908392,-0.001583499306,-0.001963191603,-0.003546690909,0.002125723114,-0.001949029477,0.0001766936365,-0.0008629113826,-0.002717777687,-0.003580689069,0.001267879712,-0.001732797458,-0.0004649177453,-0.003817760002,0.00061721562,-0.003200544382,-0.00326717953,0.0005755570768,-0.002691622453,-0.00443756884,0.0009080971055,-0.003529471734,-0.003149899606,0.0005620262837,-0.002587873322,-0.003726987672,0.002045171134,-0.001681816538,-0.0018309964,0.00227745459,0.0004464581895,-0.004580284853,0.0009047016047,-0.003675583249,-0.008058224015,0.0046203705,-0.003437853515
18.3,-0.002387253405,-0.0001380623735,-0.002525315778,-0.003513360073,0.0003143951678,-0.003198964906,-0.001833294376,-0.0003344850406,-0.002167779416,-0.001073794036,-0.0006089886743,-0.00168278271,-0.002337584082,-0.0003558643074,-0.00269344839,-0.003461755443,-0.00113923853,-0.004600993973,-0.004740051632,-0.0001516967947,-0.004891748427,0.0001536487119,-0.00425376666,-0.004100117948,-0.005342148942,0.001695745735,-0.003646403208,-0.003170669112,0.0002669690892,-0.002903700022,-0.002674146311,0.0008029408781,-0.001871205433,-0.001214495918,-0.002063706177,-0.003278202095,-0.002656284467,-0.001360633994,-0.004016918461,-0.003103385726,-0.0005673836211,-0.003670769347,-0.002211175396,-0.001663085562,-0.003874260958,-0.001670686961,-0.0009578907175,-0.002628577679,-0.005077471586,-0.0003020987644,-0.00537957035,-0.002778234738,-0.0006617604092,-0.003439995147,-0.005097286227,0.0002916726905,-0.004805613536,-0.001125406276,-0.0008132502658,-0.001938656542,0.000208606811,-0.0006441979193,-0.0004355911083,0.001474288462,-0.002670367025,-0.001196078562,0.001029473172,-0.0009163906231,0.0001130825487,0.0005483501142,-0.001094390684,-0.0005460405695,-0.001659086897,-0.00189451363,-0.003553600527,0.002052468548,-0.001931850292,0.0001206182554,-0.0008931616679,-0.002839170774,-0.003732332442,0.001260975939,-0.001728417861,-0.000467441922,-0.003873384353,0.0006623599235,-0.00321102443,-0.003413739288,0.00063242434,-0.002781314948,-0.004510410491,0.0009102212472,-0.003600189243,-0.003273429689,0.0005792898523,-0.002694139836,-0.003872599496,0.002107325401,-0.001765274094,-0.001964420056,0.00224565375,0.0002812336944,-0.004821065354,0.001030697625,-0.003790367729,-0.00803360856,0.004413442167,-0.003620166393
18.4,-0.002436000617,-0.0001259359062,-0.002561936523,-0.003582922851,0.0003180444931,-0.003264878358,-0.001872208058,-0.0003209490391,-0.002193157097,-0.001109766408,-0.0006115929432,-0.001721359351,-0.002389788683,-0.0003545840138,-0.002744372697,-0.003501254345,-0.001132639012,-0.004633893357,-0.004790850998,-0.0001457025981,-0.004936553596,0.0002000226503,-0.004353094856,-0.004153072206,-0.005407674727,0.00170587519,-0.003701799537,-0.003231437311,0.0002697432483,-0.002961694062,-0.002747653604,0.0008069874652,-0.001940666139,-0.001255258971,-0.002068146923,-0.003323405894,-0.002574849123,-0.001494039567,-0.00406888869,-0.003148812945,-0.0005281690952,-0.00367698204,-0.002214028913,-0.001664852611,-0.003878881525,-0.001740703861,-0.0009263106206,-0.002667014481,-0.005116890263,-0.0003097333006,-0.005426623563,-0.002858478282,-0.0006403282267,-0.003498806509,-0.005163083206,0.0002892420349,-0.004873841171,-0.001162228394,-0.0008039887084,-0.001966217102,0.0001766788998,-0.000654030229,-0.0004773513292,0.001425976934,-0.002674811157,-0.001248834223,0.001005407654,-0.000916223776,8.91838778e-05,0.0005072024713,-0.001094130988,-0.000586928517,-0.001735108916,-0.001825919896,-0.003561028812,0.001977330156,-0.001912866898,6.446325885e-05,-0.0009296125443,-0.002952544304,-0.003882156848,0.001251522817,-0.001722650061,-0.0004711272434,-0.003931021892,0.0007109338295,-0.003220088062,-0.003556763721,0.0006867371451,-0.002870026576,-0.004579492341,0.0009069973825,-0.003672494959,-0.003395512397,0.0005955013343,-0.002800011063,-0.004012192744,0.002159770904,-0.00185242184,-0.002086914839,0.002203538657,0.0001166238176,-0.005046904746,0.001147546096,-0.00389935865,-0.008009401446,0.00420627401,-0.003803127436
18.5,-0.00248406386,-0.0001134652972,-0.002597529157,-0.003652698961,0.0003215236431,-0.003331175318,-0.0019127156,-0.0003071851137,-0.002219900714,-0.001147868247,-0.000614188694,-0.001762056941,-0.002445178346,-0.0003531606272,-0.002798338973,-0.003544804868,-0.001126286542,-0.00467109141,-0.00484546862,-0.0001391787891,-0.004984647409,0.0002455108206,-0.00444767662,-0.0042021658,-0.005474817265,0.001716031408,-0.003758785857,-0.00329448474,0.0002730352428,-0.003021449497,-0.002823282358,0.0008109708593,-0.002012311499,-0.001297939737,-0.002069594409,-0.003367534146,-0.002486849008,-0.001627343611,-0.004114192619,-0.003191678496,-0.0004913835545,-0.00368306205,-0.002221548498,-0.001658960811,-0.003880509309,-0.00181213999,-0.000896307674,-0.002708447664,-0.00515453335,-0.0003199250001,-0.00547445835,-0.002939824346,-0.0006191026348,-0.003558926981,-0.005229983068,0.0002881787123,-0.004941804356,-0.001201296454,-0.0007947694863,-0.00199606594,0.0001415370934,-0.0006636012573,-0.000522064164,0.001369695389,-0.002671087401,-0.001301392013,0.0009799876878,-0.0009159881766,6.399951118e-05,0.0004657014458,-0.001093590501,-0.0006278890553,-0.001811126579,-0.00175802967,-0.003569156249,0.001900413101,-0.001892076129,8.336971533e-06,-0.0009716696931,-0.003055905777,-0.00402757547,0.001239076171,-0.001715406986,-0.0004763308146,-0.003991065343,0.000763358101,-0.003227707242,-0.003695294811,0.0007381437015,-0.002957151109,-0.004644636491,0.0008988308585,-0.003745805633,-0.003516028631,0.00061078573,-0.002905242901,-0.004144741846,0.002202207468,-0.001942534378,-0.002198356368,0.002152380844,-4.597552336e-05,-0.005255789479,0.001254144719,-0.00400164476,-0.007985436781,0.004000124659,-0.003985312122
18.6,-0.002531280445,-0.0001006800816,-0.002631960526,-0.003722407111,0.0003248441258,-0.003397562986,-0.001954716171,-0.000293212095,-0.002247928266,-0.001187959137,-0.0006167558503,-0.001804714987,-0.002503584925,-0.0003516119165,-0.002855196842,-0.003592316349,-0.001120097083,-0.004712413433,-0.004903659682,-0.0001322123246,-0.005035872006,0.0002892065386,-0.004536086078,-0.00424687954,-0.005543397233,0.001726194007,-0.003817203226,-0.003359550475,0.0002767677607,-0.003082782714,-0.002900741076,0.0008148931239,-0.002085847952,-0.001342150334,-0.00206811404,-0.003410264374,-0.002393296652,-0.001759571868,-0.004152868521,-0.003231661832,-0.0004573370417,-0.003688998873,-0.002233649952,-0.001646316733,-0.003879966684,-0.001883927617,-0.0008683200371,-0.002752247655,-0.005190550844,-0.0003324909629,-0.005523041807,-0.003021893457,-0.0005982578818,-0.003620151339,-0.00529802607,0.0002886593118,-0.005009366758,-0.001242370571,-0.0007857960635,-0.002028166635,0.0001033148153,-0.0006728490663,-0.000569534251,0.001305697194,-0.002659375004,-0.001353677811,0.0009532980956,-0.0009157110972,3.758699837e-05,0.0004240722427,-0.001092815438,-0.0006687431956,-0.00188673255,-0.001691451899,-0.003578184449,0.001821826422,-0.001869496344,-4.766992234e-05,-0.001018831548,-0.0031472918,-0.004166123348,0.001223173,-0.001706573988,-0.000483400988,-0.004053826379,0.0008199734895,-0.003233852889,-0.003828466183,0.0007863599676,-0.003042106216,-0.004705823313,0.0008862102668,-0.003819613046,-0.003634883647,0.0006252778633,-0.003009605784,-0.004269407999,0.00223454377,-0.00203486423,-0.002298730535,0.002093517121,-0.0002052134143,-0.005446031724,0.001349527137,-0.004096504586,-0.007961384187,0.003795888835,-0.004165495352
18.7,-0.00257750087,-8.761102851e-05,-0.002665111899,-0.003791779065,0.000328022187,-0.003463756878,-0.001998104127,-0.0002790495505,-0.002277153678,-0.001229893468,-0.0006192747625,-0.00184916823,-0.002564827679,-0.0003499541699,-0.002914781849,-0.003643632459,-0.001114003743,-0.004757636202,-0.004965171463,-0.0001248929363,-0.005090064399,0.0003301082883,-0.004616905614,-0.004286797326,-0.005613228795,0.001736345418,-0.003876883377,-0.003426368319,0.000280858356,-0.003145509963,-0.002979734665,0.0008187595464,-0.002160975119,-0.001387466967,-0.002063841767,-0.003451308734,-0.002295481682,-0.001889723946,-0.004185205628,-0.003268515378,-0.0004263117472,-0.003694827125,-0.002250257254,-0.001627985518,-0.003878242772,-0.001955073223,-0.0008427314302,-0.002797804654,-0.00522517714,-0.0003471707544,-0.005572347895,-0.003104345258,-0.0005779434703,-0.003682288728,-0.005367254283,0.0002908292237,-0.005076425059,-0.001285215152,-0.0007772635536,-0.002062478705,6.215927171e-05,-0.0006817177357,-0.000619558464,0.00123422319,-0.002639798346,-0.001405575156,0.0009254216378,-0.0009154179591,1.000367866e-05,0.0003825463851,-0.001091850097,-0.0007093037118,-0.00196156284,-0.001626767451,-0.003588330291,0.00174168301,-0.001845168736,-0.0001034857256,-0.001070771507,-0.003224757453,-0.004295528959,0.001203344167,-0.001696009791,-0.0004926656246,-0.004119513153,0.0008810216723,-0.003238491481,-0.003955526133,0.0008311789862,-0.003124347147,-0.004763174112,0.0008696841804,-0.003893489931,-0.003752006606,0.0006391168639,-0.003112889742,-0.00438555172,0.002256890442,-0.002128661278,-0.002388127476,0.002028309707,-0.0003598177687,-0.005616265686,0.001432850284,-0.004183415403,-0.007936792517,0.003594127125,-0.004342665391
18.8,-0.002622590557,-7.42896914e-05,-0.002696880248,-0.003860562495,0.000331078442,-0.003529484053,-0.002042771116,-0.0002647176248,-0.00230748874,-0.001273522244,-0.0006217263986,-0.001895248643,-0.002628714468,-0.0003482018715,-0.00297691634,-0.003698530096,-0.001107959042,-0.004806489139,-0.005029746003,-0.0001173117731,-0.005147057777,0.0003671553274,-0.004688780375,-0.004321625047,-0.005684120904,0.001746471186,-0.003937649718,-0.003494670078,0.000285221636,-0.003209448442,-0.003059966842,0.0008225784412,-0.002237388401,-0.001433435683,-0.002056974711,-0.003490410394,-0.00219492585,-0.002016807288,-0.004211733138,-0.003302072753,-0.0003985538854,-0.003700626639,-0.002271292933,-0.001605174383,-0.003876467317,-0.002024697058,-0.0008198565911,-0.00284455365,-0.005258731052,-0.0003636313339,-0.005622362385,-0.003186882921,-0.0005582812989,-0.00374516422,-0.005437706472,0.000294799193,-0.005142907279,-0.001329600009,-0.0007693547251,-0.002098954734,1.823065668e-05,-0.0006901584098,-0.0006719277531,0.001155510825,-0.002612444192,-0.001456933367,0.0008964385557,-0.0009151322394,-1.869368375e-05,0.0003413559211,-0.001090737049,-0.0007493811284,-0.002035305592,-0.001564511519,-0.00359981711,0.001660100251,-0.001819157414,-0.000159057163,-0.001127423277,-0.003286368138,-0.004413791415,0.001179131746,-0.001683550463,-0.0005044187177,-0.004188218566,0.0009466350343,-0.003241583532,-0.004075857936,0.0008724778256,-0.00320338011,-0.004816927304,0.0008498375879,-0.003967089716,-0.003867349377,0.0006524414757,-0.003214907901,-0.004492733005,0.002269536659,-0.002223196346,-0.00246674489,0.001958114631,-0.0005086302598,-0.0057654444,0.001503385897,-0.004262058503,-0.007911143906,0.003395115387,-0.00451602852
18.9,-0.002666430381,-6.074810902e-05,-0.00272717849,-0.003928522677,0.0003340373828,-0.003594485294,-0.002088607244,-0.0002502369228,-0.002338844167,-0.001318694427,-0.0006240927773,-0.001942787204,-0.0026950423,-0.000346367478,-0.003041409778,-0.003756723171,-0.001101935812,-0.004858658984,-0.005097120601,-0.0001095601639,-0.005206680765,0.0003992722387,-0.004750475038,-0.004351202799,-0.005755877559,0.001756560116,-0.003999317443,-0.003564187933,0.0002897716871,-0.003274416246,-0.003141140784,0.0008263608168,-0.002314779967,-0.001479579796,-0.002047759408,-0.003527339203,-0.002093333299,-0.002139865199,-0.004233198498,-0.003332249409,-0.0003742638127,-0.003706513222,-0.002296662154,-0.001579204873,-0.003875867027,-0.002092052504,-0.000799935855,-0.002891988359,-0.005291610127,-0.0003814756668,-0.005673085793,-0.003269255237,-0.0005393629062,-0.003808618143,-0.005509409638,0.0003006412943,-0.005208768344,-0.001375299773,-0.0007622374948,-0.002137537267,-2.829689882e-05,-0.0006981303623,-0.0007264272611,0.001069804112,-0.002577379227,-0.001507575115,0.0008664272688,-0.000914875238,-4.844796918e-05,0.0003007279921,-0.001089517177,-0.0007887891847,-0.002107704536,-0.001505159318,-0.003612863854,0.001577203946,-0.001791548756,-0.00021434481,-0.001189044849,-0.003330214261,-0.00451925911,0.001150110769,-0.001669017173,-0.0005189064041,-0.004259914087,0.001016831643,-0.003243082444,-0.004188991347,0.0009102184723,-0.003278772875,-0.004867417586,0.0008272733636,-0.004040144222,-0.003980882622,0.0006653853041,-0.003315497318,-0.00459069998,0.002272911886,-0.002317788094,-0.002534893925,0.001884254905,-0.0006506390197,-0.005892838554,0.001560521613,-0.004332316941,-0.00788391363,0.003198905759,-0.004685007871
19.0,-0.002708915697,-4.701868355e-05,-0.00275593438,-0.003995442442,0.0003369267021,-0.00365851574,-0.002135500887,-0.000235628394,-0.002371129281,-0.001365257272,-0.0006263575361,-0.001991614808,-0.002763596992,-0.0003444613441,-0.003108058336,-0.003817868068,-0.001095928246,-0.004913796314,-0.005167026345,-0.000101728274,-0.005268754619,0.0004254190103,-0.00480092688,-0.00437550787,-0.005828297055,0.001766604221,-0.004061692834,-0.003634655877,0.0002944247264,-0.003340231151,-0.003222958248,0.0008301199437,-0.002392838304,-0.001525410745,-0.002036478169,-0.003561888914,-0.001992542474,-0.00225798698,-0.004250529455,-0.003359037687,-0.0003535858841,-0.003712623572,-0.002326236353,-0.001551471439,-0.003877707792,-0.002156531232,-0.0007831356765,-0.002939666909,-0.005324277373,-0.000400255471,-0.005724532844,-0.003351254816,-0.0005212472206,-0.003872502037,-0.005582367868,0.000308384646,-0.005273983222,-0.001422091964,-0.0007560644656,-0.00217815643,-7.723287667e-05,-0.0007056021784,-0.0007828350551,0.0009773630877,-0.002534666416,-0.001557303329,0.0008354660077,-0.0009146658138,-7.919980609e-05,0.000260880021,-0.001088229123,-0.000827349102,-0.002178556215,-0.00144911706,-0.003627673274,0.00149313631,-0.001762450512,-0.0002693142024,-0.001256241058,-0.003354464167,-0.004610705225,0.001115912796,-0.001652226496,-0.0005363136999,-0.004334445842,0.001091510653,-0.003242935188,-0.004294602767,0.0009444416346,-0.003350161133,-0.004915064832,0.0008026013759,-0.004112463456,-0.004092589132,0.0006780723801,-0.003414516752,-0.004679370793,0.002267538924,-0.002411831869,-0.002593000805,0.001807995352,-0.0007850054529,-0.005998037861,0.001603776164,-0.004394261696,-0.007854627994,0.003005389757,-0.004849238237
19.1,-0.002749954369,-3.313417235e-05,-0.002783088542,-0.004061120777,0.0003397764898,-0.003721344287,-0.002183337638,-0.0002209131591,-0.002404250797,-0.001413055788,-0.0006285063637,-0.002041562151,-0.002834152421,-0.0003424917495,-0.00317664417,-0.003881569746,-0.001089952733,-0.004971522479,-0.005239186083,-9.390366085e-05,-0.005333089744,0.0004446428685,-0.004839295645,-0.004394652777,-0.005901170977,0.001776598457,-0.00412457252,-0.00370581111,0.0002991021402,-0.00340670897,-0.003305118346,0.0008338708478,-0.002471247498,-0.001570441228,-0.002023435359,-0.003593876587,-0.001894484349,-0.002370300443,-0.004264784792,-0.003382499794,-0.0003366003359,-0.00371910013,-0.002359840366,-0.001523392456,-0.003883232822,-0.002217662874,-0.000769550937,-0.002987213811,-0.005357243761,-0.0004194863176,-0.005776730078,-0.003432713718,-0.0005039586675,-0.003936672386,-0.005656550372,0.000318011148,-0.005338539224,-0.001469755133,-0.0007509741662,-0.002220729299,-0.0001283677944,-0.0007125530074,-0.0008409208018,0.0008784718602,-0.002484380525,-0.001605908664,0.0008036344428,-0.0009145201552,-0.0001108857124,0.0002220156343,-0.001086908513,-0.0008648928792,-0.002247701482,-0.001396718811,-0.003644420293,0.001408065101,-0.001731990664,-0.0003239255631,-0.001329943163,-0.003357444101,-0.004687387264,0.001076248981,-0.001633003154,-0.0005567541736,-0.004411533491,0.001170445846,-0.003241087645,-0.004392506495,0.0009752555715,-0.003417250924,-0.004960372459,0.0007764335229,-0.004183938936,-0.004202456035,0.0006906139153,-0.00351184212,-0.004758813315,0.002253983992,-0.002504829324,-0.002641603311,0.001730520474,-0.0009110828377,-0.006080952918,0.00163282465,-0.004448128268,-0.007822914089,0.00281435705,-0.005008557039
19.2,-0.002789464964,-1.912765065e-05,-0.002808592615,-0.004125371177,0.0003426184212,-0.003782752755,-0.002231999407,-0.0002061122939,-0.002438111701,-0.001461931962,-0.0006305271143,-0.002092459077,-0.002906470216,-0.0003404649534,-0.003246935169,-0.003947390244,-0.00108404693,-0.005031437174,-0.005313313252,-8.616985702e-05,-0.005399483109,0.0004561304432,-0.004865013248,-0.004408882805,-0.00597428386,0.001786540366,-0.004187743494,-0.003777396258,0.0003037338256,-0.003473662432,-0.003387317257,0.0008376297441,-0.002549687513,-0.001614197681,-0.002008945398,-0.003623143079,-0.001801142781,-0.002475960931,-0.004277103712,-0.003402760972,-0.0003233195769,-0.003726080549,-0.002397243474,-0.001496364534,-0.003893608008,-0.00227511333,-0.000759208174,-0.003034321504,-0.005391052568,-0.0004386613308,-0.005829713898,-0.003513499382,-0.0004874855933,-0.004000984976,-0.005731881763,0.0003294522428,-0.00540242952,-0.001518067908,-0.0007470932719,-0.00226516118,-0.0001814720477,-0.0007189736538,-0.0009004457015,0.0007734457876,-0.002426623319,-0.001653177531,0.0007710144294,-0.0009144515669,-0.0001434371375,0.0001843216192,-0.001085587843,-0.0009012662242,-0.002315014125,-0.00134822752,-0.003663241645,0.001322189265,-0.001700315796,-0.0003781265306,-0.001411351689,-0.003337721645,-0.004749073334,0.001030930143,-0.001611195244,-0.0005802651007,-0.004490776729,0.001253279542,-0.003237497187,-0.004482642238,0.001002823013,-0.003479819225,-0.00500392843,0.0007493796535,-0.004254548777,-0.004310467636,0.0007031059137,-0.003607361722,-0.004829226872,0.00223281166,-0.002596415212,-0.002681345096,0.001652919,-0.001028426096,-0.006141810141,0.001647520009,-0.004494290133,-0.007788543172,0.00262555324,-0.005162989932
19.3,-0.002827375909,-5.032337006e-06,-0.002832408246,-0.004188020709,0.0003454849817,-0.003842535728,-0.002281364353,-0.0001912466404,-0.002472610994,-0.001511724414,-0.0006324096288,-0.002144134043,-0.002980300414,-0.0003383852226,-0.003318685636,-0.004014861552,-0.001078266388,-0.005093127941,-0.005389112017,-7.860515736e-05,-0.005467717174,0.0004592563564,-0.004877828457,-0.0044185721,-0.006047413885,0.001796429758,-0.004250984127,-0.003849162548,0.0003082613557,-0.003540901192,-0.003469249429,0.0008414134536,-0.002627835975,-0.001656230354,-0.001993323615,-0.003649553969,-0.001714513834,-0.002574147758,-0.004288661593,-0.003420003049,-0.0003136903562,-0.003733693406,-0.002438149534,-0.001471730011,-0.003909879545,-0.002328680671,-0.000752071224,-0.003080751895,-0.005426269744,-0.0004572598537,-0.005883529598,-0.003593512476,-0.0004717795862,-0.004065292062,-0.005808238046,0.0003425884312,-0.005465649614,-0.001566809175,-0.0007445389637,-0.002311348139,-0.000236296935,-0.0007248671493,-0.0009611640843,0.000662642558,-0.002361541529,-0.001698898971,0.0007376896379,-0.0009144702194,-0.0001767805815,0.0001479658387,-0.001084297329,-0.0009363314901,-0.002380390738,-0.001303837403,-0.003684228141,0.001235738659,-0.001667589031,-0.000431850372,-0.001501840475,-0.003294189642,-0.004796030117,0.0009798793609,-0.001586689465,-0.0006068101038,-0.004571675278,0.00133952171,-0.003232153568,-0.004565063148,0.001027348091,-0.003537715057,-0.005046402073,0.000722041378,-0.004324360695,-0.004416599744,0.0007156265152,-0.003700973229,-0.004890931568,0.002204555534,-0.002686376034,-0.00271296949,0.001576175788,-0.001136793703,-0.006181131516,0.001647897117,-0.004533234399,-0.007751473019,0.00243874465,-0.005312728369
19.4,-0.002863625682,9.118704519e-06,-0.002854506977,-0.004248909911,0.0003484086884,-0.003900501222,-0.002331307645,-0.0001763366702,-0.002507644315,-0.001562268627,-0.0006341454156,-0.002196414043,-0.003055383014,-0.000336254812,-0.003391637826,-0.004083502167,-0.00107267965,-0.005156181816,-0.005466278299,-7.128178203e-05,-0.005537560081,0.0004536138859,-0.004877831298,-0.004424217412,-0.006120334419,0.001806268509,-0.004314065909,-0.003920873443,0.0003126404764,-0.003608232967,-0.003550609943,0.00084523888,-0.002705371063,-0.001696121693,-0.001976879215,-0.003673000907,-0.001636568927,-0.00266406547,-0.004300634397,-0.00343445887,-0.0003075999465,-0.003742058816,-0.002482184343,-0.001450758085,-0.003932942428,-0.002378287231,-0.0007480491345,-0.003126336365,-0.005463478184,-0.00047475178,-0.005938229964,-0.003672686202,-0.0004567564997,-0.004129442702,-0.005885449958,0.0003572532005,-0.005528196758,-0.001615758987,-0.0007434207354,-0.002359179722,-0.0002925775091,-0.0007302484699,-0.001022825979,0.0005464819029,-0.002289350945,-0.001742869042,0.0007037445395,-0.0009145828239,-0.0002108382844,0.000113095762,-0.001083066248,-0.000969970486,-0.002443745458,-0.00126367579,-0.003707421248,0.00114896909,-0.001633987978,-0.0004850188887,-0.001602821423,-0.003226160314,-0.004828981738,0.0009231346662,-0.00155942381,-0.0006362891438,-0.004653661895,0.001428557517,-0.003225104378,-0.00463992594,0.001049064566,-0.003590861375,-0.005088534976,0.0006950059024,-0.004393529073,-0.004520815675,0.0007282329115,-0.003792582763,-0.00494436874,0.002169710573,-0.002774658167,-0.002737311286,0.001501168609,-0.001236142676,-0.006199698896,0.001634157395,-0.004565541501,-0.007711890819,0.002253792998,-0.005458097821
19.5,-0.002898163373,2.329290523e-05,-0.002874870468,-0.004307892949,0.0003514213089,-0.00395647164,-0.002381702539,-0.000161402365,-0.002543104904,-0.001613397539,-0.0006357273761,-0.002249124915,-0.003131449924,-0.0003340739253,-0.003465523849,-0.004152833391,-0.001067363645,-0.005220197036,-0.005544501248,-6.426526971e-05,-0.005608766518,0.0004390122086,-0.004865443803,-0.004426431595,-0.006192815702,0.001816060398,-0.004376755304,-0.003992307548,0.0003168426182,-0.003675464929,-0.00363109713,0.0008491226205,-0.002781974509,-0.001733494775,-0.001959907917,-0.003693402693,-0.001569226474,-0.002744940773,-0.004314167247,-0.003446408564,-0.0003048827352,-0.003751291299,-0.002528890185,-0.001434626054,-0.003963516239,-0.002423969349,-0.0007470038681,-0.003170973217,-0.005503268449,-0.0004906031483,-0.005993871597,-0.003750985346,-0.000442299783,-0.004193285129,-0.005963311615,0.000373241224,-0.005590070391,-0.001664699191,-0.0007438415057,-0.002408540697,-0.0003500360164,-0.0007351432628,-0.001085179279,0.0004254720141,-0.002210364943,-0.001784892929,0.0006692637169,-0.000914792263,-0.0002455285461,7.983763435e-05,-0.001081924099,-0.001002086465,-0.002505011501,-0.001227803011,-0.003732814512,0.001062156333,-0.00159970304,-0.0005375467072,-0.001715587374,-0.003133463153,-0.004849050527,0.0008608450697,-0.001529397069,-0.0006685519996,-0.004736140232,0.001519663754,-0.003216476478,-0.004707481529,0.001068226323,-0.003639255207,-0.005131126866,0.0006688426186,-0.004462284248,-0.004623064053,0.0007409590677,-0.003882104985,-0.004990108004,0.002128741129,-0.002861366874,-0.002755285176,0.001428668475,-0.001326616701,-0.006198512125,0.001606643733,-0.004591868392,-0.007670256836,0.00207073777,-0.005599519066
19.6,-0.002930948706,3.745853726e-05,-0.002893490169,-0.00436483728,0.0003545531918,-0.004010284088,-0.002432420953,-0.0001464631124,-0.002578884065,-0.001664941966,-0.0006371497571,-0.002302091723,-0.003208226588,-0.0003318407425,-0.00354006733,-0.004222390106,-0.001062401324,-0.00528479143,-0.005623464784,-5.761369082e-05,-0.005681078474,0.0004154431387,-0.004841378266,-0.004425935127,-0.006264625865,0.001825810853,-0.004438815012,-0.004063259373,0.0003208552544,-0.003742404119,-0.003710414257,0.0008530807191,-0.002857333538,-0.001768021407,-0.001942683182,-0.003710704589,-0.001514331832,-0.002816008799,-0.004330340631,-0.003456175632,-0.000305326709,-0.003761502341,-0.002577737253,-0.00142438551,-0.004002122763,-0.002465866335,-0.0007487558237,-0.003214622159,-0.005546220463,-0.0005042878863,-0.00605050835,-0.003828402786,-0.0004282662916,-0.004256669078,-0.006041590346,0.0003903184027,-0.005651271943,-0.001713413018,-0.0007458979533,-0.002459310971,-0.0004083844675,-0.0007395857251,-0.001147970193,0.0003002366676,-0.002125022116,-0.001824785449,0.0006343324678,-0.0009150972384,-0.0002807647706,4.829681998e-05,-0.001080901086,-0.001032604266,-0.002564148298,-0.001196209183,-0.003760357481,0.0009755931009,-0.001564936026,-0.0005893429249,-0.001841160347,-0.003016527075,-0.004857687422,0.0007932646564,-0.001496673672,-0.000703409016,-0.004818521824,0.001612034812,-0.003206487012,-0.004768062273,0.001085099625,-0.003682962647,-0.005175016071,0.0006441017579,-0.004530914313,-0.004723278781,0.0007538156971,-0.003969463084,-0.005028850016,0.002082092659,-0.002946757357,-0.002767872092,0.001359343511,-0.00140852858,-0.00617875137,0.001565818039,-0.004612933331,-0.007627344502,0.001889878016,-0.005737466486
19.7,-0.00296195078,5.158504358e-05,-0.002910365737,-0.004419622255,0.0003578328112,-0.004061789444,-0.002483332829,-0.0001315376698,-0.002614870499,-0.00171673034,-0.0006384084017,-0.002355138742,-0.003285432768,-0.0003295516245,-0.003614984392,-0.004291722536,-0.001057882625,-0.005349605161,-0.005702848568,-5.137665193e-05,-0.00575422522,0.0003830379381,-0.004806577235,-0.004423539296,-0.00633553075,0.001835526559,-0.004500004191,-0.004133537281,0.0003246812541,-0.003808856027,-0.003788269548,0.0008571284943,-0.002931141053,-0.00179942704,-0.00192544773,-0.00372487477,-0.001473639602,-0.002876492372,-0.004350131974,-0.00346411867,-0.0003086821408,-0.003772800811,-0.002628145284,-0.001420913927,-0.004049059211,-0.00250420798,-0.0007530868279,-0.003257294808,-0.005592877309,-0.0005153052099,-0.006108182519,-0.003904951912,-0.0004144941531,-0.004319446065,-0.006120034501,0.0004082310127,-0.005711803488,-0.001761684145,-0.0007496793971,-0.002511363542,-0.0004673255797,-0.0007436159907,-0.00121094157,0.000171538692,-0.00203390915,-0.001862370458,0.0005990389508,-0.000915491995,-0.0003164530442,1.855984667e-05,-0.001080027881,-0.001061468035,-0.002621149715,-0.001168809022,-0.003789958737,0.0008895909275,-0.001529898718,-0.0006403077902,-0.001980163375,-0.002876435832,-0.004856599207,0.0007207475671,-0.001461382252,-0.0007406346853,-0.00490026542,0.001704820263,-0.003195445157,-0.00482206293,0.001099955325,-0.003722107605,-0.005221054219,0.0006213136274,-0.004599740592,-0.00482138103,0.0007667929951,-0.004054588035,-0.005061417747,0.002030201061,-0.003031216686,-0.002776103508,0.001293763515,-0.001482339993,-0.006141746144,0.001512247607,-0.004629498536,-0.007584259008,0.001711834497,-0.005872424512
19.8,-0.002991145409,6.564325178e-05,-0.002925502157,-0.00447213667,0.0003612865018,-0.004110850169,-0.002534304201,-0.0001166442065,-0.002650948408,-0.001768587546,-0.0006395011498,-0.002408088695,-0.003362782447,-0.000327201551,-0.003689983998,-0.004360390232,-0.001053907806,-0.005414298038,-0.005782327958,-4.559460614e-05,-0.005827922564,0.000342033922,-0.004762152187,-0.004420118265,-0.006405292854,0.00184521496,-0.004560077894,-0.004202959208,0.0003283375644,-0.003874621643,-0.003864374781,0.0008612803801,-0.0030030944,-0.001827490153,-0.001908407813,-0.003735897966,-0.001448789048,-0.002925585749,-0.004374374796,-0.003470616525,-0.0003146739718,-0.003785290496,-0.002679501753,-0.001424865029,-0.004104366782,-0.00253930056,-0.0007597406206,-0.00329904118,-0.005643716439,-0.0005231982716,-0.006166914711,-0.003980655278,-0.0004008120489,-0.004381467327,-0.006198378194,0.0004267128932,-0.005771665301,-0.00180929652,-0.0007552646579,-0.002564561178,-0.0005265525236,-0.0007472775077,-0.001273830031,4.029652847e-05,-0.001937777538,-0.00189748101,0.0005634771682,-0.0009159662347,-0.0003524890665,-9.302004575e-06,-0.001079335176,-0.00108863718,-0.002676047696,-0.001145439329,-0.003821487026,0.000804485512,-0.001494811235,-0.0006903257227,-0.002132723941,-0.002714954721,-0.004847678662,0.000643745875,-0.001423710006,-0.0007799641306,-0.004980921301,0.001797172577,-0.003183748724,-0.004869916552,0.001113060297,-0.003756856255,-0.005270077994,0.0006009892644,-0.004669088729,-0.004917282512,0.0007798656321,-0.00413741688,-0.005088739144,0.001973503142,-0.003115236002,-0.002781040658,0.001232400268,-0.00154864039,-0.006088946362,0.001446599263,-0.004642347098,-0.007542416526,0.001537573477,-0.006004843049
19.9,-0.003018511702,7.960533939e-05,-0.002938906363,-0.004522275879,0.0003649383123,-0.004157337567,-0.002585194779,-0.0001018003107,-0.002686995089,-0.00182033322,-0.0006404281103,-0.002460761331,-0.003439983456,-0.0003247847147,-0.003764768171,-0.004427953501,-0.001050590224,-0.005478543726,-0.005861573347,-4.029879771e-05,-0.005901872145,0.0002927599767,-0.004709332835,-0.004416572858,-0.006473670356,0.001854883758,-0.004618786598,-0.004271347402,0.0003318532698,-0.003939494133,-0.003938443694,0.0008655497849,-0.003072893909,-0.00185203673,-0.001891731396,-0.003743768126,-0.001441274125,-0.002962449248,-0.004403723373,-0.003476047528,-0.0003230178295,-0.003799065358,-0.002731174689,-0.001436629735,-0.004167804424,-0.002571513293,-0.0007684214648,-0.003339934758,-0.005699123891,-0.0005275696872,-0.006226693579,-0.004055531864,-0.0003870492216,-0.004442581086,-0.006276344288,0.0004454913677,-0.00583085292,-0.001856035759,-0.0007627173267,-0.002618753086,-0.0005857486533,-0.0007506148594,-0.001336363513,-9.240819582e-05,-0.001837554497,-0.001929962693,0.0005277496913,-0.0009165053855,-0.0003887556943,-3.522842084e-05,-0.00107885365,-0.001114082071,-0.002728907231,-0.00112586498,-0.003854772212,0.0007206413009,-0.00145990018,-0.0007392588794,-0.002298418206,-0.002534521238,-0.004832939444,0.0005628102466,-0.001383896762,-0.0008210865159,-0.005060171532,0.001888295037,-0.003171876495,-0.004912069501,0.001124669255,-0.003787400246,-0.005322882369,0.0005836237084,-0.00473925866,-0.005010889576,0.0007929991922,-0.004217890384,-0.005111829078,0.001912451977,-0.0031993771,-0.002783747566,0.001175623355,-0.00160812421,-0.006021891785,0.001369636293,-0.004652255492,-0.007503487646,0.001368390435,-0.006135097211
20.0,-0.003044028908,9.344455858e-05,-0.002950584349,-0.004569939335,0.0003688099509,-0.004201129385,-0.002635856137,-8.702285147e-05,-0.002722878988,-0.001871780201,-0.0006411916184,-0.00251297182,-0.003516737575,-0.0003222951087,-0.003839032684,-0.004493967549,-0.001048055819,-0.005542023368,-0.005940250012,-3.551158761e-05,-0.0059757616,0.0002356395249,-0.004649430036,-0.004413790511,-0.006540417085,0.001864540484,-0.004675876601,-0.004338523313,0.0003352668579,-0.004003256455,-0.004010191351,0.0008699490072,-0.003140242344,-0.001872932829,-0.001875549761,-0.00374848259,-0.001452421013,-0.002986212994,-0.004438634007,-0.003480765828,-0.0003334380562,-0.003814203884,-0.002782527292,-0.001456313192,-0.004238840484,-0.002601266942,-0.0007787928631,-0.003380059805,-0.005759375647,-0.0005280917354,-0.006287467382,-0.004129586135,-0.0003730449884,-0.004502631123,-0.006353648051,0.000464293177,-0.005889354874,-0.001901692228,-0.0007720805957,-0.002673772824,-0.0006445882932,-0.0007536721828,-0.001398260476,-0.0002253312707,-0.001734348843,-0.001959680113,0.0004919693844,-0.000917091298,-0.0004251219136,-5.916588607e-05,-0.00107861482,-0.001137780706,-0.002779812007,-0.001109795368,-0.003889607374,0.0006384512987,-0.001425396366,-0.0007869450671,-0.002476263818,-0.002338190896,-0.004814454714,0.0004785892937,-0.001342229922,-0.000863640628,-0.005137849757,0.001977474575,-0.003160375182,-0.004948958991,0.001135018305,-0.003813940686,-0.005380196561,0.0005696998989,-0.004810496662,-0.005102107935,0.0008061570248,-0.00429595091,-0.005131775021,0.001847534122,-0.003284240899,-0.002785262974,0.001123697227,-0.001661565747,-0.005942183243,0.001282214712,-0.004659968531,-0.007469321615,0.001205864631,-0.006263456985
20.1,-0.0030676743,0.0001071348917,-0.002960539408,-0.004615029081,0.0003729207759,-0.004242108306,-0.002686131115,-7.232773021e-05,-0.002758458845,-0.00192273375,-0.0006417958704,-0.00256452962,-0.003592741571,-0.0003197269711,-0.003912468542,-0.00455798234,-0.001046438191,-0.00560442053,-0.006018019143,-3.12468444e-05,-0.006049265987,0.0001711986536,-0.004583805197,-0.004412606544,-0.006605283674,0.001874192167,-0.004731091506,-0.004404303426,0.000338622809,-0.004065680617,-0.004079334899,0.0008744892207,-0.003204845679,-0.001890077643,-0.001859961325,-0.003750038968,-0.001483375359,-0.002995986781,-0.004479362139,-0.003485079336,-0.0003456845549,-0.00383076389,-0.002832936323,-0.001483730389,-0.004316666711,-0.002629024435,-0.0007904788844,-0.00341950332,-0.005824627458,-0.0005245119099,-0.006349139368,-0.004202801219,-0.0003586566444,-0.004561457863,-0.006430003181,0.0004828512553,-0.005947151926,-0.001946065113,-0.000783372845,-0.002729437958,-0.000702739064,-0.0007564919528,-0.001459231017,-0.0003570749062,-0.001629449555,-0.001986524461,0.0004562599857,-0.0009177032499,-0.0004614432641,-8.106373355e-05,-0.001078652807,-0.00115971654,-0.002828844347,-0.001096907542,-0.00392575189,0.0005583306978,-0.00139153159,-0.0008332008925,-0.002664754147,-0.002129545585,-0.004794299732,0.0003918224713,-0.001299038234,-0.0009072157625,-0.005213931046,0.002064089641,-0.003149841405,-0.004980994335,0.001144320813,-0.003836673521,-0.005442660757,0.0005596885447,-0.004882972213,-0.005190847155,0.0008193059441,-0.00437154121,-0.005149724458,0.001779282572,-0.003370441887,-0.002786578369,0.00107678449,-0.001709793879,-0.005851464381,0.001185281417,-0.004666182964,-0.007441860822,0.001051795425,-0.006390065397
20.2,-0.003089422294,0.0001206507973,-0.002968771497,-0.004657449098,0.000377287705,-0.004280161393,-0.002735854343,-5.772968148e-05,-0.002793584024,-0.001972991787,-0.0006422463845,-0.002615238171,-0.003667689093,-0.00031707507,-0.003984764163,-0.004619548981,-0.001045869624,-0.005665418605,-0.006094539882,-2.751039639e-05,-0.006122050278,0.0001000614923,-0.004513832768,-0.004413771275,-0.006668019491,0.001883845125,-0.004784174365,-0.004468496397,0.0003419679753,-0.004126528422,-0.004145595319,0.000879180509,-0.00326641481,-0.001903397369,-0.001845036849,-0.003748434217,-0.001535083256,-0.002990876147,-0.004525959403,-0.003489232486,-0.0003595458526,-0.003848778338,-0.002881808533,-0.001518420479,-0.004400229012,-0.002655280793,-0.0008030702148,-0.003458351007,-0.005894911287,-0.0005166564274,-0.006411567714,-0.004275136458,-0.0003437657882,-0.004618902246,-0.006505130613,0.000500912559,-0.006004218054,-0.001988966296,-0.0007965846978,-0.002785550994,-0.0007598654162,-0.000759113804,-0.00151897922,-0.0004861086068,-0.001524312169,-0.002010420775,0.000420755968,-0.0009183190378,-0.0004975630698,-0.0001008700734,-0.001079006565,-0.001179876638,-0.002876065223,-0.001086870392,-0.003962935615,0.0004807056912,-0.001358534111,-0.0008778284196,-0.002861911235,-0.001912587111,-0.004774498346,0.000303324632,-0.001254682177,-0.0009513575447,-0.005288496742,0.002147596959,-0.003140899783,-0.005008541803,0.001152765695,-0.003855776109,-0.005510802745,0.0005540408404,-0.004956761905,-0.005277024269,0.0008324198174,-0.004444604452,-0.005166867543,0.001708282,-0.003458585543,-0.002788623984,0.0010349542,-0.001753669783,-0.005751417626,0.001079878212,-0.004671539415,-0.007423048275,0.0009081275441,-0.006514920731
20.3,-0.003109244309,0.0001339670571,-0.002975277252,-0.004697105048,0.0003819249568,-0.004315180091,-0.002784853228,-4.32422821e-05,-0.00282809551,-0.002022345877,-0.0006425495234,-0.0026648954,-0.003741272922,-0.0003143349087,-0.00405560783,-0.004678231158,-0.001046469578,-0.005724700736,-0.006169471666,-2.430052859e-05,-0.006193772194,2.292330256e-05,-0.004440846852,-0.004417923549,-0.006728374558,0.001893504823,-0.004834869735,-0.004530901174,0.000345348283,-0.004185552891,-0.004208699183,0.0008840318968,-0.003324667286,-0.001912839892,-0.001830824526,-0.003743664418,-0.001608249036,-0.002970010952,-0.004578259989,-0.003493394435,-0.0003748575419,-0.003868251977,-0.002928589144,-0.001559678274,-0.004488267418,-0.002680547708,-0.0008161353183,-0.003496683026,-0.005970135783,-0.0005044328155,-0.006474568598,-0.00434652789,-0.0003282833324,-0.004674811223,-0.00657876924,0.0005182467391,-0.006060522501,-0.002030222919,-0.0008116775074,-0.002841900426,-0.0008156321931,-0.0007615733204,-0.001577205514,-0.0006108034167,-0.001420530909,-0.002031334326,0.0003856025221,-0.0009189160194,-0.0005333134973,-0.0001185276709,-0.001079721364,-0.001198249035,-0.002921498299,-0.001079366436,-0.004000864735,0.0004060007755,-0.001326623033,-0.0009206222576,-0.003065333062,-0.001691635868,-0.004756968931,0.0002139652378,-0.001209541493,-0.0009955762552,-0.005361688261,0.002227511304,-0.003134176957,-0.005031912365,0.001160517425,-0.00387139494,-0.005585015347,0.0005531747374,-0.00503184061,-0.005360566529,0.0008454818727,-0.004515084656,-0.005184407376,0.001635164873,-0.003549242503,-0.002792257008,0.0009981898007,-0.001794067207,-0.005643766134,0.0009671485505,-0.004676617583,-0.007414732522,0.0007768683152,-0.006637864207
20.4,-0.003127108427,0.0001470586396,-0.002980049788,-0.004733903763,0.0003868436845,-0.004347060079,-0.002832948499,-2.887823464e-05,-0.002861826734,-0.002070582362,-0.0006427122812,-0.002713294643,-0.003813186827,-0.0003115029573,-0.004124689784,-0.004733617936,-0.001048332877,-0.005781950813,-0.006242476111,-2.160829812e-05,-0.006264084409,-5.94906424e-05,-0.004366078077,-0.00442556872,-0.006786100655,0.001903175702,-0.004882924954,-0.004591305341,0.0003488060668,-0.004242499274,-0.004268379321,0.0008890512917,-0.003379328029,-0.001918372053,-0.001817352034,-0.003735724087,-0.00170326614,-0.002932596606,-0.004635862746,-0.00349765316,-0.0003915054664,-0.003889158626,-0.002972760044,-0.001606601922,-0.004579361966,-0.002705331865,-0.0008292338115,-0.003534565677,-0.006050089525,-0.0004878298964,-0.006537919422,-0.00441688927,-0.000312152599,-0.004729041869,-0.006650686274,0.0005346548891,-0.006116031385,-0.002069677947,-0.0008285825417,-0.002898260489,-0.0008697067565,-0.0007639010387,-0.001633607795,-0.0007294760951,-0.001319799164,-0.002049275259,0.000350956436,-0.000919472124,-0.000568515688,-0.0001339707237,-0.001080848261,-0.001214818985,-0.002965118846,-0.001074109326,-0.004039228172,0.0003346288478,-0.001296002471,-0.0009613736235,-0.003272226558,-0.001471238927,-0.004743465484,0.0001246479825,-0.001164003087,-0.001039355104,-0.005433662034,0.002303390133,-0.003130271901,-0.005051352287,0.001167717164,-0.003883635123,-0.0056655355,0.000557457897,-0.005108077603,-0.005441412434,0.0008584869148,-0.004582925519,-0.005203512633,0.001560596792,-0.003642915841,-0.002798244511,0.0009663936879,-0.001831850823,-0.005530269702,0.0008483392713,-0.004681930431,-0.007418575505,0.0006599979814,-0.006758577524
20.5,-0.003142978087,0.0001599005232,-0.002983077564,-0.004767751963,0.000392051615,-0.004375700348,-0.002879953693,-1.464988464e-05,-0.002894603578,-0.002117483103,-0.0006427423385,-0.002760225442,-0.003883126523,-0.0003085769716,-0.004191703495,-0.004785333883,-0.001051519594,-0.005836853476,-0.006313217873,-1.941758276e-05,-0.006332635455,-0.000146462445,-0.004290598214,-0.004437060659,-0.006840951284,0.00191286086,-0.004928090424,-0.004649482991,0.0003523779732,-0.004297105018,-0.004324373875,0.0008942452621,-0.003430128613,-0.001919981567,-0.001804624076,-0.003724605643,-0.001820131521,-0.002877989806,-0.004698121326,-0.003502016509,-0.0004094231059,-0.003911439614,-0.003013828864,-0.001658154835,-0.004671983699,-0.002730113726,-0.0008419269469,-0.003572040673,-0.006134446501,-0.0004669138737,-0.006601360374,-0.004486111082,-0.0002953499738,-0.004781461056,-0.006720683934,0.0005499765328,-0.006170707401,-0.002107188491,-0.0008472001109,-0.002954388602,-0.0009217589869,-0.0007661219857,-0.001687880973,-0.0008404381447,-0.001223862679,-0.002064300824,0.0003169878877,-0.0009199669407,-0.000602979053,-0.0001471236349,-0.001082441267,-0.001229564902,-0.003006847994,-0.00107085439,-0.004077702384,0.0002669870656,-0.001266856442,-0.0009998693762,-0.003479442772,-0.001256075104,-0.004735517876,3.62939294e-05,-0.00111845097,-0.00108215704,-0.005504551242,0.002374825179,-0.003129726062,-0.005067038624,0.00117448575,-0.003892552874,-0.00575242592,0.0005671904764,-0.005185235444,-0.005519509622,0.0008714432635,-0.004648066358,-0.005225252923,0.001485250307,-0.003740002616,-0.002807239637,0.0009393904841,-0.001867849153,-0.00541271118,0.0007247939576,-0.004687917223,-0.007435966973,0.0005593780865,-0.006876588886
20.6,-0.003156809855,0.0001724674898,-0.002984342365,-0.004798554315,0.0003975527637,-0.004401001551,-0.002925673793,-5.698496055e-07,-0.002926243643,-0.002162825712,-0.0006426481833,-0.002805473896,-0.003950789896,-0.0003055563888,-0.004256346285,-0.004833044378,-0.001056048029,-0.005889092407,-0.006381364272,-1.770520792e-05,-0.006399069479,-0.0002373034913,-0.004215286098,-0.004452589589,-0.006892681002,0.001922561581,-0.004970119421,-0.004705192179,0.0003560931547,-0.004349099024,-0.00437642441,0.0008996186674,-0.003476805742,-0.00191768343,-0.00179261737,-0.0037103008,-0.001958364018,-0.002805784291,-0.004764148309,-0.00350641936,-0.0004285846813,-0.003935004041,-0.003051313786,-0.001713234311,-0.004764548097,-0.002755335986,-0.0008537807963,-0.003609116782,-0.006222773541,-0.0004418217414,-0.006664595282,-0.004554056761,-0.000277883498,-0.004831940259,-0.006788599725,0.0005640924869,-0.006224507238,-0.002142622264,-0.0008673987848,-0.003010021049,-0.0009714599512,-0.0007682557785,-0.00173971573,-0.0009420470442,-0.001134468228,-0.002076515272,0.000283882229,-0.0009203829335,-0.0006365007046,-0.0001579020547,-0.00108455327,-0.001242455324,-0.003046554251,-0.001069400324,-0.004115954575,0.0002034574372,-0.001239345029,-0.001035887592,-0.003683542365,-0.00105084002,-0.004734382385,-5.017508968e-05,-0.001073256037,-0.001123431127,-0.00557443688,0.002441439054,-0.003132997825,-0.005079081469,0.001180929415,-0.003898152054,-0.005845561273,0.0005825895653,-0.005262971708,-0.005594810071,0.0008843735661,-0.004710436505,-0.005250525692,0.001409771672,-0.003840754019,-0.002819755339,0.0009169318675,-0.001902823472,-0.005292879213,0.0005979397016,-0.004694939511,-0.007467948533,0.0004766658285,-0.006991282705
20.7,-0.003168551239,0.0001847339204,-0.002983817318,-0.004826211599,0.0004033472345,-0.004422864364,-0.002969903995,1.334838759e-05,-0.002956555608,-0.00220638368,-0.0006424390534,-0.002848822734,-0.00401587721,-0.0003024427361,-0.004318319946,-0.004876456421,-0.001061891687,-0.005938348108,-0.006446584055,-1.644169178e-05,-0.006463025747,-0.0003313624913,-0.004140815301,-0.004472177793,-0.00694104508,0.001932276811,-0.005008768268,-0.004758172818,0.0003599716417,-0.004398201176,-0.004424274491,0.0009051742663,-0.003519100225,-0.001911528426,-0.001781276043,-0.003692804469,-0.002116952243,-0.002715881309,-0.004832833552,-0.003510733638,-0.0004489966817,-0.00395973032,-0.003084731604,-0.001770733389,-0.004855464993,-0.002781404351,-0.0008643613836,-0.003645765735,-0.006314540054,-0.0004127538954,-0.00672729395,-0.004620557731,-0.0002597902444,-0.004880347976,-0.006854300033,0.0005769225384,-0.006277377495,-0.002175853523,-0.000889015522,-0.003064869045,-0.001018480979,-0.0007703169515,-0.001788797931,-0.001032759449,-0.001053308105,-0.002086067554,0.0002518405121,-0.0009207066396,-0.0006688661275,-0.0001662154762,-0.001087232171,-0.001253447647,-0.00308406297,-0.001069583774,-0.004153646744,0.0001444076807,-0.001213601773,-0.001069194092,-0.003880901935,-0.0008601105567,-0.004741012492,-0.0001338590503,-0.001028762559,-0.001162621609,-0.00564333088,0.002502888327,-0.003140442553,-0.005087532307,0.001187147591,-0.003900384716,-0.00594462169,0.0006037762834,-0.005340845407,-0.005667264684,0.0008973141775,-0.004769950506,-0.005279990271,0.00133475067,-0.003945239601,-0.002836139537,0.0008987026649,-0.001937436872,-0.005172554735,0.0004692696199,-0.004703285115,-0.007515151704,0.0004132396862,-0.007101912018
20.8,-0.003178139575,0.0001966735989,-0.002981465976,-0.004850619878,0.0004094310965,-0.004441188782,-0.003012429627,2.709004956e-05,-0.002985339577,-0.002247927016,-0.0006421245946,-0.002890051611,-0.004078091942,-0.0002992399732,-0.004377331915,-0.004915316127,-0.001068980452,-0.005984296579,-0.00650854611,-1.559276665e-05,-0.006524138876,-0.0004280291387,-0.00406765429,-0.004495683429,-0.006985800192,0.001942002728,-0.005043797464,-0.004808146127,0.0003640230832,-0.004444123043,-0.004467669886,0.0009109124294,-0.003556757457,-0.001901611986,-0.001770508478,-0.003672120463,-0.002294352631,-0.002608524021,-0.004902876651,-0.003514778766,-0.0004706885346,-0.0039854673,-0.003113594111,-0.0018295838,-0.004943177911,-0.002808694441,-0.0008732266631,-0.003681921104,-0.006409130088,-0.0003799666386,-0.006789096726,-0.004685409386,-0.0002411334769,-0.004926542862,-0.006917669446,0.0005884187365,-0.00632925071,-0.002206760349,-0.0009118570999,-0.003118617449,-0.001062494538,-0.0007723152152,-0.001834809753,-0.001111184689,-0.0009819614352,-0.002093146124,0.0002210780796,-0.0009209296177,-0.0006998515381,-0.0001719702441,-0.00109051818,-0.001262488424,-0.003119170192,-0.001071272025,-0.004190442218,9.018841018e-05,-0.001189731968,-0.001099543558,-0.004067838512,-0.0006882129891,-0.004756051501,-0.0002139096031,-0.0009852721794,-0.001199181783,-0.005711171539,0.002558874671,-0.003152296868,-0.005092396371,0.001193241771,-0.0038991546,-0.006049095707,0.0006307667445,-0.005418328963,-0.00573681853,0.0009103133317,-0.004826505198,-0.005314023089,0.001260702042,-0.004053321048,-0.002856555183,0.0008843273854,-0.001972227797,-0.005053503466,0.0003403230243,-0.004713180442,-0.007577755369,0.0003701399864,-0.007207615383
20.9,-0.003185502429,0.0002082595164,-0.002977242913,-0.00487167114,0.0004157963489,-0.004455874791,-0.003053027719,4.063887992e-05,-0.003012388839,-0.00228722381,-0.0006417142844,-0.002928938094,-0.004137142444,-0.0002959547049,-0.004433097149,-0.004949403527,-0.001077205802,-0.006026609329,-0.006566919049,-1.512118935e-05,-0.006582040238,-0.0005267408558,-0.003996070615,-0.004522811471,-0.007026706271,0.001951732465,-0.005074973805,-0.004854816297,0.0003682461483,-0.004486570149,-0.004506360585,0.0009168309546,-0.00358952963,-0.001888083524,-0.001760185183,-0.003648268706,-0.002488539315,-0.002484293584,-0.004972832899,-0.003518333111,-0.0004937011447,-0.004012034255,-0.003137410291,-0.001888778917,-0.005026189208,-0.002837555818,-0.0008799231821,-0.003717479,-0.006505855871,-0.0003437643526,-0.006849620223,-0.004748368946,-0.000222000445,-0.004970369391,-0.006978599361,0.0005985559461,-0.006380043415,-0.002235224641,-0.0009357023922,-0.003170927033,-0.00110317717,-0.0007742556092,-0.001877432779,-0.001176132939,-0.0009218368553,-0.002097969794,0.0001918214386,-0.0009210490144,-0.0007292275758,-0.0001750723261,-0.001094442321,-0.001269514647,-0.003151655217,-0.001074358535,-0.004226013752,4.1126456e-05,-0.001167811918,-0.001126685462,-0.004240717522,-0.0005391227213,-0.004779840243,-0.0002895607626,-0.0009430306957,-0.001232591458,-0.005777826992,0.00260915932,-0.003168667672,-0.005093647219,0.001199324925,-0.003894322294,-0.006158292023,0.0006634673771,-0.005494824646,-0.005803407265,0.0009234288666,-0.004879978398,-0.005352700105,0.001188060602,-0.004164639503,-0.002880972242,0.0008733795337,-0.002007592708,-0.004937472362,0.0002126659467,-0.004724806415,-0.007655468395,0.0003480303527,-0.007307438042
21.0,-0.003190559357,0.0002194637198,-0.002971095637,-0.004889255316,0.000422431042,-0.004466824274,-0.003091470032,5.397719766e-05,-0.003037492834,-0.002324042773,-0.0006412167839,-0.002965259556,-0.00419274424,-0.0002925962396,-0.004485340479,-0.004978524852,-0.001086430149,-0.006064955002,-0.006621372134,-1.49882518e-05,-0.006636360385,-0.0006269924897,-0.003926138411,-0.0045531309,-0.007063529052,0.001961455955,-0.005102073097,-0.00489787416,0.0003726286862,-0.004525245474,-0.004540103995,0.000922924892,-0.003617179103,-0.001871155752,-0.001750137853,-0.003621293605,-0.00269709086,-0.002344078315,-0.005041169175,-0.003521147755,-0.0005180722265,-0.004039219982,-0.0031556881,-0.0019473861,-0.0051030742,-0.002868308679,-0.0008839919229,-0.003752300602,-0.006603972044,-0.0003044908618,-0.006908462906,-0.004809155392,-0.0002025007568,-0.005011656149,-0.007036978605,0.0006073217794,-0.006429656825,-0.002261134708,-0.0009603046895,-0.003221439398,-0.001140213805,-0.000776138524,-0.001916352329,-0.001226650293,-0.0008741243425,-0.002100774635,0.0001643042186,-0.0009210677292,-0.0007567635105,-0.0001754300153,-0.001099025581,-0.001274455597,-0.003181288458,-0.001078761661,-0.00426005012,-2.482463059e-06,-0.001147889719,-0.001150372182,-0.004396032937,-0.0004163998788,-0.004812432816,-0.000360152655,-0.0009022220799,-0.001262374735,-0.005843100592,0.002653572077,-0.003189528515,-0.005091241007,0.001205530093,-0.003885710914,-0.006271357951,0.0007016736593,-0.005569684292,-0.005866955139,0.0009367266846,-0.004930228455,-0.005395806652,0.001117190464,-0.004278616187,-0.002909177675,0.0008653968039,-0.002043780871,-0.004826188848,8.787497789e-05,-0.00473831387,-0.007747541932,0.0003471864754,-0.007400355457
21.1,-0.003193224446,0.0002302572739,-0.002962967172,-0.004903263118,0.0004293196098,-0.004473943509,-0.003127526882,6.708609864e-05,-0.003060440784,-0.002358156509,-0.0006406394662,-0.002998795976,-0.004244622561,-0.0002891765408,-0.004533799102,-0.005002502679,-0.001096499984,-0.006099002663,-0.006671576892,-1.515498974e-05,-0.006686731882,-0.0007283415102,-0.003857755098,-0.004586096608,-0.007096042541,0.001971159814,-0.005124882727,-0.004937001742,0.0003771484965,-0.004559853246,-0.004568668204,0.000929186379,-0.003639481825,-0.001851110824,-0.001740161054,-0.003591271878,-0.002917301505,-0.002189023572,-0.005106325078,-0.003522960676,-0.0005438188962,-0.004066779572,-0.003167936097,-0.002004555355,-0.005172491452,-0.00290123421,-0.0008849820531,-0.003786216263,-0.006702689814,-0.0002625194732,-0.006965209287,-0.004867451152,-0.0001827644447,-0.005050215597,-0.007092686696,0.0006147083188,-0.006477978377,-0.002284388773,-0.0009853937606,-0.003269782534,-0.0011733022,-0.0007779594564,-0.001951261657,-0.001262035073,-0.000839763955,-0.002101799028,0.0001387631713,-0.0009209941881,-0.0007822310167,-0.0001729567296,-0.00110427817,-0.0012772349,-0.003207834112,-0.001084423398,-0.004292257511,-4.037788217e-05,-0.001129987814,-0.001170365696,-0.004530470012,-0.0003231461109,-0.004853616123,-0.0004251473394,-0.0008629682065,-0.001288115546,-0.005906731829,0.002692009054,-0.003214722775,-0.005085126988,0.001212015496,-0.003873111493,-0.006387302987,0.000745071948,-0.005642231039,-0.0059273738,0.0009502802495,-0.00497709355,-0.005442870856,0.001048408608,-0.004394462247,-0.002940800114,0.0008599015175,-0.002080898597,-0.004721361294,-3.247493038e-05,-0.004753836225,-0.00785281107,0.0003675117882,-0.007485299282
21.2,-0.003193408778,0.0002406103299,-0.002952798448,-0.004913588774,0.0004364433256,-0.004477145449,-0.003160970923,7.994570025e-05,-0.003081025223,-0.002389344997,-0.0006399883133,-0.00302933331,-0.004292514579,-0.0002857101742,-0.004578224753,-0.005021164757,-0.001107260497,-0.006128425254,-0.006717208014,-1.558351087e-05,-0.006732791525,-0.0008303981999,-0.00379067575,-0.00462107395,-0.007124030597,0.001980827249,-0.005143203348,-0.004971876348,0.0003817745303,-0.004590101818,-0.004591834211,0.0009356046038,-0.003656229608,-0.00182829886,-0.001730018389,-0.003558317248,-0.003146309673,-0.002020465333,-0.005166775006,-0.003523506209,-0.0005709202622,-0.004094426471,-0.003173671728,-0.002059523178,-0.005233194906,-0.002936560175,-0.0008824688912,-0.003819029066,-0.006801189689,-0.0002182411997,-0.007019430888,-0.004922904479,-0.0001629393121,-0.005085843791,-0.007145588769,0.0006207073441,-0.006524881425,-0.002304897064,-0.001010678438,-0.003315575502,-0.001202156247,-0.0007797084984,-0.001981864746,-0.001281834422,-0.0008194355361,-0.002101269958,0.0001154350142,-0.0009208418507,-0.0008054068365,-0.0001675733308,-0.001110198795,-0.001277772126,-0.003231048424,-0.00109130587,-0.004322354294,-7.233341483e-05,-0.001114106785,-0.0011864402,-0.004640952074,-0.0002619746733,-0.004902926747,-0.0004841419498,-0.0008253287111,-0.001309470661,-0.005968387517,0.002724418594,-0.003243968924,-0.005075252191,0.001218964152,-0.003856288038,-0.00650502589,0.0007932454033,-0.005711780486,-0.005984559524,0.0009641700432,-0.005020389481,-0.005493210231,0.0009820161741,-0.004511194057,-0.002975338086,0.0008564223317,-0.002118915754,-0.004624673065,-0.0001468233467,-0.004771496411,-0.00796975895,0.0004085689371,-0.007561190013
21.3,-0.00319102206,0.0002504922001,-0.002940529859,-0.004920131779,0.0004437806576,-0.004476351121,-0.003191580254,9.253538047e-05,-0.003099044874,-0.002417398629,-0.0006392681239,-0.003056666753,-0.004336170944,-0.000282214336,-0.00461838528,-0.005034333147,-0.00111856817,-0.006152901317,-0.006757942633,-1.623867244e-05,-0.006774181306,-0.0009327971289,-0.003724569468,-0.004657366597,-0.007147287467,0.001990437967,-0.0051568495,-0.005002173621,0.0003864684099,-0.004615705211,-0.004609396803,0.000942165984,-0.003667230819,-0.001803126467,-0.00171945402,-0.003522580486,-0.003381225604,-0.001839859587,-0.005221085191,-0.003522516571,-0.0005993042643,-0.004121820835,-0.003172440358,-0.002111610038,-0.005284050396,-0.002974441479,-0.00087607365,-0.003850515129,-0.006898632308,-0.0001720513126,-0.007070683621,-0.004975131531,-0.0001431881475,-0.005118319679,-0.007195531848,0.0006253098127,-0.006570222035,-0.002322581002,-0.001035851011,-0.003358432013,-0.001226507745,-0.000781369833,-0.002007877578,-0.001285824461,-0.0008135675265,-0.002099391987,9.455428039e-05,-0.0009206287309,-0.0008260744506,-0.0001592091697,-0.001116774446,-0.001275983616,-0.003250675691,-0.001099385744,-0.004350061436,-9.81507073e-05,-0.001100229524,-0.001198380232,-0.004724660726,-0.0002349972965,-0.004959658022,-0.0005368831459,-0.000789298041,-0.001326181187,-0.006027644306,0.002750778833,-0.003276865472,-0.005061561246,0.001226577902,-0.003834983344,-0.006623343561,0.0008456837297,-0.005777659831,-0.006038387713,0.0009784820315,-0.005059905682,-0.005545975824,0.0009183234229,-0.004627652401,-0.00301218227,0.0008545130951,-0.002157669175,-0.004537760594,-0.0002536461587,-0.004791406752,-0.008096595198,0.0004696144707,-0.007626980727
21.4,-0.003185973523,0.0002598713922,-0.002926102131,-0.004922797525,0.0004513073551,-0.00447149017,-0.00321914084,0.0001048340047,-0.003114306835,-0.002442120461,-0.0006384827878,-0.003080603249,-0.004375356747,-0.0002787089601,-0.004654065707,-0.005041816596,-0.001130298982,-0.006172115578,-0.006793458439,-1.709005902e-05,-0.006810548498,-0.001035161223,-0.003659088922,-0.004694250145,-0.007165617836,0.001999968078,-0.005165649758,-0.005027570159,0.0003911860835,-0.004636384075,-0.004621164819,0.0009488545081,-0.00367231031,-0.001776037702,-0.001708208128,-0.003484245831,-0.003619230842,-0.001648726783,-0.005267957625,-0.003519717762,-0.000628841469,-0.004148559231,-0.00316384296,-0.002160213544,-0.005324056504,-0.003014938231,-0.0008654833329,-0.003880421564,-0.006994168951,-0.000124336118,-0.007118505069,-0.005023718515,-0.0001236863139,-0.005147404829,-0.007242343599,0.0006285098081,-0.006613833791,-0.00233736957,-0.00106059397,-0.00339796354,-0.001246107318,-0.0007829216734,-0.002029028992,-0.001273980757,-0.0008223569275,-0.002096337685,7.63514688e-05,-0.0009203771115,-0.0008440256427,-0.0001478018933,-0.001123981257,-0.00127178315,-0.003266445365,-0.001108647082,-0.004375092447,-0.0001176515615,-0.001088325301,-0.001205976862,-0.004779031113,-0.000243826263,-0.005022857376,-0.00058328053,-0.0007548031054,-0.001338083635,-0.006083970142,0.002771072297,-0.003312897845,-0.005043993148,0.001235066793,-0.003808926354,-0.006741021606,0.0009017947196,-0.005839226886,-0.006088706316,0.0009933050052,-0.005095401311,-0.005600182624,0.0008576577448,-0.004742524879,-0.00305062922,0.00085376598,-0.00219686324,-0.004462176159,-0.0003514894346,-0.004813665594,-0.008231343494,0.0005496343891,-0.007681709104
21.5,-0.00317817293,0.0002687157172,-0.002909457213,-0.004921497538,0.0004589962883,-0.004462501249,-0.003243448785,0.0001168201258,-0.003126628659,-0.002463327881,-0.0006376354323,-0.003100963314,-0.004409852473,-0.0002752168167,-0.00468506929,-0.005043409233,-0.001142351674,-0.006185760907,-0.006823431917,-1.811418465e-05,-0.006841546102,-0.001137076599,-0.003593933101,-0.0047310097,-0.007178837332,0.002009390002,-0.00516944733,-0.005047746848,0.0003958794149,-0.004651867433,-0.004626962031,0.0009556521296,-0.003671309902,-0.001747493135,-0.001696033601,-0.003443526736,-0.003857636156,-0.001448618441,-0.005306254596,-0.003514826557,-0.000659344366,-0.004174170923,-0.003147565731,-0.002204800219,-0.00535236595,-0.003057999216,-0.0008504673053,-0.003908466521,-0.00708695328,-7.546313509e-05,-0.007162416415,-0.005068225193,-0.0001046193179,-0.005172844511,-0.007285834972,0.0006303123404,-0.006655522632,-0.002349194099,-0.001084588489,-0.003433782588,-0.001260725617,-0.0007843368987,-0.002045062516,-0.001246448403,-0.000845789573,-0.002092237976,6.105050321e-05,-0.0009201133485,-0.0008590628453,-0.0001332969221,-0.001131786523,-0.001265083445,-0.003278071956,-0.001119073422,-0.004397145378,-0.0001306723833,-0.001078353497,-0.00120902588,-0.004801742368,-0.0002895790744,-0.005091321443,-0.0006234121006,-0.0007217082203,-0.001345120321,-0.006136711049,0.002785262105,-0.003351448944,-0.005022475235,0.001244634606,-0.003777840628,-0.00685680722,0.0009609162676,-0.005895890952,-0.00613533087,0.001008726674,-0.005126604196,-0.005654729423,0.0008003577779,-0.004854371645,-0.003089889442,0.000853817747,-0.002236071695,-0.004399346203,-0.0004390084621,-0.004838354665,-0.008371932045,0.0006473851843,-0.007724546861
21.6,-0.003167532585,0.0002769926304,-0.002890539955,-0.004916150275,0.000466817198,-0.004449333077,-0.003264313087,0.0001284721419,-0.003135840945,-0.002480854308,-0.0006367284362,-0.003117582744,-0.004439455524,-0.0002717635136,-0.004711219038,-0.005038896629,-0.001154646306,-0.006193542935,-0.006847537911,-1.929673572e-05,-0.006866834647,-0.001238085803,-0.003528888193,-0.004766973996,-0.007186773976,0.002018672432,-0.005168101544,-0.005062393663,0.0004004976313,-0.004661896032,-0.004626629366,0.0009625391837,-0.003664090183,-0.001717950753,-0.001682711999,-0.003400662753,-0.004093908596,-0.00124109542,-0.005335004016,-0.003507555597,-0.0006905676791,-0.004198123276,-0.003123403229,-0.002244898939,-0.005368302168,-0.003103456926,-0.0008308870345,-0.00393434396,-0.007176153942,-2.577655052e-05,-0.007201930493,-0.005108190558,-8.617959534e-05,-0.005194370154,-0.007325806849,0.0006307430014,-0.006695063848,-0.002357982822,-0.001107523791,-0.003465506613,-0.00127015555,-0.0007855842001,-0.00205573975,-0.001203520308,-0.0008836525738,-0.002087172881,4.886502433e-05,-0.0009198675247,-0.0008710025004,-0.0001156473965,-0.001140151563,-0.00125579896,-0.003285257237,-0.001130641321,-0.004415898558,-0.0001370636136,-0.001070266712,-0.001207330325,-0.004790723727,-0.0003728761434,-0.00516359987,-0.0006575164919,-0.0006898300423,-0.001347346534,-0.006185085263,0.00279327281,-0.003391812453,-0.004996914805,0.001255461469,-0.003741453336,-0.006969462715,0.001022328799,-0.005947133916,-0.006178042358,0.001024828007,-0.005153214351,-0.005708422381,0.0007467662461,-0.004961656135,-0.003129094893,0.0008543500696,-0.002274744823,-0.00435053365,-0.0005150022973,-0.004865535947,-0.008516277804,0.0007614434597,-0.007754834344
21.7,-0.003153970613,0.0002846698603,-0.002869300752,-0.004906683019,0.0004747365088,-0.00443194651,-0.003281559086,0.0001397684351,-0.003141790651,-0.002494551349,-0.0006357634297,-0.003130314779,-0.004463982474,-0.0002683773537,-0.004732359828,-0.005028067372,-0.001167119219,-0.006195186591,-0.006865451151,-2.063438402e-05,-0.006886085535,-0.001337691016,-0.003463848113,-0.004801539129,-0.007189270487,0.002027780412,-0.005161490076,-0.005071215606,0.0004049885442,-0.004666227062,-0.004620028325,0.0009694948296,-0.003650533495,-0.001687849635,-0.001668066899,-0.003355916534,-0.004325690232,-0.001027703795,-0.005353394027,-0.003497627671,-0.0007222076632,-0.004219835334,-0.003091271817,-0.002280097529,-0.005371369346,-0.003151030762,-0.0008067010382,-0.0039577318,-0.007260967587,2.440348803e-05,-0.007236564099,-0.005143140981,-6.856206388e-05,-0.005211703045,-0.007362058885,0.0006298561153,-0.00673220277,-0.002363655694,-0.001129107271,-0.003492762965,-0.001274215564,-0.0007866293374,-0.002060844902,-0.001145627568,-0.0009355361342,-0.002081163703,3.999384146e-05,-0.0009196728382,-0.0008796789968,-9.481475558e-05,-0.00114903481,-0.001243849566,-0.003287695084,-0.001143317728,-0.004431012812,-0.0001366939213,-0.001064012885,-0.001200706806,-0.004744185559,-0.0004938357957,-0.005238021355,-0.0006859727967,-0.0006589579589,-0.001344930756,-0.006228187289,0.002794979545,-0.003433207744,-0.004967191274,0.001267686045,-0.003699505229,-0.007077796355,0.001085268175,-0.00599252818,-0.006216587585,0.001041675792,-0.005174911793,-0.005760011525,0.0006972296075,-0.005062781917,-0.003167310389,0.0008550866197,-0.002312223769,-0.004316804688,-0.0005784402958,-0.004895244984,-0.008662356438,0.0008902642484,-0.007772092189
