Time,S1D1HbO,S1D1HbR,S1D1HbT,S2D2HbO,S2D2HbR,S2D2HbT,S3D3HbO,S3D3HbR,S3D3HbT,S4D4HbO,S4D4HbR,S4D4HbT,S5D5HbO,S5D5HbR,S5D5HbT,S6D6HbO,S6D6HbR,S6D6HbT,S7D7HbO,S7D7HbR,S7D7HbT,S8D8HbO,S8D8HbR,S8D8HbT,S9D9HbO,S9D9HbR,S9D9HbT,S10D10HbO,S10D10HbR,S10D10HbT,S11D11HbO,S11D11HbR,S11D11HbT,S12D12HbO,S12D12HbR,S12D12HbT,S13D13HbO,S13D13HbR,S13D13HbT,S14D14HbO,S14D14HbR,S14D14HbT,S15D15HbO,S15D15HbR,S15D15HbT,S16D16HbO,S16D16HbR,S16D16HbT,S17D17HbO,S17D17HbR,S17D17HbT,S18D18HbO,S18D18HbR,S18D18HbT,S19D19HbO,S19D19HbR,S19D19HbT,S20D20HbO,S20D20HbR,S20D20HbT,S21D21HbO,S21D21HbR,S21D21HbT,S22D22HbO,S22D22HbR,S22D22HbT,S23D23HbO,S23D23HbR,S23D23HbT,S24D24HbO,S24D24HbR,S24D24HbT,S25D25HbO,S25D25HbR,S25D25HbT,S26D26HbO,S26D26HbR,S26D26HbT,S27D27HbO,S27D27HbR,S27D27HbT,S28D28HbO,S28D28HbR,S28D28HbT,S29D29HbO,S29D29HbR,S29D29HbT,S30D30HbO,S30D30HbR,S30D30HbT,S31D31HbO,S31D31HbR,S31D31HbT,S32D32HbO,S32D32HbR,S32D32HbT,S33D33HbO,S33D33HbR,S33D33HbT,S34D34HbO,S34D34HbR,S34D34HbT,S35D35HbO,S35D35HbR,S35D35HbT,S36D36HbO,S36D36HbR,S36D36HbT,
-10,1.102982966e-03,-1.730923866e-04,9.298905795e-04,-1.386586401e-04,5.628375394e-05,-8.237488612e-05,6.125339791e-04,-1.817462369e-04,4.307877422e-04,-8.557603146e-05,-1.081231400e-04,-1.936991715e-04,-1.193015142e-04,-2.006765898e-05,-1.393691732e-04,2.340364487e-04,-4.268367075e-04,-1.928002589e-04,2.236824780e-05,-2.222741728e-04,-1.999059250e-04,-7.098090544e-04,-2.346518602e-05,-7.332742404e-04,-6.735640600e-04,-7.882474038e-05,-7.523888004e-04,2.285723481e-04,-8.393966030e-05,1.446326878e-04,-4.754292391e-04,1.782172806e-04,-2.972119585e-04,-1.155625894e-03,-1.907218509e-04,-1.346347745e-03,-5.435355178e-04,-2.146789437e-04,-7.582144615e-04,-1.424621459e-03,2.255934924e-04,-1.199027967e-03,-4.368931794e-04,9.570240261e-06,-4.273229391e-04,-1.319266732e-03,-1.799256801e-04,-1.499192412e-03,-2.092742231e-03,-1.829056584e-04,-2.275647889e-03,-4.857779852e-04,-5.014251075e-05,-5.359204960e-04,-1.627755245e-03,3.272932420e-04,-1.300462003e-03,4.697238690e-04,-4.081708346e-05,4.289067855e-04,-2.942483811e-04,9.363772744e-05,-2.006106536e-04,2.105702543e-04,-4.845023392e-04,-2.739320850e-04,-6.134640981e-05,1.712195415e-05,-4.422445567e-05,2.614169318e-04,2.001807128e-04,4.615976446e-04,-2.959238237e-04,-4.029959786e-04,-6.989198023e-04,-2.416971498e-04,-8.200874452e-05,-3.237058943e-04,-1.361536668e-03,1.109211360e-04,-1.250615532e-03,-7.183388880e-04,-1.003449196e-04,-8.186838076e-04,-1.106788473e-03,7.631525850e-05,-1.030473215e-03,4.353381949e-04,-6.277090682e-05,3.725672881e-04,-1.172852462e-03,-5.469714463e-05,-1.227549607e-03,1.452638783e-04,-6.151934181e-05,8.374453653e-05,-2.460302902e-03,1.671990018e-03,-7.883128842e-04,-9.956367725e-04,2.453821543e-04,-7.502546181e-04,-8.452521871e-04,7.531292819e-04,-9.212290525e-05,-2.072879828e-04,-4.123353070e-04,-6.196232898e-04
-9.9,1.083404502e-03,-1.721603286e-04,9.112441738e-04,-1.216166113e-04,5.069308428e-05,-7.092352706e-05,6.014211964e-04,-1.798103544e-04,4.216108420e-04,-8.558727054e-05,-1.063190151e-04,-1.919062856e-04,-1.196430700e-04,-1.957426877e-05,-1.392173388e-04,2.601550114e-04,-4.278752935e-04,-1.677202821e-04,3.273774286e-05,-2.144813747e-04,-1.817436318e-04,-6.999781886e-04,8.612647851e-06,-6.913655408e-04,-6.654624866e-04,-7.488824176e-05,-7.403507284e-04,2.376946696e-04,-8.023940130e-05,1.574552683e-04,-4.667779454e-04,1.744565999e-04,-2.923213455e-04,-1.146156862e-03,-1.858311107e-04,-1.331987972e-03,-5.382475263e-04,-2.136379081e-04,-7.518854344e-04,-1.399315760e-03,2.316015027e-04,-1.167714257e-03,-4.258063749e-04,9.041699612e-06,-4.167646753e-04,-1.286350253e-03,-1.845183400e-04,-1.470868593e-03,-2.050826810e-03,-1.681192973e-04,-2.218946108e-03,-4.726235305e-04,-4.722797355e-05,-5.198515040e-04,-1.541724839e-03,2.975155010e-04,-1.244209338e-03,4.679088360e-04,-2.746940862e-05,4.404394274e-04,-2.946770201e-04,9.101017260e-05,-2.036668475e-04,1.744247746e-04,-4.651141370e-04,-2.906893624e-04,-6.812354959e-05,1.647541077e-05,-5.164813882e-05,2.485790654e-04,1.924272655e-04,4.410063309e-04,-3.066648605e-04,-3.621240011e-04,-6.687888616e-04,-2.416692594e-04,-7.859540372e-05,-3.202646631e-04,-1.339968431e-03,1.129868006e-04,-1.226981630e-03,-7.192973118e-04,-8.311214257e-05,-8.024094544e-04,-1.069587747e-03,7.301835995e-05,-9.965693869e-04,4.543032267e-04,-6.914635813e-05,3.851568686e-04,-1.141908464e-03,-4.701445497e-05,-1.188922919e-03,1.690211481e-04,-4.161689236e-05,1.274042557e-04,-2.363243563e-03,1.641895846e-03,-7.213477163e-04,-9.732581434e-04,2.504785875e-04,-7.227795559e-04,-8.671569259e-04,8.061438813e-04,-6.101304466e-05,-2.065591544e-04,-3.858865126e-04,-5.924456670e-04
-9.8,1.063830738e-03,-1.710888428e-04,8.927418954e-04,-1.038764613e-04,4.435466816e-05,-5.952179314e-05,5.902773200e-04,-1.777231851e-04,4.125541349e-04,-8.502555613e-05,-1.046215096e-04,-1.896470657e-04,-1.193521200e-04,-1.914159330e-05,-1.384937133e-04,2.852276475e-04,-4.279144735e-04,-1.426868260e-04,4.310247451e-05,-2.063128918e-04,-1.632104173e-04,-6.910068725e-04,4.142848450e-05,-6.495783879e-04,-6.568359880e-04,-7.083582628e-05,-7.276718142e-04,2.469373628e-04,-7.633146543e-05,1.706058974e-04,-4.575267887e-04,1.702859744e-04,-2.872408143e-04,-1.136066478e-03,-1.810232828e-04,-1.317089761e-03,-5.314277306e-04,-2.134627311e-04,-7.448904617e-04,-1.371809212e-03,2.362043792e-04,-1.135604833e-03,-4.148630681e-04,8.507968886e-06,-4.063550992e-04,-1.252364322e-03,-1.891314618e-04,-1.441495784e-03,-2.010036504e-03,-1.536411148e-04,-2.163677619e-03,-4.580799911e-04,-4.523203847e-05,-5.033120295e-04,-1.453502493e-03,2.664680560e-04,-1.187034437e-03,4.661067123e-04,-1.482895801e-05,4.512777543e-04,-2.944822659e-04,8.799804908e-05,-2.064842168e-04,1.324614701e-04,-4.358520204e-04,-3.033905503e-04,-7.476402262e-05,1.561478994e-05,-5.914923267e-05,2.354219665e-04,1.847481996e-04,4.201701661e-04,-3.161882157e-04,-3.204827453e-04,-6.366709610e-04,-2.409474585e-04,-7.512073213e-05,-3.160681906e-04,-1.317954909e-03,1.143075329e-04,-1.203647376e-03,-7.199026954e-04,-6.535817935e-05,-7.852608747e-04,-1.031973872e-03,6.940160527e-05,-9.625722666e-04,4.730472102e-04,-7.552543912e-05,3.975217711e-04,-1.109826586e-03,-3.996169192e-05,-1.149788278e-03,1.938824762e-04,-2.288165355e-05,1.710008227e-04,-2.261774272e-03,1.608408982e-03,-6.533652903e-04,-9.498360023e-04,2.560070581e-04,-6.938289442e-04,-8.844300875e-04,8.529100391e-04,-3.152004840e-05,-2.097596505e-04,-3.560422016e-04,-5.658018521e-04
-9.7,1.044266870e-03,-1.698755115e-04,8.743913588e-04,-8.546989494e-05,3.732986786e-05,-4.814002707e-05,5.790804474e-04,-1.754772688e-04,4.036031786e-04,-8.392384886e-05,-1.030263026e-04,-1.869501514e-04,-1.184735691e-04,-1.877736432e-05,-1.372509334e-04,3.092116862e-04,-4.269042507e-04,-1.176925645e-04,5.345513917e-05,-1.978116314e-04,-1.443564922e-04,-6.824667531e-04,7.442585149e-05,-6.080409016e-04,-6.477014642e-04,-6.668354657e-05,-7.143850108e-04,2.563346039e-04,-7.225173747e-05,1.840828664e-04,-4.477244821e-04,1.657140736e-04,-2.820104085e-04,-1.125408102e-03,-1.762660799e-04,-1.301674182e-03,-5.230532097e-04,-2.141456814e-04,-7.371988911e-04,-1.342192578e-03,2.394076810e-04,-1.102784897e-03,-4.040492569e-04,7.934189844e-06,-3.961150671e-04,-1.217500496e-03,-1.935866117e-04,-1.411087108e-03,-1.970430234e-03,-1.393439222e-04,-2.109774156e-03,-4.421880175e-04,-4.413687331e-05,-4.863248908e-04,-1.363528592e-03,2.343776341e-04,-1.129150958e-03,4.644113811e-04,-2.962227742e-06,4.614491534e-04,-2.937031927e-04,8.462218765e-05,-2.090810051e-04,8.475059108e-05,-3.964941891e-04,-3.117435980e-04,-8.124667061e-05,1.454553416e-05,-6.670113645e-05,2.218727000e-04,1.772858509e-04,3.991585510e-04,-3.244238682e-04,-2.784610177e-04,-6.028848859e-04,-2.395355845e-04,-7.159629966e-05,-3.111318841e-04,-1.295322576e-03,1.147428698e-04,-1.180579707e-03,-7.199720366e-04,-4.722934458e-05,-7.672013812e-04,-9.940396021e-04,6.551532494e-05,-9.285242772e-04,4.914555449e-04,-8.181213326e-05,4.096434116e-04,-1.076695857e-03,-3.351075353e-05,-1.110206611e-03,2.197542254e-04,-5.380629810e-06,2.143735956e-04,-2.156157782e-03,1.571717068e-03,-5.844407144e-04,-9.253665027e-04,2.620080172e-04,-6.633584855e-04,-8.970740649e-04,8.932449717e-04,-3.829093186e-06,-2.168622246e-04,-3.228089957e-04,-5.396712203e-04
-9.6,1.024712707e-03,-1.685204352e-04,8.561922715e-04,-6.644281952e-05,2.968833122e-05,-3.675448829e-05,5.678021600e-04,-1.730663172e-04,3.947358429e-04,-8.232453852e-05,-1.015273968e-04,-1.838519353e-04,-1.170619425e-04,-1.848902077e-05,-1.355509632e-04,3.320706454e-04,-4.248063912e-04,-9.273574575e-05,6.378261493e-05,-1.890244633e-04,-1.252418484e-04,-6.739138447e-04,1.070385936e-04,-5.668752511e-04,-6.380830318e-04,-6.244855765e-05,-7.005315895e-04,2.659125321e-04,-6.803907010e-05,1.978734620e-04,-4.374262650e-04,1.607532266e-04,-2.766730384e-04,-1.114254641e-03,-1.715179189e-04,-1.285772560e-03,-5.131187496e-04,-2.156719971e-04,-7.287907467e-04,-1.310587771e-03,2.412315578e-04,-1.069356213e-03,-3.933570091e-04,7.285396252e-06,-3.860716129e-04,-1.181966882e-03,-1.977043396e-04,-1.379671221e-03,-1.932091137e-03,-1.250735749e-04,-2.057164711e-03,-4.250263483e-04,-4.389150563e-05,-4.689178540e-04,-1.272272055e-03,2.014969543e-04,-1.070775101e-03,4.628999349e-04,8.083461507e-06,4.709833964e-04,-2.923861371e-04,8.090703664e-05,-2.114791004e-04,3.151611997e-05,-3.470214019e-04,-3.155052819e-04,-8.755413385e-05,1.327563502e-05,-7.427849883e-05,2.078705748e-04,1.701730244e-04,3.780435992e-04,-3.313224224e-04,-2.364778594e-04,-5.678002819e-04,-2.374454525e-04,-6.803673906e-05,-3.054821916e-04,-1.271901126e-03,1.141600639e-04,-1.157741062e-03,-7.192945722e-04,-2.891758331e-05,-7.482121556e-04,-9.558947715e-04,6.142663021e-05,-8.944681413e-04,5.093998074e-04,-8.791772484e-05,4.214820826e-04,-1.042612805e-03,-2.763315630e-05,-1.070245961e-03,2.465049744e-04,1.083130549e-05,2.573362799e-04,-2.046794187e-03,1.532107311e-03,-5.146868755e-04,-8.998723500e-04,2.685030247e-04,-6.313693253e-04,-9.051830555e-04,9.270996267e-04,2.191657121e-05,-2.277482596e-04,-2.862876707e-04,-5.140359303e-04
-9.5,1.005162508e-03,-1.670261510e-04,8.381363568e-04,-4.685591442e-05,2.150732200e-05,-2.534859243e-05,5.564083662e-04,-1.704852792e-04,3.859230869e-04,-8.027895705e-05,-1.001170465e-04,-1.803960035e-04,-1.151802831e-04,-1.828334908e-05,-1.334636322e-04,3.537720133e-04,-4.215909835e-04,-6.781897015e-05,7.406641722e-05,-1.800012072e-04,-1.059347900e-04,-6.649041684e-04,1.387102288e-04,-5.261939396e-04,-6.280106707e-04,-5.814889113e-05,-6.861595619e-04,2.756890482e-04,-6.373456874e-05,2.119544794e-04,-4.266928072e-04,1.554194886e-04,-2.712733186e-04,-1.102696891e-03,-1.667312541e-04,-1.269428145e-03,-5.016374297e-04,-2.180214047e-04,-7.196588345e-04,-1.277144354e-03,2.417061027e-04,-1.035438251e-03,-3.827844258e-04,6.528247077e-06,-3.762561788e-04,-1.145984008e-03,-2.013080363e-04,-1.347292044e-03,-1.895119732e-03,-1.106559171e-04,-2.005775649e-03,-4.067083157e-04,-4.441491245e-05,-4.511232282e-04,-1.180228111e-03,1.681031350e-04,-1.012124976e-03,4.616330804e-04,1.827744578e-05,4.799105262e-04,-2.905835283e-04,7.688044126e-05,-2.137030871e-04,-2.685878541e-05,-2.876348585e-04,-3.144936439e-04,-9.367197339e-05,1.181563640e-05,-8.185633700e-05,1.933731226e-04,1.635268353e-04,3.568999579e-04,-3.368559824e-04,-1.949728736e-04,-5.318288560e-04,-2.346952158e-04,-6.445900782e-05,-2.991542236e-04,-1.247525226e-03,1.124377488e-04,-1.135087477e-03,-7.176368757e-04,-1.065610976e-05,-7.282929855e-04,-9.176640817e-04,5.721796663e-05,-8.604461151e-04,5.267387921e-04,-9.375905726e-05,4.329797348e-04,-1.007677631e-03,-2.230055368e-05,-1.029978185e-03,2.739684118e-04,2.571262447e-05,2.996810363e-04,-1.934197370e-03,1.489954024e-03,-4.442433458e-04,-8.733997328e-04,2.754956567e-04,-5.979040761e-04,-9.089322568e-04,9.545491618e-04,4.561690502e-05,-2.421980636e-04,-2.466862471e-04,-4.888843106e-04
-9.4,9.856059908e-04,-1.653974266e-04,8.202085642e-04,-2.678332454e-05,1.287096030e-05,-1.391236424e-05,5.448615703e-04,-1.677304364e-04,3.771311339e-04,-7.784553584e-05,-9.878578660e-05,-1.766313224e-04,-1.128972030e-04,-1.816612146e-05,-1.310633245e-04,3.742862467e-04,-4.172326582e-04,-4.294641155e-05,8.428504571e-05,-1.707941191e-04,-8.650907341e-05,-6.550066068e-04,1.689103095e-04,-4.860962973e-04,-6.175174102e-04,-5.380334410e-05,-6.713207542e-04,2.856750412e-04,-5.938079392e-05,2.262942473e-04,-4.155878951e-04,1.497325137e-04,-2.658553814e-04,-1.090837307e-03,-1.618560914e-04,-1.252693398e-03,-4.886384445e-04,-2.211701392e-04,-7.098085837e-04,-1.242034091e-03,2.408680911e-04,-1.001166000e-03,-3.723339697e-04,5.632649752e-06,-3.667013200e-04,-1.109778932e-03,-2.042273730e-04,-1.314006305e-03,-1.859618860e-03,-9.590862907e-05,-1.955527489e-03,-3.873753551e-04,-4.560028011e-05,-4.329756352e-04,-1.087912807e-03,1.344940828e-04,-9.534187246e-04,4.606565626e-04,2.760305098e-05,4.882596135e-04,-2.883516090e-04,7.257323883e-05,-2.157783701e-04,-8.983876990e-05,-2.187571852e-04,-3.085959551e-04,-9.958675339e-05,1.017850665e-05,-8.940824674e-05,1.783617656e-04,1.574436654e-04,3.358054310e-04,-3.410135153e-04,-1.543977260e-04,-4.954112413e-04,-2.313059595e-04,-6.088167232e-05,-2.921876318e-04,-1.222038075e-03,1.094721876e-04,-1.112565888e-03,-7.147456970e-04,7.286312031e-06,-7.074593849e-04,-8.794819547e-04,5.298408659e-05,-8.264978681e-04,5.433207148e-04,-9.925589197e-05,4.440648229e-04,-9.719893393e-04,-1.748525674e-05,-9.894745961e-04,3.019482905e-04,3.923507172e-05,3.411833622e-04,-1.818958148e-03,1.445697485e-03,-3.732606627e-04,-8.460131380e-04,2.829731917e-04,-5.630399463e-04,-9.085608026e-04,9.757774304e-04,6.721662783e-05,-2.598803652e-04,-2.043321330e-04,-4.642124983e-04
-9.3,9.660301592e-04,-1.636409268e-04,8.023892324e-04,-6.310166657e-06,3.869497002e-06,-2.440669654e-06,5.331240326e-04,-1.647995493e-04,3.683244833e-04,-7.508683309e-05,-9.752261576e-05,-1.726094488e-04,-1.102828339e-04,-1.814182410e-05,-1.284246580e-04,3.935874982e-04,-4.117080538e-04,-1.812055558e-05,9.441739087e-05,-1.614578495e-04,-6.704045859e-05,-6.438124603e-04,1.971466860e-04,-4.466657743e-04,-6.066359703e-04,-4.943148101e-05,-6.560674513e-04,2.958763824e-04,-5.502094579e-05,2.408554366e-04,-4.041754810e-04,1.437152280e-04,-2.604602530e-04,-1.078780188e-03,-1.568435805e-04,-1.235623768e-03,-4.741634809e-04,-2.250928063e-04,-6.992562872e-04,-1.205444324e-03,2.387586957e-04,-9.666856282e-04,-3.620101825e-04,4.572977077e-06,-3.574372054e-04,-1.073578256e-03,-2.063013637e-04,-1.279879620e-03,-1.825670208e-03,-8.065805096e-05,-1.906328259e-03,-3.671889377e-04,-4.731972723e-05,-4.145086650e-04,-9.958536561e-04,1.009829229e-04,-8.948707331e-04,4.600031355e-04,3.605502998e-05,4.960581655e-04,-2.857475782e-04,6.801882888e-05,-2.177287493e-04,-1.567535168e-04,-1.410195554e-04,-2.977730723e-04,-1.052838862e-04,8.379395375e-06,-9.690449086e-05,1.628455038e-04,1.519961028e-04,3.148416066e-04,-3.437924065e-04,-1.152095917e-04,-4.590019982e-04,-2.272981087e-04,-5.732397935e-05,-2.846220881e-04,-1.195296660e-03,1.051852744e-04,-1.090111385e-03,-7.103510938e-04,2.461328404e-05,-6.857378097e-04,-8.414856429e-04,4.882799648e-05,-7.926576464e-04,5.589862918e-04,-1.043285903e-04,4.546577014e-04,-9.356414832e-04,-1.315978215e-05,-9.488012654e-04,3.302246428e-04,5.138219489e-05,3.816068376e-04,-1.701701652e-03,1.399816523e-03,-3.018851291e-04,-8.177903172e-04,2.909109848e-04,-5.268793323e-04,-9.043509736e-04,9.910580376e-04,8.670706406e-05,-2.803461119e-04,-1.596795921e-04,-4.400257040e-04
-9.2,9.464212111e-04,-1.617648380e-04,7.846563731e-04,1.447009087e-05,-5.401483049e-06,9.068607817e-06,5.211608580e-04,-1.616920488e-04,3.594688092e-04,-7.206621508e-05,-9.631531201e-05,-1.683815271e-04,-1.074049544e-04,-1.821354633e-05,-1.256185007e-04,4.116553135e-04,-4.049952206e-04,6.660092916e-06,1.044457771e-04,-1.520494840e-04,-4.760370687e-05,-6.309421027e-04,2.229735871e-04,-4.079685155e-04,-5.953960162e-04,-4.505364369e-05,-6.404496599e-04,3.062956964e-04,-5.069809355e-05,2.555976029e-04,-3.925169862e-04,1.373934126e-04,-2.551235736e-04,-1.066620603e-03,-1.516495690e-04,-1.218270172e-03,-4.582638799e-04,-2.297631487e-04,-6.880270286e-04,-1.167571819e-03,2.354220868e-04,-9.321497319e-04,-3.518182029e-04,3.329058721e-06,-3.484891441e-04,-1.037601082e-03,-2.073811802e-04,-1.244982262e-03,-1.793305511e-03,-6.476021374e-05,-1.858065725e-03,-3.463222872e-04,-4.942964540e-05,-3.957519326e-04,-9.045769369e-04,6.789069334e-05,-8.366862436e-04,4.596945142e-04,4.363709705e-05,5.033316112e-04,-2.828269041e-04,6.325281955e-05,-2.195740845e-04,-2.268186023e-04,-5.524428132e-05,-2.820628836e-04,-1.107460715e-04,6.435289873e-06,-1.043107816e-04,1.468616561e-04,1.472322907e-04,2.940939467e-04,-3.451893170e-04,-7.786598684e-05,-4.230553039e-04,-2.226894743e-04,-5.380475307e-05,-2.764942273e-04,-1.167177532e-03,9.953158916e-05,-1.067645943e-03,-7.041724374e-04,4.101094350e-05,-6.631614939e-04,-8.038087114e-04,4.485680367e-05,-7.589519077e-04,5.735713871e-04,-1.088962778e-04,4.646751093e-04,-8.987197429e-04,-9.294965722e-06,-9.080147087e-04,3.585606468e-04,6.214660343e-05,4.207072503e-04,-1.583044495e-03,1.352796180e-03,-2.302483146e-04,-7.888186136e-04,2.992790519e-04,-4.895395617e-04,-8.966059613e-04,1.000734286e-03,1.041283242e-04,-3.030315855e-04,-1.133082094e-04,-4.163397949e-04
-9.1,9.267658101e-04,-1.597785081e-04,7.669873020e-04,3.545776587e-05,-1.484234063e-05,2.061542524e-05,5.089422172e-04,-1.584092139e-04,3.505330033e-04,-6.884509865e-05,-9.515074081e-05,-1.639958395e-04,-1.043263154e-04,-1.838299832e-05,-1.227093137e-04,4.284755858e-04,-3.970741924e-04,3.140139336e-05,1.143576665e-04,-1.426283594e-04,-2.827069291e-05,-6.160496176e-04,2.459958188e-04,-3.700537988e-04,-5.838227392e-04,-4.069087570e-05,-6.245136149e-04,3.169332616e-04,-4.645454948e-05,2.704787121e-04,-3.806695207e-04,1.307952981e-04,-2.498742226e-04,-1.054434242e-03,-1.462382649e-04,-1.200672507e-03,-4.410002357e-04,-2.351531290e-04,-6.761533646e-04,-1.128618341e-03,2.309049059e-04,-8.977134355e-04,-3.417640254e-04,1.887386892e-06,-3.398766385e-04,-1.002052654e-03,-2.073329961e-04,-1.209385650e-03,-1.762479847e-03,-4.812179635e-05,-1.810601643e-03,-3.249527426e-04,-5.177690390e-05,-3.767296465e-04,-8.145939183e-04,3.553821940e-05,-7.790556989e-04,4.597423979e-04,5.035985854e-05,5.101022564e-04,-2.796413154e-04,5.831266732e-05,-2.213286481e-04,-2.991544444e-04,3.757054230e-05,-2.615839021e-04,-1.159527720e-04,4.364603194e-06,-1.115881688e-04,1.304735787e-04,1.431775408e-04,2.736511195e-04,-3.451932387e-04,-4.281971959e-05,-3.880129583e-04,-2.174956408e-04,-5.034147819e-05,-2.678371190e-04,-1.137581537e-03,9.250126948e-05,-1.045080267e-03,-6.959284325e-04,5.615986639e-05,-6.397685661e-04,-7.665765917e-04,4.117821555e-05,-7.253983761e-04,5.869084640e-04,-1.128755777e-04,4.740328862e-04,-8.613012032e-04,-5.857418390e-06,-8.671586215e-04,3.867103667e-04,7.152612348e-05,4.582364901e-04,-1.463556121e-03,1.305092957e-03,-1.584631636e-04,-7.591921755e-04,3.080485937e-04,-4.511435818e-04,-8.856277085e-04,1.005199105e-03,1.195713962e-04,-3.272724370e-04,-6.590961842e-05,-3.931820554e-04
-9,9.070513455e-04,-1.576920815e-04,7.493592640e-04,5.654860690e-05,-2.435150566e-05,3.219710124e-05,4.964443459e-04,-1.549542587e-04,3.414900872e-04,-6.548130558e-05,-9.401502332e-05,-1.594963289e-04,-1.011035664e-04,-1.865055236e-05,-1.197541188e-04,4.440393052e-04,-3.879272671e-04,5.611203802e-05,1.241458434e-04,-1.332556638e-04,-9.109820423e-06,-5.988260347e-04,2.658696790e-04,-3.329563557e-04,-5.719368424e-04,-3.636475542e-05,-6.083015978e-04,3.277868911e-04,-4.233145034e-05,2.854554407e-04,-3.686852093e-04,1.239511821e-04,-2.447340272e-04,-1.042269894e-03,-1.405858619e-04,-1.182855756e-03,-4.224447126e-04,-2.412306219e-04,-6.636753345e-04,-1.088788055e-03,2.252562762e-04,-8.635317785e-04,-3.318564686e-04,2.426624094e-07,-3.316138062e-04,-9.671190150e-04,-2.060413097e-04,-1.173160325e-03,-1.733055099e-03,-3.071513971e-05,-1.763770238e-03,-3.032556496e-04,-5.420534520e-05,-3.574609948e-04,-7.263892354e-04,4.238789153e-06,-7.221504462e-04,4.601479827e-04,5.623967635e-05,5.163876590e-04,-2.762376774e-04,5.323721045e-05,-2.230004670e-04,-3.728019715e-04,1.362639523e-04,-2.365380192e-04,-1.208807228e-04,2.186761301e-06,-1.186939615e-04,1.137658380e-04,1.398375543e-04,2.536033923e-04,-3.437824909e-04,-1.051284667e-05,-3.542953376e-04,-2.117321330e-04,-4.694994772e-05,-2.586820807e-04,-1.106436745e-03,8.411781664e-05,-1.022318928e-03,-6.853505830e-04,6.974768774e-05,-6.156028953e-04,-7.299044076e-04,3.789760228e-05,-6.920068053e-04,5.988273704e-04,-1.161805214e-04,4.826468490e-04,-8.234544403e-04,-2.807664797e-06,-8.262621051e-04,4.144272301e-04,7.951925532e-05,4.939464854e-04,-1.343728807e-03,1.257102234e-03,-8.662657330e-05,-7.290087666e-04,3.171963967e-04,-4.118123699e-04,-8.716970451e-04,1.004875224e-03,1.331781789e-04,-3.523265321e-04,-1.826297956e-05,-3.705895116e-04
-8.9,8.872652464e-04,-1.555161225e-04,7.317491239e-04,7.763483234e-05,-3.382812278e-05,4.380670956e-05,4.836493765e-04,-1.513323050e-04,3.323170715e-04,-6.202855437e-05,-9.289357025e-05,-1.549221246e-04,-9.778762915e-05,-1.901524306e-05,-1.168028722e-04,4.583384638e-04,-3.775377383e-04,8.080072549e-05,1.338073934e-04,-1.239939436e-04,9.813449834e-06,-5.790014942e-04,2.823018518e-04,-2.966996424e-04,-5.597555546e-04,-3.209717140e-05,-5.918527260e-04,3.388509896e-04,-3.836852455e-05,3.004824651e-04,-3.566114332e-04,1.168930423e-04,-2.397183908e-04,-1.030145781e-03,-1.346832442e-04,-1.164829025e-03,-4.026854049e-04,-2.479564681e-04,-6.506418731e-04,-1.048286246e-03,2.185281216e-04,-8.297581248e-04,-3.221100118e-04,-1.600605169e-06,-3.237106170e-04,-9.329627180e-04,-2.034130575e-04,-1.136375775e-03,-1.704797185e-03,-1.258450389e-05,-1.717381688e-03,-2.814006381e-04,-5.656153100e-05,-3.379621691e-04,-6.404133857e-04,-2.570705280e-05,-6.661204385e-04,4.609003065e-04,6.129872916e-05,5.221990356e-04,-2.726577657e-04,4.806616951e-05,-2.245915962e-04,-4.467364818e-04,2.395245584e-04,-2.072119234e-04,-1.255051400e-04,-7.814104548e-08,-1.255832810e-04,9.683780083e-05,1.372022215e-04,2.340400223e-04,-3.409259812e-04,1.863093004e-05,-3.222950512e-04,-2.054174962e-04,-4.364446660e-05,-2.490619628e-04,-1.073700370e-03,7.443343535e-05,-9.992669350e-04,-6.721984882e-04,8.148122251e-05,-5.907172656e-04,-6.938960263e-04,3.511479512e-05,-6.587812312e-04,6.091567497e-04,-1.187244619e-04,4.904322878e-04,-7.852398243e-04,-9.985686584e-08,-7.853396812e-04,4.414718739e-04,8.612077266e-05,5.275926466e-04,-1.223957594e-03,1.209132143e-03,-1.482545071e-05,-6.983645027e-04,3.267057454e-04,-3.716587573e-04,-8.550595250e-04,1.000196334e-03,1.451368089e-04,-3.774022318e-04,2.879741242e-05,-3.486048194e-04
-8.8,8.673937709e-04,-1.532612926e-04,7.141324783e-04,9.860527543e-05,-4.317444177e-05,5.543083366e-05,4.705443897e-04,-1.475502871e-04,3.229941026e-04,-5.853673509e-05,-9.177107506e-05,-1.503078102e-04,-9.442494120e-05,-1.947475095e-05,-1.138996921e-04,4.713594412e-04,-3.658867896e-04,1.054726516e-04,1.433419854e-04,-1.149064881e-04,2.843549727e-05,-5.563468220e-04,2.950477777e-04,-2.612990442e-04,-5.472940254e-04,-2.791003873e-05,-5.752040642e-04,3.501152168e-04,-3.460394736e-05,3.155112694e-04,-3.444915554e-04,1.096541686e-04,-2.348373867e-04,-1.018050124e-03,-1.285365284e-04,-1.146586653e-03,-3.818315656e-04,-2.552814615e-04,-6.371130271e-04,-1.007318989e-03,2.107762023e-04,-7.965427868e-04,-3.125473451e-04,-3.626816301e-06,-3.161741614e-04,-8.997194265e-04,-1.993822511e-04,-1.099101678e-03,-1.677385859e-03,6.156032895e-06,-1.671229826e-03,-2.595501751e-04,-5.869914209e-05,-3.182493172e-04,-5.570788979e-04,-5.401461360e-05,-6.110935115e-04,4.619743973e-04,6.556598787e-05,5.275403852e-04,-2.689387179e-04,4.283975969e-05,-2.260989582e-04,-5.198829784e-04,3.459058711e-04,-1.739771073e-04,-1.298010804e-04,-2.409602481e-06,-1.322106829e-04,7.979692369e-05,1.352491818e-04,2.150461055e-04,-3.365873902e-04,4.421510740e-05,-2.923722828e-04,-1.985765606e-04,-4.043825251e-05,-2.390148131e-04,-1.039361100e-03,6.352561033e-05,-9.758354894e-04,-6.562751029e-04,9.109724076e-05,-5.651778622e-04,-6.586431246e-04,3.291995929e-05,-6.257231653e-04,6.177271293e-04,-1.204243569e-04,4.973027724e-04,-7.467102263e-04,2.316891580e-06,-7.443933347e-04,4.676181217e-04,9.131847120e-05,5.589365929e-04,-1.104527987e-03,1.161386253e-03,5.685826666e-05,-6.673452822e-04,3.365627706e-04,-3.307825115e-04,-8.359192805e-04,9.915908818e-04,1.556716013e-04,-4.016899213e-04,7.441830201e-05,-3.272716193e-04
-8.7,8.474208849e-04,-1.509381560e-04,6.964827289e-04,1.193449844e-04,-5.229760699e-05,6.704737738e-05,4.571203458e-04,-1.436168494e-04,3.135034964e-04,-5.505241827e-05,-9.063154999e-05,-1.456839683e-04,-9.105869664e-05,-2.002541435e-05,-1.110841110e-04,4.830756484e-04,-3.529498392e-04,1.301258092e-04,1.527500775e-04,-1.060564230e-04,4.669365449e-05,-5.306750162e-04,3.039105298e-04,-2.267644864e-04,-5.345663047e-04,-2.382494118e-05,-5.583912459e-04,3.615633387e-04,-3.107411488e-05,3.304892239e-04,-3.323655493e-04,1.022688621e-04,-2.300966872e-04,-1.005944869e-03,-1.221649413e-04,-1.128109811e-03,-3.600178443e-04,-2.631438498e-04,-6.231616940e-04,-9.660931001e-04,2.020623550e-04,-7.640307451e-04,-3.032006454e-04,-5.808487922e-06,-3.090091333e-04,-8.674952138e-04,-1.939139965e-04,-1.061409210e-03,-1.650433442e-03,2.533141696e-05,-1.625102025e-03,-2.378590268e-04,-6.048203371e-05,-2.983410605e-04,-4.767585591e-04,-8.041698537e-05,-5.571755445e-04,4.633303527e-04,6.907823959e-05,5.324085923e-04,-2.651136007e-04,3.759837818e-05,-2.275152225e-04,-5.911369271e-04,4.538500515e-04,-1.372868756e-04,-1.337442898e-04,-4.786953235e-06,-1.385312431e-04,6.275295564e-05,1.339469578e-04,1.966999135e-04,-3.307299442e-04,6.587977698e-05,-2.648501672e-04,-1.912428288e-04,-3.734379781e-05,-2.285866266e-04,-1.003442261e-03,5.149649322e-05,-9.519457678e-04,-6.374399874e-04,9.837160218e-05,-5.390683852e-04,-6.242236506e-04,3.138883333e-05,-5.928348172e-04,6.243758241e-04,-1.212067013e-04,5.031691229e-04,-7.079124922e-04,4.496233730e-06,-7.034162584e-04,4.926575201e-04,9.509151402e-05,5.877490341e-04,-9.856110188e-04,1.113958284e-03,1.283472649e-04,-6.360155347e-04,3.467479175e-04,-2.892676172e-04,-8.144397890e-04,9.794695872e-04,1.650297981e-04,-4.243950070e-04,1.177637836e-04,-3.066312234e-04
-8.6,8.273278656e-04,-1.485571075e-04,6.787707580e-04,1.397354682e-04,-6.111108209e-05,7.862438612e-05,4.433716659e-04,-1.395422623e-04,3.038294036e-04,-5.161895622e-05,-8.945845326e-05,-1.410774095e-04,-8.772913737e-05,-2.066226172e-05,-1.083913991e-04,4.934423441e-04,-3.386944916e-04,1.547478525e-04,1.620317949e-04,-9.750544185e-05,6.452635308e-05,-5.018426709e-04,3.087407888e-04,-1.931018821e-04,-5.215851719e-04,-1.986274737e-05,-5.414479192e-04,3.731728755e-04,-2.781321949e-05,3.453596560e-04,-3.202699265e-04,9.477217527e-05,-2.254977512e-04,-9.937700771e-04,-1.155968069e-04,-1.109366884e-03,-3.374052005e-04,-2.714682136e-04,-6.088734141e-04,-9.248150617e-04,1.924574359e-04,-7.323576258e-04,-2.941111046e-04,-8.105868351e-06,-3.022169729e-04,-8.363643444e-04,-1.870065118e-04,-1.023370856e-03,-1.623506807e-03,4.471849420e-05,-1.578788312e-03,-2.164729489e-04,-6.178620485e-05,-2.782591538e-04,-3.997843656e-04,-1.046663773e-04,-5.044507429e-04,4.649142251e-04,7.188017353e-05,5.367943986e-04,-2.612113609e-04,3.238214601e-05,-2.288292148e-04,-6.593922129e-04,5.617238551e-04,-9.766835783e-05,-1.373109790e-04,-7.189644856e-06,-1.445006238e-04,4.581406965e-05,1.332576629e-04,1.790717325e-04,-3.233200232e-04,8.331155610e-05,-2.400084671e-04,-1.834586003e-04,-3.437324076e-05,-2.178318410e-04,-9.660043542e-04,3.847382803e-05,-9.275305262e-04,-6.156182828e-04,1.031267013e-04,-5.124915815e-04,-5.906996751e-04,3.057843815e-05,-5.601212370e-04,6.289528548e-04,-1.210134145e-04,5.079394403e-04,-6.688891964e-04,6.492118658e-06,-6.623970778e-04,5.164041838e-04,9.740997185e-05,6.138141557e-04,-8.672682353e-04,1.066843450e-03,1.995752149e-04,-6.044065357e-04,3.572238017e-04,-2.471827340e-04,-7.907471255e-04,9.642155333e-04,1.734684078e-04,-4.447686153e-04,1.580479602e-04,-2.867206551e-04
-8.5,8.070940643e-04,-1.461283504e-04,6.609657138e-04,1.596566937e-04,-6.953600740e-05,9.012068632e-05,4.292969799e-04,-1.353383482e-04,2.939586317e-04,-4.827565061e-05,-8.823493141e-05,-1.365105820e-04,-8.447229559e-05,-2.137903575e-05,-1.058513313e-04,5.023959014e-04,-3.230815171e-04,1.793143842e-04,1.711871517e-04,-8.931236911e-05,8.187478263e-05,-4.697511883e-04,3.094385768e-04,-1.603126115e-04,-5.083605911e-04,-1.604331073e-05,-5.244039018e-04,3.849159175e-04,-2.485271109e-05,3.600632064e-04,-3.082366570e-04,8.719958557e-05,-2.210370715e-04,-9.814466657e-04,-1.088648549e-04,-1.090311521e-03,-3.141771395e-04,-2.801662722e-04,-5.943434117e-04,-8.836874990e-04,1.820435380e-04,-7.016439610e-04,-2.853268746e-04,-1.046683564e-05,-2.957937102e-04,-8.063670741e-04,-1.786907683e-04,-9.850578424e-04,-1.596147276e-03,6.406029690e-05,-1.532086979e-03,-1.955255572e-04,-6.250118193e-05,-2.580267391e-04,-3.264462305e-04,-1.265348684e-04,-4.529810989e-04,4.666608695e-04,7.402310425e-05,5.406839737e-04,-2.572557638e-04,2.723020299e-05,-2.300255608e-04,-7.235744346e-04,6.678646604e-04,-5.570977412e-05,-1.404764817e-04,-9.597616572e-06,-1.500740982e-04,2.908551068e-05,1.331388565e-04,1.622243672e-04,-3.143289730e-04,9.625389229e-05,-2.180750807e-04,-1.752721474e-04,-3.153882128e-05,-2.068109686e-04,-9.271448004e-04,2.461094256e-05,-9.025338578e-04,-5.908038701e-04,1.052371881e-04,-4.855666820e-04,-5.581148506e-04,3.052418170e-05,-5.275906689e-04,6.313269370e-04,-1.198062745e-04,5.115206625e-04,-6.296796356e-04,8.356370262e-06,-6.213232653e-04,5.387010837e-04,9.823541801e-05,6.369365017e-04,-7.494678391e-04,1.019967900e-03,2.705000610e-04,-5.725064044e-04,3.679222655e-04,-2.045841389e-04,-7.649312268e-04,9.461747062e-04,1.812434794e-04,-4.621314923e-04,1.945607476e-04,-2.675707447e-04
-8.4,7.866987573e-04,-1.436618803e-04,6.430368770e-04,1.789908215e-04,-7.750251972e-05,1.014883017e-04,4.149008976e-04,-1.310184156e-04,2.838824821e-04,-4.505592410e-05,-8.694419636e-05,-1.320001205e-04,-8.131744750e-05,-2.216823539e-05,-1.034856829e-04,5.098575427e-04,-3.060686426e-04,2.037889001e-04,1.802176016e-04,-8.153182178e-05,9.868577978e-05,-4.343479347e-04,3.059571358e-04,-1.283907990e-04,-4.948973881e-04,-1.238531457e-05,-5.072827027e-04,3.967608991e-04,-2.222082638e-05,3.745400727e-04,-2.962913748e-04,7.958653667e-05,-2.167048381e-04,-9.688771572e-04,-1.020017436e-04,-1.070878901e-03,-2.905322345e-04,-2.891391467e-04,-5.796713812e-04,-8.429031690e-04,1.709144615e-04,-6.719887075e-04,-2.769001215e-04,-1.282712712e-05,-2.897272486e-04,-7.775072815e-04,-1.690285747e-04,-9.465358563e-04,-1.567887488e-03,8.308117151e-05,-1.484806316e-03,-1.751334415e-04,-6.253146590e-05,-2.376649074e-04,-2.569893828e-04,-1.458149984e-04,-4.028043812e-04,4.684982759e-04,7.556246578e-05,5.440607417e-04,-2.532636382e-04,2.217995087e-05,-2.310836874e-04,-7.826752204e-04,7.706297162e-04,-1.204550419e-05,-1.432134303e-04,-1.199170609e-05,-1.552051363e-04,1.267047826e-05,1.335438968e-04,1.462143750e-04,-3.037332198e-04,1.045162305e-04,-1.992169893e-04,-1.667328863e-04,-2.885345852e-05,-1.955863448e-04,-8.869941769e-04,1.008406404e-05,-8.769101128e-04,-5.630572611e-04,1.046338510e-04,-4.584234101e-04,-5.264917430e-04,3.123834773e-05,-4.952533953e-04,6.313911032e-04,-1.175697542e-04,5.138213490e-04,-5.903197018e-04,1.013627727e-05,-5.801834245e-04,5.594269339e-04,9.752327739e-05,6.569502113e-04,-6.321104746e-04,9.732326788e-04,3.411222042e-04,-5.402534827e-04,3.787344292e-04,-1.615190535e-04,-7.370447274e-04,9.256471508e-04,1.886024234e-04,-4.758895853e-04,2.266863825e-04,-2.492032027e-04
-8.3,7.661234580e-04,-1.411674988e-04,6.249559592e-04,1.976265028e-04,-8.495079584e-05,1.126757069e-04,4.001960104e-04,-1.265972122e-04,2.735987981e-04,-4.198503810e-05,-8.557004005e-05,-1.275550781e-04,-7.828437484e-05,-2.302124299e-05,-1.013056178e-04,5.157394901e-04,-2.876155924e-04,2.281238977e-04,1.891279329e-04,-7.421301430e-05,1.149149186e-04,-3.956274114e-04,2.983079949e-04,-9.731941649e-05,-4.811932457e-04,-8.906203624e-06,-4.900994493e-04,4.086745258e-04,-1.994226016e-05,3.887322656e-04,-2.844516448e-04,7.196790960e-05,-2.124837352e-04,-9.559459523e-04,-9.503655481e-05,-1.050982507e-03,-2.666755386e-04,-2.982800339e-04,-5.649555725e-04,-8.026381265e-04,1.591746960e-04,-6.434634304e-04,-2.688841168e-04,-1.511105647e-05,-2.839951732e-04,-7.497508124e-04,-1.581100329e-04,-9.078608454e-04,-1.538267808e-03,1.015031546e-04,-1.436764653e-03,-1.553908156e-04,-6.179825249e-05,-2.171890681e-04,-1.916094115e-04,-1.623216820e-04,-3.539310935e-04,4.703527416e-04,7.655433952e-05,5.469070811e-04,-2.492432154e-04,1.726650864e-05,-2.319767068e-04,-8.357828209e-04,8.684409801e-04,3.265815919e-05,-1.454903859e-04,-1.435406341e-05,-1.598444493e-04,-3.327980332e-06,1.344207639e-04,1.310927836e-04,-2.915137758e-04,1.079806337e-04,-1.835331421e-04,-1.578866433e-04,-2.633154368e-05,-1.842181870e-04,-8.457101808e-04,-4.913202682e-06,-8.506233835e-04,-5.325002548e-04,1.013051287e-04,-4.311951261e-04,-4.958295218e-04,3.270936323e-05,-4.631201586e-04,6.290675033e-04,-1.143126613e-04,5.147548420e-04,-5.508410813e-04,1.187218531e-05,-5.389688960e-04,5.785020617e-04,9.522665311e-05,6.737287148e-04,-5.150631620e-04,9.265657699e-04,4.115026079e-04,-5.075351870e-04,3.895072458e-04,-1.180279412e-04,-7.071026232e-04,9.028809705e-04,1.957783473e-04,-4.855434290e-04,2.539168235e-04,-2.316266055e-04
-8.2,7.453538679e-04,-1.386548768e-04,6.066989911e-04,2.154623863e-04,-9.183165938e-05,1.236307269e-04,3.852042189e-04,-1.220908795e-04,2.631133394e-04,-3.907820584e-05,-8.409740291e-05,-1.231756087e-04,-7.538165065e-05,-2.392854739e-05,-9.931019804e-05,5.199513686e-04,-2.676888837e-04,2.522624849e-04,1.979273394e-04,-6.739863285e-05,1.305287066e-04,-3.536323717e-04,2.865652998e-04,-6.706707193e-05,-4.672379233e-04,-5.622094086e-06,-4.728600173e-04,4.206229719e-04,-1.803793638e-05,4.025850356e-04,-2.727260613e-04,6.437754810e-05,-2.083485132e-04,-9.425210169e-04,-8.799273591e-05,-1.030513753e-03,-2.428112660e-04,-3.074765607e-04,-5.502878268e-04,-7.630462244e-04,1.469378348e-04,-6.161083895e-04,-2.613311674e-04,-1.723270643e-05,-2.785638738e-04,-7.230260427e-04,-1.460506412e-04,-8.690766839e-04,-1.506854404e-03,1.190630327e-04,-1.387791371e-03,-1.363655191e-04,-6.024106554e-05,-1.966065846e-04,-1.304451622e-04,-1.758969814e-04,-3.063421437e-04,4.721541605e-04,7.705135482e-05,5.492055153e-04,-2.451932422e-04,1.252240182e-05,-2.326708403e-04,-8.821055777e-04,9.598205149e-04,7.771493729e-05,-1.472715887e-04,-1.666853932e-05,-1.639401281e-04,-1.880563606e-05,1.357103484e-04,1.169047123e-04,-2.776571832e-04,1.066062093e-04,-1.710509739e-04,-1.487728921e-04,-2.398983432e-05,-1.727627264e-04,-8.034709186e-04,-2.017728374e-05,-8.236482023e-04,-4.993091408e-04,9.529539863e-05,-4.040137422e-04,-4.661028931e-04,3.490159789e-05,-4.312012952e-04,6.243103071e-04,-1.100684249e-04,5.142418822e-04,-5.112703527e-04,1.359548990e-05,-4.976748628e-04,5.958925394e-04,9.129927831e-05,6.871918177e-04,-3.982002308e-04,8.799734365e-04,4.817732057e-04,-4.741937471e-04,4.000475172e-04,-7.414622984e-05,-6.750855099e-04,8.780702094e-04,2.029846995e-04,-4.906944214e-04,2.758619301e-04,-2.148324914e-04
-8.1,7.243808698e-04,-1.361336107e-04,5.882472590e-04,2.324092084e-04,-9.810702700e-05,1.343021814e-04,3.699568549e-04,-1.175168389e-04,2.524400160e-04,-3.633979878e-05,-8.251282714e-05,-1.188526259e-04,-7.260662950e-05,-2.487998269e-05,-9.748661219e-05,5.224062264e-04,-2.462662725e-04,2.761399539e-04,2.066291919e-04,-6.112389166e-05,1.455053002e-04,-3.084551931e-04,2.708681501e-04,-3.758704298e-05,-4.530140120e-04,-2.547626781e-06,-4.555616388e-04,4.325718393e-04,-1.652482767e-05,4.160470116e-04,-2.611145512e-04,5.684790093e-05,-2.042666503e-04,-9.284582620e-04,-8.088720396e-05,-1.009345466e-03,-2.191381084e-04,-3.166124558e-04,-5.357505642e-04,-7.242561365e-04,1.343247893e-04,-5.899313472e-04,-2.542917356e-04,-1.909743843e-05,-2.733891741e-04,-6.972273311e-04,-1.329880371e-04,-8.302153683e-04,-1.473259075e-03,1.355285660e-04,-1.337730509e-03,-1.180974884e-04,-5.781903976e-05,-1.759165281e-04,-7.357196812e-05,-1.864173161e-04,-2.599892842e-04,4.738404333e-04,7.709858654e-05,5.509390199e-04,-2.411031483e-04,7.977304549e-06,-2.331258437e-04,-9.209874450e-04,1.043415665e-03,1.224282204e-04,-1.485180010e-04,-1.892100344e-05,-1.674390044e-04,-3.365729346e-05,1.373454733e-04,1.036881798e-04,-2.621596136e-04,1.004323913e-04,-1.617272223e-04,-1.394247952e-04,-2.184792430e-05,-1.612727195e-04,-7.604680493e-04,-3.550280308e-05,-7.959708524e-04,-4.637076905e-04,8.670015426e-05,-3.770075362e-04,-4.372633079e-04,3.775621529e-05,-3.995070926e-04,6.171058771e-04,-1.048937165e-04,5.122121606e-04,-4.716286172e-04,1.532804581e-05,-4.563005714e-04,6.116120301e-04,8.569566952e-05,6.973076997e-04,-2.814478797e-04,8.335808720e-04,5.521329923e-04,-4.400378507e-04,4.101311650e-04,-2.990668570e-05,-6.409464846e-04,8.513557455e-04,2.104092609e-04,-4.910494717e-04,2.922559780e-04,-1.987934937e-04
-8,7.032003394e-04,-1.336131649e-04,5.695871746e-04,2.483904484e-04,-1.037505263e-04,1.446399220e-04,3.544935158e-04,-1.128935398e-04,2.415999761e-04,-3.376393010e-05,-8.080466327e-05,-1.145685934e-04,-6.994717477e-05,-2.586489360e-05,-9.581206837e-05,5.230266637e-04,-2.233417416e-04,2.996849220e-04,2.152496770e-04,-5.541599019e-05,1.598336868e-04,-2.602397264e-04,2.514206507e-04,-8.819075652e-06,-4.384989977e-04,3.041881999e-07,-4.381948095e-04,4.444848714e-04,-1.541580882e-05,4.290690625e-04,-2.496098309e-04,4.940976274e-05,-2.002000682e-04,-9.136087025e-04,-7.373030915e-05,-9.873390116e-04,-1.958475422e-04,-3.255683378e-04,-5.214158799e-04,-6.863706915e-04,1.214613470e-04,-5.649093446e-04,-2.478144724e-04,-2.060382100e-05,-2.684182934e-04,-6.722205755e-04,-1.190786072e-04,-7.912991827e-04,-1.437159466e-03,1.507122290e-04,-1.286447237e-03,-1.005998065e-04,-5.451185540e-05,-1.551116619e-04,-2.099832471e-05,-1.938007902e-04,-2.147991149e-04,4.753599958e-04,7.673028699e-05,5.520902828e-04,-2.369542682e-04,3.657746031e-06,-2.332965221e-04,-9.519172367e-04,1.118017058e-03,1.660998208e-04,-1.491894216e-04,-2.109951976e-05,-1.702889413e-04,-4.777841385e-05,1.392511242e-04,9.147271034e-05,-2.450342909e-04,8.958125732e-05,-1.554530336e-04,-1.298718565e-04,-1.992779343e-05,-1.497996499e-04,-7.168998494e-04,-5.069047231e-05,-7.675903217e-04,-4.259611886e-04,7.565982743e-05,-3.503013612e-04,-4.092428064e-04,4.119372694e-05,-3.680490795e-04,6.074708334e-04,-9.886606019e-05,5.086047732e-04,-4.319323705e-04,1.708379302e-05,-4.148485775e-04,6.257199575e-04,7.836940730e-05,7.040893648e-04,-1.648252782e-04,7.876542078e-04,6.228289296e-04,-4.048577513e-04,4.195148251e-04,1.465707379e-05,-6.046201213e-04,8.228276945e-04,2.182075732e-04,-4.864236717e-04,3.029587372e-04,-1.834649345e-04
-7.9,6.818119221e-04,-1.311026379e-04,5.507092843e-04,2.633416045e-04,-1.087479913e-04,1.545936131e-04,3.388598807e-04,-1.082400619e-04,2.306198188e-04,-3.133625554e-05,-7.896304139e-05,-1.102992969e-04,-6.738466963e-05,-2.687221011e-05,-9.425687974e-05,5.217514208e-04,-1.989314807e-04,3.228199401e-04,2.238055992e-04,-5.029391479e-05,1.735116844e-04,-2.091829433e-04,2.284894737e-04,1.930653039e-05,-4.236680813e-04,2.922102541e-06,-4.207459788e-04,4.563218548e-04,-1.471953825e-05,4.416023166e-04,-2.381996727e-04,4.209209519e-05,-1.961075775e-04,-8.978268141e-04,-6.652723749e-05,-9.643540516e-04,-1.731242779e-04,-3.342217716e-04,-5.073460495e-04,-6.494676505e-04,1.084747845e-04,-5.409928660e-04,-2.419464470e-04,-2.164637724e-05,-2.635928243e-04,-6.478494750e-04,-1.044943273e-04,-7.523438023e-04,-1.398316824e-03,1.644814234e-04,-1.233835400e-03,-8.386202395e-05,-5.032004563e-05,-1.341820696e-04,2.733304064e-05,-1.980128395e-04,-1.706797989e-04,4.766721450e-04,7.596806562e-05,5.526402107e-04,-2.327219469e-04,-4.130965852e-07,-2.331350435e-04,-9.745335976e-04,1.182573428e-03,2.080398308e-04,-1.492472080e-04,-2.319433249e-05,-1.724415405e-04,-6.106720760e-05,1.413454061e-04,8.027819853e-05,-2.263206056e-04,7.425816445e-05,-1.520624412e-04,-1.201442329e-04,-1.825241145e-05,-1.383966444e-04,-6.729649127e-04,-6.555350702e-05,-7.385184197e-04,-3.863722042e-04,6.235422179e-05,-3.240179824e-04,-3.819597218e-04,4.511814217e-05,-3.368415796e-04,5.954497378e-04,-9.208205064e-05,5.033676871e-04,-3.921959682e-04,1.887225735e-05,-3.733237109e-04,6.383149380e-04,6.927196572e-05,7.075869037e-04,-4.847282268e-05,7.425996083e-04,6.941267856e-04,-3.684421685e-04,4.279486049e-04,5.950643635e-05,-5.660316976e-04,7.925280628e-04,2.264963652e-04,-4.767400948e-04,3.079500805e-04,-1.687900143e-04
-7.8,6.602172632e-04,-1.286104289e-04,5.316068343e-04,2.772083353e-04,-1.130971266e-04,1.641112087e-04,3.231050364e-04,-1.035756292e-04,2.195294071e-04,-2.903648557e-05,-7.697972427e-05,-1.060162098e-04,-6.489753402e-05,-2.789046145e-05,-9.278799547e-05,5.185420890e-04,-1.730801708e-04,3.454619183e-04,2.323116719e-04,-4.576823906e-05,1.865434328e-04,-1.555351783e-04,2.023985888e-04,4.686341049e-05,-4.084970293e-04,5.296771867e-06,-4.032002574e-04,4.680364254e-04,-1.444034170e-05,4.535960837e-04,-2.268694429e-04,3.492195092e-05,-1.919474920e-04,-8.809778218e-04,-5.928144173e-05,-9.402592635e-04,-1.511471654e-04,-3.424469517e-04,-4.935941171e-04,-6.136011781e-04,9.548998933e-05,-5.181111888e-04,-2.367327555e-04,-2.211928593e-05,-2.588520415e-04,-6.239414475e-04,-8.942002758e-05,-7.133614751e-04,-1.356587046e-03,1.767643581e-04,-1.179822688e-03,-6.785521248e-05,-4.526415592e-05,-1.131193684e-04,7.154059554e-05,-1.990697085e-04,-1.275291129e-04,4.777456992e-04,7.482064808e-05,5.525663473e-04,-2.283781237e-04,-4.215403276e-06,-2.325935270e-04,-9.886255168e-04,1.236204573e-03,2.475790564e-04,-1.486569692e-04,-2.519769528e-05,-1.738546644e-04,-7.342626751e-05,1.435405778e-04,7.011431029e-05,-2.060919815e-04,5.474956891e-05,-1.513424126e-04,-1.102773123e-04,-1.684376008e-05,-1.271210724e-04,-6.288573399e-04,-7.992164033e-05,-7.087789803e-04,-3.452773019e-04,4.699819466e-05,-2.982791072e-04,-3.553249047e-04,4.942190764e-05,-3.059029971e-04,5.811138022e-04,-8.465728250e-05,4.964565197e-04,-3.524350685e-04,2.070268520e-05,-3.317323833e-04,6.495238567e-04,5.835384741e-05,7.078777041e-04,6.733796577e-05,6.989404064e-04,7.662783722e-04,-3.305961936e-04,4.351901562e-04,1.045939626e-04,-5.251053123e-04,7.604534525e-04,2.353481403e-04,-4.620259714e-04,3.073186155e-04,-1.547073559e-04
-7.7,6.384184216e-04,-1.261439705e-04,5.122744511e-04,2.899443561e-04,-1.168060925e-04,1.731382637e-04,3.072790325e-04,-9.891909422e-05,2.083599383e-04,-2.684091539e-05,-7.484794188e-05,-1.016888573e-04,-6.246428869e-05,-2.890773720e-05,-9.137202589e-05,5.133892213e-04,-1.458662549e-04,3.675229664e-04,2.407779410e-04,-4.184075492e-05,1.989371861e-04,-9.959783622e-05,1.735208405e-04,7.392300430e-05,-3.929642471e-04,7.420935405e-06,-3.855433117e-04,4.795746076e-04,-1.457811179e-05,4.649964958e-04,-2.156042649e-04,2.792450577e-05,-1.876797592e-04,-8.629425785e-04,-5.199943174e-05,-9.149420102e-04,-1.300890349e-04,-3.501142482e-04,-4.802032831e-04,-5.788032464e-04,8.262552261e-05,-4.961777238e-04,-2.322147758e-04,-2.192063691e-05,-2.541354127e-04,-6.003126532e-04,-7.405106840e-05,-6.743637216e-04,-1.311921828e-03,1.875502668e-04,-1.124371561e-03,-5.253763892e-05,-3.938267786e-05,-9.192031677e-05,1.117965746e-04,-1.970391717e-04,-8.524259712e-05,4.785569101e-04,7.328498584e-05,5.518418959e-04,-2.238937149e-04,-7.732620170e-06,-2.316263351e-04,-9.941265568e-04,1.278210317e-03,2.840837606e-04,-1.473905179e-04,-2.710364177e-05,-1.744941597e-04,-8.476322253e-05,1.457439539e-04,6.098073138e-05,-1.844596824e-04,3.141691388e-05,-1.530427685e-04,-1.003149596e-04,-1.572084638e-05,-1.160358059e-04,-5.847631201e-04,-9.364292385e-05,-6.784060440e-04,-3.030429082e-04,2.983823452e-05,-2.732046737e-04,-3.292472761e-04,5.399093460e-05,-2.752563415e-04,5.645607803e-04,-7.672727098e-05,4.878335093e-04,-3.126693203e-04,2.258734795e-05,-2.900819723e-04,6.594881642e-04,4.556884318e-05,7.050570074e-04,1.822078063e-04,6.572818639e-04,8.394896701e-04,-2.911585994e-04,4.410191398e-04,1.498605403e-04,-4.817702152e-04,7.265589406e-04,2.447887254e-04,-4.424048331e-04,3.012462926e-04,-1.411585406e-04
-7.6,6.164171587e-04,-1.237096060e-04,4.927075527e-04,3.015103041e-04,-1.198913907e-04,1.816189133e-04,2.914313761e-04,-9.428843043e-05,1.971429456e-04,-2.472427682e-05,-7.256224560e-05,-9.728652242e-05,-6.006527077e-05,-2.991157734e-05,-8.997684811e-05,5.063173433e-04,-1.174052634e-04,3.889120799e-04,2.492083077e-04,-3.850419465e-05,2.107041130e-04,-4.171769943e-05,1.422665908e-04,1.005488914e-04,-3.770514629e-04,9.289567287e-06,-3.677618956e-04,4.908747403e-04,-1.512832529e-05,4.757464150e-04,-2.043902463e-04,2.112312494e-05,-1.832671213e-04,-8.436197290e-04,-4.469547183e-05,-8.883152008e-04,-1.101147994e-04,-3.570897876e-04,-4.672045870e-04,-5.450841723e-04,6.998961784e-05,-4.750945545e-04,-2.284266728e-04,-2.095675881e-05,-2.493834316e-04,-5.767717217e-04,-5.859136281e-05,-6.353630845e-04,-1.264360409e-03,1.968831582e-04,-1.067477251e-03,-3.785955318e-05,-3.272934735e-05,-7.058890053e-05,1.483173915e-04,-1.920378720e-04,-4.372048053e-05,4.790875051e-04,7.134829327e-05,5.504357984e-04,-2.192401493e-04,-1.095146890e-05,-2.301916182e-04,-9.911019665e-04,1.308072609e-03,3.169706424e-04,-1.454266091e-04,-2.890778117e-05,-1.743343903e-04,-9.499020811e-05,1.478586422e-04,5.286843409e-05,-1.615714815e-04,4.686350984e-06,-1.568851305e-04,-9.031010350e-05,-1.489821277e-05,-1.052083163e-04,-5.408563692e-04,-1.065841848e-04,-6.474405540e-04,-2.600589798e-04,1.114962248e-05,-2.489093573e-04,-3.036378656e-04,5.870943515e-05,-2.449284305e-04,5.459148606e-04,-6.844707702e-05,4.774677835e-04,-2.729224338e-04,2.454271752e-05,-2.483797163e-04,6.683498608e-04,3.088112986e-05,6.992309907e-04,2.956146139e-04,6.182788713e-04,9.138934853e-04,-2.500162564e-04,4.452497264e-04,1.952334700e-04,-4.359656459e-04,6.907649067e-04,2.547992608e-04,-4.180856005e-04,2.899923081e-04,-1.280932924e-04
-7.5,5.942153463e-04,-1.213125238e-04,4.729028225e-04,3.118741187e-04,-1.223754532e-04,1.894986655e-04,2.756107821e-04,-8.970027215e-05,1.859105099e-04,-2.266049079e-05,-7.011841376e-05,-9.277890456e-05,-5.768265326e-05,-3.088881580e-05,-8.857146906e-05,4.973887164e-04,-8.785112715e-05,4.095375893e-04,2.576007361e-04,-3.574237796e-05,2.218583581e-04,1.772213266e-05,1.090707736e-04,1.267929062e-04,-3.607430622e-04,1.089989614e-05,-3.498431660e-04,5.018688178e-04,-1.608225453e-05,4.857865633e-04,-1.932146334e-04,1.453935359e-05,-1.786752798e-04,-8.229254158e-04,-3.739502579e-05,-8.603204416e-04,-9.137794210e-05,-3.632354460e-04,-4.546133881e-04,-5.124323256e-04,5.767641490e-05,-4.547559107e-04,-2.253905263e-04,-1.914640153e-05,-2.445369279e-04,-5.531217872e-04,-4.325169374e-05,-5.963734810e-04,-1.214014326e-03,2.048497164e-04,-1.009164609e-03,-2.376611638e-05,-2.537061510e-05,-4.913673148e-05,1.813534728e-04,-1.842258283e-04,-2.872355517e-06,4.793232877e-04,6.899059106e-05,5.483138787e-04,-2.143898980e-04,-1.386205753e-05,-2.282519555e-04,-9.797297629e-04,1.325448719e-03,3.457189559e-04,-1.427506079e-04,-3.060713795e-05,-1.733577459e-04,-1.040223149e-04,1.497839142e-04,4.576159923e-05,-1.376059779e-04,-2.496475437e-05,-1.625707323e-04,-8.032254952e-05,-1.438500191e-05,-9.470755143e-05,-4.972946732e-04,-1.186303892e-04,-6.159250624e-04,-2.167303740e-04,-8.766003991e-06,-2.254963780e-04,-2.784120482e-04,6.346435316e-05,-2.149476951e-04,5.253246508e-04,-5.998735000e-05,4.653373008e-04,-2.332190497e-04,2.658775921e-05,-2.066312905e-04,6.762392645e-04,1.427403917e-05,6.905133037e-04,4.069143402e-04,5.826163800e-04,9.895307203e-04,-2.071146376e-04,4.477396887e-04,2.406250511e-04,-3.876453913e-04,6.529682016e-04,2.653228103e-04,-3.893505926e-04,2.738793998e-04,-1.154711928e-04
-7.4,5.718161023e-04,-1.189566349e-04,4.528594675e-04,3.210124910e-04,-1.242841603e-04,1.967283307e-04,2.598657974e-04,-8.516955286e-05,1.746962445e-04,-2.062247197e-05,-6.751344820e-05,-8.813592017e-05,-5.529933209e-05,-3.182547405e-05,-8.712480614e-05,4.867056597e-04,-5.739601454e-05,4.293096452e-04,2.659486455e-04,-3.353077956e-05,2.324178660e-04,7.831306763e-05,7.438042349e-05,1.526934911e-04,-3.440248663e-04,1.225127667e-05,-3.317735896e-04,5.124844951e-04,-1.742729095e-05,4.950572041e-04,-1.820653400e-04,8.192799505e-06,-1.738725405e-04,-8.007917751e-04,-3.013631838e-05,-8.309280935e-04,-7.401597502e-05,-3.684098656e-04,-4.424258406e-04,-4.808141358e-04,4.576310093e-05,-4.350510349e-04,-2.231112881e-04,-1.642462584e-05,-2.395359139e-04,-5.291610296e-04,-2.824804220e-05,-5.574090718e-04,-1.161046383e-03,2.115622218e-04,-9.494841608e-04,-1.019858088e-05,-1.738376138e-05,-2.758234226e-05,2.111796694e-04,-1.737995354e-04,3.738013398e-05,4.792530484e-04,6.618747358e-05,5.454405220e-04,-2.093164416e-04,-1.645789784e-05,-2.257743395e-04,-9.602783877e-04,1.330155579e-03,3.698771915e-04,-1.393537995e-04,-3.220001449e-05,-1.715538140e-04,-1.117757258e-04,1.514151884e-04,3.963946262e-05,-1.127642330e-04,-5.702314031e-05,-1.697873733e-04,-7.041538324e-05,-1.418440309e-05,-8.459978634e-05,-4.542144973e-04,-1.296826074e-04,-5.838971047e-04,-1.734669349e-04,-2.958349854e-05,-2.030504335e-04,-2.534905176e-04,6.814910549e-05,-1.853414121e-04,5.029581032e-04,-5.152626374e-05,4.514318395e-04,-1.935795711e-04,2.873974535e-05,-1.648398257e-04,6.832642701e-04,-4.239856156e-06,6.790244140e-04,5.153429076e-04,5.509994835e-04,1.066342391e-03,-1.624649530e-04,4.483963612e-04,2.859314081e-04,-3.367831588e-04,6.130572523e-04,2.762740935e-04,-3.565427244e-04,2.532827766e-04,-1.032599477e-04
-7.3,5.492249346e-04,-1.166444116e-04,4.325805230e-04,3.289125625e-04,-1.256446427e-04,2.032679198e-04,2.442454524e-04,-8.070926924e-05,1.635361832e-04,-1.858164910e-05,-6.474565419e-05,-8.332730329e-05,-5.289780838e-05,-3.270679750e-05,-8.560460588e-05,4.744109195e-04,-2.626921291e-05,4.481417066e-04,2.742422617e-04,-3.183722648e-05,2.424050352e-04,1.396308574e-04,3.864462364e-05,1.782754810e-04,-3.268833736e-04,1.334500070e-05,-3.135383729e-04,5.226467014e-04,-1.914721478e-05,5.034994866e-04,-1.709305853e-04,2.100988751e-06,-1.688295965e-04,-7.771665164e-04,-2.296976727e-05,-8.001362837e-04,-5.814587717e-05,-3.724708860e-04,-4.306167632e-04,-4.501754218e-04,3.430799298e-05,-4.158674288e-04,-2.215729306e-04,-1.274618866e-05,-2.343191192e-04,-5.046830375e-04,-1.379924424e-05,-5.184822818e-04,-1.105645432e-03,2.171375785e-04,-8.885078530e-04,2.905324431e-06,-8.855499068e-06,-5.950174637e-06,2.380861990e-04,-1.609849905e-04,7.710120857e-05,4.788672885e-04,6.291284729e-05,5.417801358e-04,-2.039943166e-04,-1.873571182e-05,-2.227300284e-04,-9.330852477e-04,1.322149867e-03,3.890646193e-04,-1.352331067e-04,-3.368585936e-05,-1.689189660e-04,-1.181665901e-04,1.526441275e-04,3.447753741e-05,-8.726046767e-05,-9.095556608e-05,-1.782160338e-04,-6.065160767e-05,-1.429364806e-05,-7.494525573e-05,-4.117283305e-04,-1.396551034e-04,-5.513834339e-04,-1.306735092e-04,-5.095901193e-05,-1.816325212e-04,-2.288000535e-04,7.266658803e-05,-1.561334655e-04,4.789951116e-04,-4.323910517e-05,4.357560064e-04,-1.540153284e-04,3.100950132e-05,-1.230058271e-04,6.894997181e-04,-2.460715610e-05,6.648925620e-04,6.200283203e-04,5.241411259e-04,1.144169446e-03,-1.161483333e-04,4.471795572e-04,3.310312238e-04,-2.833791679e-04,5.709289977e-04,2.875498298e-04,-3.200507165e-04,2.286196614e-04,-9.143105514e-05
-7.2,5.264503443e-04,-1.143767889e-04,4.120735554e-04,3.355731569e-04,-1.264837347e-04,2.090894222e-04,2.287992267e-04,-7.633034261e-05,1.524688841e-04,-1.650791135e-05,-6.181473435e-05,-7.832264570e-05,-5.045998070e-05,-3.351743057e-05,-8.397741127e-05,4.606855884e-04,5.264841872e-06,4.659504302e-04,2.824689776e-04,-3.062247489e-05,2.518465027e-04,2.012421785e-04,2.307792132e-06,2.035499707e-04,-3.093060803e-04,1.418413321e-05,-2.951219471e-04,5.322781980e-04,-2.122236885e-05,5.110558291e-04,-1.597991960e-04,-3.720705490e-06,-1.635199015e-04,-7.520155309e-04,-1.595517671e-05,-7.679707076e-04,-4.386088169e-05,-3.752790448e-04,-4.191399265e-04,-4.204441270e-04,2.334893282e-05,-3.970951942e-04,-2.207365901e-04,-8.088249791e-06,-2.288248399e-04,-4.794787027e-04,-1.233121379e-07,-4.796020148e-04,-1.048001550e-03,2.216756337e-04,-8.263259168e-04,1.561052023e-05,1.195639187e-07,1.573008415e-05,2.623699700e-04,-1.460316198e-04,1.163383503e-04,4.781564831e-04,5.914139781e-05,5.372978809e-04,-1.983996447e-04,-2.069513700e-05,-2.190947817e-04,-8.985415454e-04,1.301512714e-03,4.029711681e-04,-1.303916051e-04,-3.506512507e-05,-1.654567302e-04,-1.231114268e-04,1.533593982e-04,3.024797139e-05,-6.131316741e-05,-1.262241439e-04,-1.875373113e-04,-5.109176566e-05,-1.470489385e-05,-6.579665952e-05,-3.699240054e-04,-1.484732815e-04,-5.183972869e-04,-8.874072844e-05,-7.253753781e-05,-1.612782662e-04,-2.042748460e-04,7.693165108e-05,-1.273431949e-04,4.536195075e-04,-3.528810643e-05,4.183314011e-04,-1.145263976e-04,3.339844236e-05,-8.112795519e-05,6.949779057e-04,-4.672221062e-05,6.482556951e-04,7.200175985e-04,5.027365801e-04,1.222754179e-03,-6.831634466e-05,4.441003011e-04,3.757839565e-04,-2.274683429e-04,5.265061135e-04,2.990377706e-04,-2.802932310e-04,2.003384865e-04,-7.995474445e-05
-7.1,5.035036800e-04,-1.121531465e-04,3.913505335e-04,3.410048717e-04,-1.268270572e-04,2.141778145e-04,2.135760718e-04,-7.204151034e-05,1.415345615e-04,-1.437033841e-05,-5.872182669e-05,-7.309216510e-05,-4.796814824e-05,-3.424164382e-05,-8.220979206e-05,4.457447348e-04,3.690951100e-05,4.826542458e-04,2.906125688e-04,-2.984071686e-05,2.607718519e-04,2.627077423e-04,-3.419452474e-05,2.285132176e-04,-2.912829165e-04,1.477338179e-05,-2.765095347e-04,5.412990889e-04,-2.362987756e-05,5.176692113e-04,-1.486617139e-04,-9.259041044e-06,-1.579207550e-04,-7.253285746e-04,-9.156582751e-06,-7.344851573e-04,-3.122964784e-05,-3.767011650e-04,-4.079308128e-04,-3.915341975e-04,1.290188070e-05,-3.786323168e-04,-2.205408248e-04,-2.452213455e-06,-2.229930383e-04,-4.533405705e-04,1.256766531e-05,-4.407729052e-04,-9.882869476e-04,2.252415811e-04,-7.630453666e-04,2.798223329e-05,9.441153260e-06,3.742338655e-05,2.843265357e-04,-1.292074519e-04,1.551190838e-04,4.771087347e-04,5.485078004e-05,5.319595147e-04,-1.925112333e-04,-2.233849412e-05,-2.148497274e-04,-8.570863765e-04,1.268445453e-03,4.113590763e-04,-1.248397866e-04,-3.633907588e-05,-1.611788624e-04,-1.265290263e-04,1.534479529e-04,2.691892659e-05,-3.513777035e-05,-1.622995507e-04,-1.974373210e-04,-4.179252277e-05,-1.540688111e-05,-5.719940388e-05,-3.288652535e-04,-1.560738929e-04,-4.849391464e-04,-4.803738238e-05,-9.396192665e-05,-1.419993090e-04,-1.798584037e-04,8.087305975e-05,-9.898534392e-05,4.270115288e-04,-2.781408845e-05,3.991974404e-04,-7.510303577e-05,3.589838673e-05,-3.920464904e-05,6.996830835e-04,-7.041873412e-05,6.292643494e-04,8.143169667e-04,4.874224629e-04,1.301739430e-03,-1.918694949e-05,4.392147330e-04,4.200277835e-04,-1.691302356e-04,4.797542694e-04,3.106240338e-04,-2.377045868e-04,1.689084919e-04,-6.879609490e-05
-7,4.803983212e-04,-1.099713175e-04,3.704270038e-04,3.452286089e-04,-1.266984394e-04,2.185301695e-04,1.986226393e-04,-6.784919807e-05,1.307734412e-04,-1.213865983e-05,-5.546947493e-05,-6.760813476e-05,-4.540698426e-05,-3.486354309e-05,-8.027052735e-05,4.298313341e-04,6.834019764e-05,4.981715318e-04,2.986516787e-04,-2.944030416e-05,2.692113745e-04,3.235835553e-04,-7.043886668e-05,2.531446887e-04,-2.728083935e-04,1.511896883e-05,-2.576894247e-04,5.496257271e-04,-2.634402797e-05,5.232816991e-04,-1.375120874e-04,-1.450282944e-05,-1.520149169e-04,-6.971261615e-04,-2.635181835e-06,-6.997613434e-04,-2.029787186e-05,-3.766129859e-04,-3.969108578e-04,-3.633505440e-04,2.960479375e-06,-3.603900647e-04,-2.209036569e-04,4.135551979e-06,-2.167681049e-04,-4.260694369e-04,2.407356588e-05,-4.019958710e-04,-9.266446428e-04,2.278553309e-04,-6.987893119e-04,4.008212000e-05,1.900623611e-05,5.908835611e-05,3.042429666e-04,-1.107953492e-04,1.934476174e-04,4.757066222e-04,5.002390714e-05,5.257305293e-04,-1.863121435e-04,-2.367059531e-05,-2.099827388e-04,-8.092072229e-04,1.223274128e-03,4.140669051e-04,-1.185971993e-04,-3.750949938e-05,-1.561066987e-04,-1.283430685e-04,1.527961662e-04,2.445309768e-05,-8.942002594e-06,-1.986707877e-04,-2.076127903e-04,-3.280597981e-05,-1.638679099e-05,-4.919277080e-05,-2.885926287e-04,-1.624071465e-04,-4.509997752e-04,-8.905044197e-06,-1.148812504e-04,-1.237862946e-04,-1.555056289e-04,8.443465858e-05,-7.107097031e-05,3.993408141e-04,-2.093010845e-05,3.784107056e-04,-3.573003547e-05,3.849341756e-05,2.763382088e-06,7.035510025e-04,-9.546592038e-05,6.080850821e-04,9.019398006e-04,4.787270350e-04,1.380666836e-03,3.096312683e-05,4.326149809e-04,4.635781078e-04,-1.084988520e-04,4.306982959e-04,3.221994439e-04,-1.927236264e-04,1.348107924e-04,-5.791283405e-05
-6.9,4.571485227e-04,-1.078276130e-04,3.493209097e-04,3.482729798e-04,-1.261197082e-04,2.221532716e-04,1.839811541e-04,-6.375738308e-05,1.202237710e-04,-9.785103008e-06,-5.206156810e-05,-6.184667110e-05,-4.276586156e-05,-3.536726248e-05,-7.813312404e-05,4.132086795e-04,9.921062646e-05,5.124193059e-04,3.065581138e-04,-2.936483072e-05,2.771932831e-04,3.834221377e-04,-1.060165835e-04,2.774055542e-04,-2.538838088e-04,1.522851153e-05,-2.386552973e-04,5.571695432e-04,-2.933670376e-05,5.278328395e-04,-1.263494959e-04,-1.944280845e-05,-1.457923044e-04,-6.674651437e-04,3.558011109e-06,-6.639071326e-04,-1.109137394e-05,-3.749004872e-04,-3.859918612e-04,-3.357949177e-04,-6.502554699e-06,-3.422974724e-04,-2.217257976e-04,1.162424692e-05,-2.101015507e-04,-3.974822507e-04,3.421261243e-05,-3.632696383e-04,-8.631833653e-04,2.294871647e-04,-6.336962005e-04,5.196374198e-05,2.871201370e-05,8.067575567e-05,3.223917773e-04,-9.108993284e-05,2.313018444e-04,4.739233213e-04,4.465184111e-05,5.185751624e-04,-1.797914471e-04,-2.469843314e-05,-2.044898802e-04,-7.554408138e-04,1.166455313e-03,4.110144987e-04,-1.116939063e-04,-3.857832515e-05,-1.502722315e-04,-1.284846686e-04,1.512906501e-04,2.280598150e-05,1.707620863e-05,-2.348515891e-04,-2.177753805e-04,-2.417944214e-05,-1.763160686e-05,-4.181104900e-05,-2.491248040e-04,-1.674394409e-04,-4.165642448e-04,2.834546976e-05,-1.349576985e-04,-1.066122287e-04,-1.311846057e-04,8.757560433e-05,-4.360900138e-05,3.707598481e-04,-1.471685925e-05,3.560429888e-04,3.607697715e-06,4.116246431e-05,4.477016203e-05,7.064722505e-04,-1.215691312e-04,5.849031193e-04,9.819555274e-04,4.770226586e-04,1.458978186e-03,8.180717285e-05,4.244200605e-04,5.062272334e-04,-4.576860025e-05,3.794339925e-04,3.336653923e-04,-1.457869131e-04,9.853254722e-05,-4.725436590e-05
-6.8,4.337684509e-04,-1.057169437e-04,3.280515072e-04,3.501718316e-04,-1.251112473e-04,2.250605843e-04,1.696875724e-04,-5.976749206e-05,1.099200804e-04,-7.286143377e-06,-4.850327214e-05,-5.578941552e-05,-4.004069187e-05,-3.573716771e-05,-7.577785958e-05,3.961515649e-04,1.291613659e-04,5.253129307e-04,3.142954481e-04,-2.955439725e-05,2.847410508e-04,4.417746088e-04,-1.405358413e-04,3.012387675e-04,-2.345187678e-04,1.511094291e-05,-2.194078249e-04,5.638363280e-04,-3.257765105e-05,5.312586770e-04,-1.151797444e-04,-2.407143402e-05,-1.392511784e-04,-6.364409282e-04,9.387546526e-06,-6.270533817e-04,-3.619066067e-06,-3.714605937e-04,-3.750796598e-04,-3.087718723e-04,-1.553199980e-05,-3.243038721e-04,-2.228942323e-04,1.994025351e-05,-2.029539788e-04,-3.674200995e-04,4.282754554e-05,-3.245925539e-04,-7.979759774e-04,2.300575806e-04,-5.679183967e-04,6.366868530e-05,3.845828937e-05,1.021269747e-04,3.390257957e-04,-7.039440182e-05,2.686313939e-04,4.717188227e-04,3.873719079e-05,5.104560134e-04,-1.729456573e-04,-2.543072684e-05,-1.983763841e-04,-6.963708157e-04,1.098578167e-03,4.022073512e-04,-1.041711701e-04,-3.954722492e-05,-1.437183950e-04,-1.268944653e-04,1.488192991e-04,2.192483375e-05,4.272966747e-05,-2.703843848e-04,-2.276547173e-04,-1.595528422e-05,-1.912832894e-05,-3.508361316e-05,-2.104606644e-04,-1.711560880e-04,-3.816167524e-04,6.343703006e-05,-1.538723774e-04,-9.043534732e-05,-1.068776831e-04,9.026990917e-05,-1.660777396e-05,3.413988019e-04,-9.220144528e-06,3.321786574e-04,4.292001804e-05,4.388168970e-05,8.680170774e-05,7.082980871e-04,-1.483752479e-04,5.599228391e-04,1.053533456e-03,4.824899163e-04,1.536023373e-03,1.329774512e-04,4.147682561e-04,5.477457074e-04,1.880662727e-05,3.261318928e-04,3.449385201e-04,-9.732765547e-05,6.056597797e-05,-3.676167750e-05
-6.7,4.102719150e-04,-1.036330756e-04,3.066388393e-04,3.509629844e-04,-1.236933746e-04,2.272696098e-04,1.557706302e-04,-5.587835735e-05,9.989227285e-05,-4.623675736e-06,-4.480092651e-05,-4.942460225e-05,-3.723453747e-05,-3.595805693e-05,-7.319259441e-05,3.789375420e-04,1.578294505e-04,5.367669925e-04,3.218185141e-04,-2.994684997e-05,2.918716641e-04,4.981938776e-04,-1.736231960e-04,3.245706816e-04,-2.147314902e-04,1.477645859e-05,-1.999550316e-04,5.695264819e-04,-3.603452913e-05,5.334919527e-04,-1.040157569e-04,-2.838261529e-05,-1.323983722e-04,-6.041854237e-04,1.483596780e-05,-5.893494559e-04,2.125540302e-06,-3.662022222e-04,-3.640766819e-04,-2.821932620e-04,-2.418532618e-05,-3.063785882e-04,-2.242852995e-04,2.898944188e-05,-1.952958576e-04,-3.357549801e-04,4.979102720e-05,-2.859639529e-04,-7.310589598e-04,2.294396245e-04,-5.016193352e-04,7.522433248e-05,4.814898221e-05,1.233733147e-04,3.543737021e-04,-4.901609303e-05,3.053576091e-04,4.690376311e-04,3.229696532e-05,5.013345964e-04,-1.657792749e-04,-2.587751746e-05,-1.916567923e-04,-6.326216374e-04,1.020360402e-03,3.877387642e-04,-9.608105102e-05,-4.041728744e-05,-1.364983385e-04,-1.235241246e-04,1.452729981e-04,2.174887351e-05,6.784318472e-05,-3.048419894e-04,-2.369988047e-04,-8.170597411e-06,-2.086269375e-05,-2.903329116e-05,-1.725823211e-04,-1.735639840e-04,-3.461463051e-04,9.612915622e-05,-1.713298817e-04,-7.520072547e-05,-8.258145329e-05,9.250552740e-05,9.924074114e-06,3.113636873e-04,-4.451373298e-06,3.069123140e-04,8.220759236e-05,4.662654747e-05,1.288341398e-04,7.088483888e-04,-1.754827230e-04,5.333656658e-04,1.115976811e-03,4.950989345e-04,1.611075745e-03,1.840757451e-04,4.038102839e-04,5.878860290e-04,8.492127251e-05,2.710315705e-04,3.559528430e-04,-4.777922574e-05,2.141152523e-05,-2.636770051e-05
-6.6,3.866729005e-04,-1.015689453e-04,2.851039552e-04,3.506882362e-04,-1.218879020e-04,2.288003342e-04,1.422519561e-04,-5.208623280e-05,9.016572326e-05,-1.785370787e-06,-4.096187547e-05,-4.274724626e-05,-3.435686219e-05,-3.601532983e-05,-7.037219203e-05,3.618395130e-04,1.848578408e-04,5.466973538e-04,3.290741729e-04,-3.047899881e-05,2.985951741e-04,5.522394418e-04,-2.049260311e-04,3.473134107e-04,-1.945479920e-04,1.423641033e-05,-1.803115817e-04,5.741363707e-04,-3.967291346e-05,5.344634573e-04,-9.287710147e-05,-3.237149752e-05,-1.252485990e-04,-5.708613249e-04,1.990399131e-05,-5.509573336e-04,6.164547612e-06,-3.590480471e-04,-3.528834995e-04,-2.559800646e-04,-3.252766837e-05,-2.885077329e-04,-2.257669274e-04,3.865979872e-05,-1.871071287e-04,-3.023943126e-04,5.500974676e-05,-2.473845658e-04,-6.624309910e-04,2.274619748e-04,-4.349690162e-04,8.664355674e-05,5.769301898e-05,1.443365757e-04,3.686358587e-04,-2.726027160e-05,3.413755871e-04,4.658087869e-04,2.536374918e-05,4.911725360e-04,-1.583042961e-04,-2.604997123e-05,-1.843542673e-04,-5.648485010e-04,9.326368707e-04,3.677883698e-04,-8.748516520e-05,-4.118880411e-05,-1.286739693e-04,-1.183376531e-04,1.405481228e-04,2.221046979e-05,9.225562737e-05,-3.378272921e-04,-2.455716647e-04,-8.567035469e-07,-2.281677199e-05,-2.367347554e-05,-1.354588909e-04,-1.746938336e-04,-3.101527245e-04,1.262203783e-04,-1.870607519e-04,-6.084037361e-05,-5.830538527e-05,9.428283558e-05,3.597745032e-05,2.807387134e-04,-3.912614259e-07,2.803474519e-04,1.214588795e-04,4.937369948e-05,1.708325790e-04,7.079209908e-04,-2.024551756e-04,5.054658152e-04,1.168744506e-03,5.146082415e-04,1.683352747e-03,2.346869195e-04,3.917019360e-04,6.263888555e-04,1.522304077e-04,2.144281316e-04,3.666585393e-04,2.421088499e-06,-1.841835820e-05,-1.599726970e-05
-6.5,3.629864602e-04,-9.951691830e-05,2.634695419e-04,3.493936541e-04,-1.197191037e-04,2.296745504e-04,1.291467866e-04,-4.838488093e-05,8.076190571e-05,1.235575114e-06,-3.699426327e-05,-3.575868815e-05,-3.142211735e-05,-3.589514799e-05,-6.731726534e-05,3.451195479e-04,2.099044481e-04,5.550239961e-04,3.360030182e-04,-3.108795345e-05,3.049150648e-04,6.034844758e-04,-2.341173791e-04,3.693670966e-04,-1.740009305e-04,1.350310147e-05,-1.604978291e-04,5.775602686e-04,-4.345640372e-05,5.341038649e-04,-8.178902428e-05,-3.603437211e-05,-1.178233964e-04,-5.366544396e-04,2.460919632e-05,-5.120452433e-04,8.536857776e-06,-3.499370043e-04,-3.414001465e-04,-2.300621278e-04,-4.062727675e-05,-2.706894046e-04,-2.272005898e-04,4.882419256e-05,-1.783763973e-04,-2.672831024e-04,5.842697900e-05,-2.088561234e-04,-5.920510615e-04,2.239119684e-04,-3.681390931e-04,9.792595099e-05,6.700470070e-05,1.649306517e-04,3.819798559e-04,-5.422730560e-06,3.765571253e-04,4.619477533e-04,1.798503518e-05,4.799327885e-04,-1.505391606e-04,-2.596030535e-05,-1.764994660e-04,-4.937259088e-04,8.363432670e-04,3.426173582e-04,-7.845329524e-05,-4.186113249e-05,-1.203144277e-04,-1.113136069e-04,1.345500836e-04,2.323647666e-05,1.158215939e-04,-3.689722760e-04,-2.531506821e-04,5.960884493e-06,-2.496645716e-05,-1.900557267e-05,-9.905118648e-05,-1.746012735e-04,-2.736524599e-04,1.535486414e-04,-2.008215170e-04,-4.727287563e-05,-3.406930631e-05,9.561224084e-05,6.154293453e-05,2.495912739e-04,3.004678044e-06,2.525959519e-04,1.606477043e-04,5.210266385e-05,2.127503681e-04,7.053007179e-04,-2.288360101e-04,4.764647078e-04,1.211463078e-03,5.405750595e-04,1.752038138e-03,2.843950066e-04,3.785954258e-04,6.629904324e-04,2.203629962e-04,1.566546213e-04,3.770176174e-04,5.283184323e-05,-5.839793875e-05,-5.566095516e-06
-6.4,3.392292815e-04,-9.746896005e-05,2.417603215e-04,3.471288727e-04,-1.172137191e-04,2.299151536e-04,1.164645106e-04,-4.476575154e-05,7.169875910e-05,4.440755236e-06,-3.290685218e-05,-2.846609695e-05,-2.844869465e-05,-3.558465127e-05,-6.403334591e-05,3.290230945e-04,2.326506925e-04,5.616737871e-04,3.425410743e-04,-3.171268812e-05,3.108283862e-04,6.515245155e-04,-2.609030498e-04,3.906214657e-04,-1.531290534e-04,1.258955277e-05,-1.405395006e-04,5.796920437e-04,-4.734682144e-05,5.323452222e-04,-7.078170429e-05,-3.936866436e-05,-1.101503687e-04,-5.017656655e-04,2.898301173e-05,-4.727826537e-04,9.299118501e-06,-3.388275108e-04,-3.295283923e-04,-2.043779847e-04,-4.855135974e-05,-2.529293444e-04,-2.284439373e-04,5.934328739e-05,-1.691006499e-04,-2.304049866e-04,6.002385005e-05,-1.703811365e-04,-5.198399531e-04,2.185404081e-04,-3.012995450e-04,1.090598499e-04,7.600340015e-05,1.850632501e-04,3.945354550e-04,1.621768465e-05,4.107531397e-04,4.573590248e-04,1.022122319e-05,4.675802480e-04,-1.425078913e-04,-2.562162033e-05,-1.681295116e-04,-4.199378077e-04,7.325003663e-04,3.125625586e-04,-6.906252582e-05,-4.243258945e-05,-1.114951153e-04,-1.024490265e-04,1.271978568e-04,2.474883032e-05,1.384104721e-04,-3.979371859e-04,-2.595267138e-04,1.226141993e-05,-2.727977710e-05,-1.501835717e-05,-6.331784516e-05,-1.733664394e-04,-2.366842845e-04,1.779887377e-04,-2.123932041e-04,-3.440446647e-05,-9.900528624e-06,9.651108992e-05,8.661056129e-05,2.179771061e-04,5.800361016e-06,2.237774671e-04,1.997314409e-04,5.479687623e-05,2.545283171e-04,7.007667570e-04,-2.541621218e-04,4.466046353e-04,1.243934847e-03,5.723675220e-04,1.816302369e-03,3.327994817e-04,3.646296647e-04,6.974291464e-04,2.889323323e-04,9.806497994e-05,3.869973122e-04,1.030106526e-04,-9.799024957e-05,5.020403058e-06
-6.3,3.154194721e-04,-9.541677273e-05,2.200026994e-04,3.439447665e-04,-1.144001408e-04,2.295446257e-04,1.042084799e-04,-4.121823858e-05,6.299024131e-05,7.826391626e-06,-2.870885698e-05,-2.088246536e-05,-2.545893163e-05,-3.507225006e-05,-6.053118169e-05,3.137732820e-04,2.528090472e-04,5.665823291e-04,3.486207004e-04,-3.229578338e-05,3.163249170e-04,6.959856939e-04,-2.850291148e-04,4.109565791e-04,-1.319777426e-04,1.150935398e-05,-1.204683886e-04,5.804260042e-04,-5.130437629e-05,5.291216279e-04,-5.989020204e-05,-4.237287496e-05,-1.022630770e-04,-4.664033529e-04,3.306571769e-05,-4.333376352e-04,8.525292544e-06,-3.257010272e-04,-3.171757346e-04,-1.788765264e-04,-5.636198382e-05,-2.352385102e-04,-2.293546008e-04,7.006869979e-05,-1.592859010e-04,-1.917839861e-04,5.982002507e-05,-1.319639610e-04,-4.456885964e-04,2.110707706e-04,-2.346178258e-04,1.200241791e-04,8.461272841e-05,2.046369075e-04,4.063895414e-04,3.740536004e-05,4.437949014e-04,4.519386284e-04,2.142614842e-06,4.540812433e-04,-1.342399102e-04,-2.504756641e-05,-1.592874766e-04,-3.441701342e-04,6.222014388e-04,2.780313046e-04,-5.939720123e-05,-4.290035339e-05,-1.022975546e-04,-9.176481458e-05,1.184287287e-04,2.666391410e-05,1.599013473e-04,-4.244092836e-04,-2.645079363e-04,1.802659755e-05,-2.971633286e-05,-1.168973531e-05,-2.822347665e-05,-1.710913252e-04,-1.993148018e-04,1.994468242e-04,-2.215796319e-04,-2.213280771e-05,1.416818784e-05,9.700060365e-05,1.111687915e-04,1.859444472e-04,8.073175738e-06,1.940176229e-04,2.386497457e-04,5.744398407e-05,2.960937298e-04,6.940984621e-04,-2.779770185e-04,4.161214436e-04,1.266146137e-03,6.091732043e-04,1.875319341e-03,3.795288933e-04,3.499208317e-04,7.294497250e-04,3.575407556e-04,3.902146482e-05,3.965622204e-04,1.525185103e-04,-1.366524135e-04,1.586609689e-05
-6.2,2.915754653e-04,-9.335192904e-05,1.982235362e-04,3.398898617e-04,-1.113073317e-04,2.285825300e-04,9.237495981e-05,-3.772995484e-05,5.464500496e-05,1.138242121e-05,-2.440971641e-05,-1.302729521e-05,-2.248028304e-05,-3.434792650e-05,-5.682820954e-05,2.995655729e-04,2.701289662e-04,5.696945391e-04,3.541704096e-04,-3.278503799e-05,3.213853716e-04,7.365311621e-04,-3.062879031e-04,4.302432591e-04,-1.106005427e-04,1.027663791e-05,-1.003239048e-04,5.796568196e-04,-5.528773663e-05,5.243690829e-04,-4.915514267e-05,-4.504641743e-05,-9.420156010e-05,-4.307766367e-04,3.690036300e-05,-3.938762737e-04,6.304271087e-06,-3.105652145e-04,-3.042609434e-04,-1.535206179e-04,-6.411215691e-05,-2.176327748e-04,-2.297949409e-04,8.084641958e-05,-1.489485213e-04,-1.514878383e-04,5.787430401e-05,-9.361353429e-05,-3.694727458e-04,2.012132514e-04,-1.682594944e-04,1.307892790e-04,9.275964265e-05,2.235489217e-04,4.175824577e-04,5.791168116e-05,4.754941389e-04,4.455762414e-04,-6.174425830e-06,4.394018156e-04,-1.257705451e-04,-2.425198514e-05,-1.500225303e-04,-2.671041605e-04,5.066014650e-04,2.394973044e-04,-4.954957360e-05,-4.326036733e-05,-9.280994094e-05,-7.931152041e-05,1.082024001e-04,2.889087967e-05,1.801742827e-04,-4.481007271e-04,-2.679264444e-04,2.323722012e-05,-3.222766085e-05,-8.990440726e-06,6.251027592e-06,-1.678941586e-04,-1.616431310e-04,2.178532888e-04,-2.282065551e-04,-1.035326633e-05,3.809895528e-05,9.710362528e-05,1.352025806e-04,1.535370900e-04,9.907565599e-06,1.634446556e-04,2.773234172e-04,6.003541876e-05,3.373588360e-04,6.850805918e-04,-2.998447128e-04,3.852358790e-04,1.278273633e-03,6.500068599e-04,1.928280493e-03,4.242499782e-04,3.345549551e-04,7.588049333e-04,4.257781545e-04,-2.011214776e-05,4.056660068e-04,2.009239955e-04,-1.738452643e-04,2.707873114e-05
-6.1,2.677142296e-04,-9.126595825e-05,1.764482714e-04,3.350063007e-04,-1.079638473e-04,2.270424534e-04,8.095147176e-05,-3.428696247e-05,4.666450928e-05,1.509092625e-05,-2.001876306e-05,-4.927836805e-06,-1.954729342e-05,-3.340345594e-05,-5.295074936e-05,2.865628082e-04,2.844013742e-04,5.709641825e-04,3.591136525e-04,-3.313453651e-05,3.259791159e-04,7.728658126e-04,-3.245220202e-04,4.483437923e-04,-8.906113077e-05,8.906117398e-06,-8.015501337e-05,5.772788625e-04,-5.925407244e-05,5.180247901e-04,-3.862381409e-05,-4.738940851e-05,-8.601322260e-05,-3.950910141e-04,4.052770823e-05,-3.545633059e-04,2.735824201e-06,-2.934561274e-04,-2.907203032e-04,-1.282911349e-04,-7.184282026e-05,-2.001339551e-04,-2.296370597e-04,9.152035727e-05,-1.381167024e-04,-1.096320817e-04,5.428468192e-05,-5.534739977e-05,-2.910706608e-04,1.886825273e-04,-1.023881335e-04,1.413165653e-04,1.003737681e-04,2.416903334e-04,4.281068716e-04,7.753571583e-05,5.056425874e-04,4.381569943e-04,-1.465172583e-05,4.235052685e-04,-1.171419371e-04,-2.324867544e-05,-1.403906125e-04,-1.894102685e-04,3.869064545e-04,1.974961859e-04,-3.962069158e-05,-4.350722093e-05,-8.312791251e-05,-6.517452054e-05,9.650416718e-05,3.132964664e-05,1.991001723e-04,-4.687460914e-04,-2.696459191e-04,2.786938169e-05,-3.475812922e-05,-6.888747530e-06,4.009727799e-05,-1.639012379e-04,-1.238039599e-04,2.331560260e-04,-2.321223401e-04,1.033685905e-06,6.184741335e-05,9.684349764e-05,1.586909110e-04,1.207961264e-04,1.138901426e-05,1.321851406e-04,3.156526978e-04,6.256576507e-05,3.782184628e-04,6.735090912e-04,-3.193647424e-04,3.541443488e-04,1.280683487e-03,6.937255793e-04,1.974409066e-03,4.666718210e-04,3.185835521e-04,7.852553731e-04,4.932162390e-04,-7.897285687e-05,4.142433822e-04,2.478078476e-04,-2.090482075e-04,3.875964013e-05
-6,2.438491759e-04,-8.915030481e-05,1.546988711e-04,3.293259411e-04,-1.043966989e-04,2.249292423e-04,6.991505263e-05,-3.087395580e-05,3.904109684e-05,1.892435743e-05,-1.554487117e-05,3.379486258e-06,-1.670364455e-05,-3.223252652e-05,-4.893617106e-05,2.748901194e-04,2.954627561e-04,5.703528754e-04,3.633669736e-04,-3.330499120e-05,3.300619824e-04,8.047399005e-04,-3.396266067e-04,4.651132938e-04,-6.743495209e-05,7.413126381e-06,-6.002182571e-05,5.731855849e-04,-6.315915733e-05,5.100264275e-04,-2.835114113e-05,-4.940249095e-05,-7.775363208e-05,-3.595470204e-04,4.398373304e-05,-3.155632874e-04,-2.073905431e-06,-2.744394722e-04,-2.765133777e-04,-1.031895068e-04,-7.958123491e-05,-1.827707417e-04,-2.287672594e-04,1.019358554e-04,-1.268314041e-04,-6.638322926e-05,4.918700627e-05,-1.719622299e-05,-2.103809950e-04,1.732181017e-04,-3.716289328e-05,1.515575768e-04,1.073869496e-04,2.589445264e-04,4.379092427e-04,9.610290540e-05,5.340121481e-04,4.295631927e-04,-2.321321174e-05,4.063499809e-04,-1.084039231e-04,-2.205125910e-05,-1.304551822e-04,-1.117430810e-04,2.643624424e-04,1.526193615e-04,-2.972088555e-05,-4.363400099e-05,-7.335488654e-05,-4.947779539e-05,8.334720182e-05,3.386940644e-05,2.165321109e-04,-4.861006176e-04,-2.695685067e-04,3.189085789e-05,-3.724591582e-05,-5.355057934e-06,7.327010176e-05,-1.592380987e-04,-8.596799689e-05,2.453161482e-04,-2.332003522e-04,1.211579604e-05,8.536052932e-05,9.624398566e-05,1.816045150e-04,8.776022771e-05,1.259991104e-05,1.003601388e-04,3.535144063e-04,6.503282730e-05,4.185472336e-04,6.591979599e-04,-3.361873230e-04,3.230106369e-04,1.273920188e-03,7.390559660e-04,2.012976154e-03,5.065455981e-04,3.020225991e-04,8.085681972e-04,5.594016371e-04,-1.371987901e-04,4.222028470e-04,2.927680342e-04,-2.417776469e-04,5.099038733e-05
-5.9,2.199883371e-04,-8.699612368e-05,1.329922134e-04,3.228670981e-04,-1.006296235e-04,2.222374746e-04,5.923112461e-05,-2.747444740e-05,3.175667722e-05,2.284420599e-05,-1.099621443e-05,1.184799155e-05,-1.400332656e-05,-3.083080085e-05,-4.483412740e-05,2.646292149e-04,3.031996380e-04,5.678288529e-04,3.668384549e-04,-3.326355014e-05,3.335749047e-04,8.319516354e-04,-3.515499377e-04,4.804016978e-04,-4.580967928e-05,5.813666355e-06,-3.999601293e-05,5.672696170e-04,-6.695752445e-05,5.003120925e-04,-1.839990110e-05,-5.108670217e-05,-6.948660328e-05,-3.243407718e-04,4.729921311e-05,-2.770415587e-04,-8.015803200e-06,-2.536112189e-04,-2.616270221e-04,-7.823775683e-05,-8.734022898e-05,-1.655779858e-04,-2.270891877e-04,1.119431110e-04,-1.151460767e-04,-2.195973119e-05,4.275205555e-05,2.079232436e-05,-1.273396666e-04,1.546056253e-04,2.726595871e-05,1.614531206e-04,1.137332065e-04,2.751863271e-04,4.468931869e-04,1.134637394e-04,5.603569263e-04,4.196761236e-04,-3.178750373e-05,3.878886198e-04,-9.961435576e-05,-2.067304201e-05,-1.202873978e-04,-3.473825541e-05,1.402445912e-04,1.055063358e-04,-1.996914654e-05,-4.363215662e-05,-6.360130316e-05,-3.238536448e-05,6.877373482e-05,3.638837034e-05,2.323011464e-04,-4.999402890e-04,-2.676391426e-04,3.525869301e-05,-3.962371201e-05,-4.365019001e-06,1.056831310e-04,-1.540218319e-04,-4.833870092e-05,2.543072415e-04,-2.313424937e-04,2.296474789e-05,1.085745512e-04,9.533005849e-05,2.039046097e-04,5.446528169e-05,1.361787845e-05,6.808316014e-05,3.907581304e-04,6.743883370e-05,4.581969641e-04,6.419867951e-04,-3.500269141e-04,2.919598810e-04,1.258687627e-03,7.846298585e-04,2.043317485e-03,5.436611837e-04,2.848547899e-04,8.285159736e-04,6.238514065e-04,-1.944308566e-04,4.294205499e-04,3.354241035e-04,-2.716045518e-04,6.381955173e-05
-5.8,1.961335072e-04,-8.479396854e-05,1.113395387e-04,3.156327833e-04,-9.668092490e-05,2.189518584e-04,4.885366920e-05,-2.407100232e-05,2.478266689e-05,2.680078284e-05,-6.380182243e-06,2.042060059e-05,-1.151003353e-05,-2.919595437e-05,-4.070598790e-05,2.558126166e-04,3.075530055e-04,5.633656221e-04,3.694276110e-04,-3.298340962e-05,3.364442014e-04,8.543482791e-04,-3.602924714e-04,4.940558077e-04,-2.428386458e-05,4.124464426e-06,-2.015940016e-05,5.594241676e-04,-7.060265714e-05,4.888215105e-04,-8.839638410e-06,-5.244337689e-05,-6.128301530e-05,-2.896637997e-04,5.049999389e-05,-2.391638058e-04,-1.497901681e-05,-2.310975045e-04,-2.460765213e-04,-5.347597388e-05,-9.511757220e-05,-1.485935461e-04,-2.245251527e-04,1.214004350e-04,-1.031247177e-04,2.337008424e-05,3.518154648e-05,5.855163072e-05,-4.193463402e-05,1.326967337e-04,9.076209968e-05,1.709334125e-04,1.193492281e-04,2.902826405e-04,4.549245255e-04,1.294935242e-04,5.844180497e-04,4.083780328e-04,-4.030852389e-05,3.680695089e-04,-9.083828988e-05,-1.912690009e-05,-1.099651900e-04,4.098960880e-05,1.584694018e-05,5.683654899e-05,-1.049091149e-05,-4.349147345e-05,-5.398238494e-05,-1.409950337e-05,5.285478043e-05,3.875527706e-05,2.462182623e-04,-5.100642845e-04,-2.638460223e-04,3.791910164e-05,-4.181909425e-05,-3.899992605e-06,1.372106822e-04,-1.483554455e-04,-1.114476326e-05,2.601178403e-04,-2.264825032e-04,3.363533704e-05,1.314140735e-04,9.412910400e-05,2.255431775e-04,2.094476219e-05,1.451598548e-05,3.546074768e-05,4.272030507e-04,6.979214984e-05,4.969952005e-04,6.217483987e-04,-3.606727849e-04,2.610756138e-04,1.235824723e-03,8.290239505e-04,2.064848673e-03,5.778425135e-04,2.670347872e-04,8.448773006e-04,6.860542868e-04,-2.503180231e-04,4.357362638e-04,3.754194483e-04,-2.981665205e-04,7.725292777e-05
-5.7,1.722807954e-04,-8.253347508e-05,8.974732034e-05,3.076112086e-04,-9.256160901e-05,2.150495996e-04,3.872705393e-05,-2.064552482e-05,1.808152912e-05,3.073449317e-05,-1.703391349e-06,2.903110182e-05,-9.294428536e-06,-2.732768107e-05,-3.662210960e-05,2.484196768e-04,3.085212254e-04,5.569409022e-04,3.710274013e-04,-3.244343882e-05,3.385839625e-04,8.718254738e-04,-3.659046640e-04,5.059208098e-04,-2.963822057e-06,2.362990226e-06,-6.008318307e-07,5.495458636e-04,-7.404728386e-05,4.754985797e-04,2.558584356e-07,-5.347413270e-05,-5.321827426e-05,-2.557002592e-04,5.360727241e-05,-2.020929868e-04,-2.284985343e-05,-2.070534578e-04,-2.299033113e-04,-2.895748167e-05,-1.028957432e-04,-1.318532249e-04,-2.210156411e-04,1.301770939e-04,-9.083854721e-05,6.929366817e-05,2.670329558e-05,9.599696374e-05,4.578375066e-05,1.074246111e-04,1.532083618e-04,1.799202447e-04,1.241751047e-04,3.040953494e-04,4.618388727e-04,1.440928033e-04,6.059316760e-04,3.955543501e-04,-4.871432190e-05,3.468400282e-04,-8.214577593e-05,-1.742533709e-05,-9.957111302e-05,1.148492446e-04,-1.075285895e-04,7.320655105e-06,-1.414379354e-06,-4.320022590e-05,-4.461460525e-05,5.144069200e-06,3.568847251e-05,4.083254171e-05,2.580829529e-04,-5.162998446e-04,-2.582168916e-04,3.981004003e-05,-4.375468123e-05,-3.944641201e-06,1.676951923e-04,-1.423243308e-04,2.537086147e-05,2.627556410e-04,-2.185877222e-04,4.416791884e-05,1.537927509e-04,9.267191723e-05,2.464646681e-04,-1.276843689e-05,1.536368804e-05,2.595251154e-06,4.626373536e-04,7.210836515e-05,5.347457187e-04,5.983960677e-04,-3.679960736e-04,2.303999941e-04,1.206272693e-03,8.708041010e-04,2.077076793e-03,6.089430424e-04,2.484973123e-04,8.574403547e-04,7.454780496e-04,-3.045249372e-04,4.409531124e-04,4.124211208e-04,-3.211719893e-04,9.124913146e-05
-5.6,1.484223923e-04,-8.020309970e-05,6.821929255e-05,2.987783763e-04,-8.827452887e-05,2.105038474e-04,2.878915697e-05,-1.717958559e-05,1.160957138e-05,3.457845169e-05,3.028254012e-06,3.760670571e-05,-7.429876195e-06,-2.522766513e-05,-3.265754132e-05,2.423761263e-04,3.061601503e-04,5.485362766e-04,3.715279453e-04,-3.162788807e-05,3.399000572e-04,8.843248715e-04,-3.684837288e-04,5.158411426e-04,1.804041238e-05,5.473611791e-07,1.858777356e-05,5.375384679e-04,-7.724385976e-05,4.602946081e-04,8.812038456e-06,-5.418101503e-05,-4.536897658e-05,-2.226211658e-04,5.663749852e-05,-1.659836673e-04,-3.150927085e-05,-1.816606399e-04,-2.131699107e-04,-4.742572116e-06,-1.106427676e-04,-1.153853397e-04,-2.165176945e-04,1.381554250e-04,-7.836226956e-05,1.154634738e-04,1.756508106e-05,1.330285548e-04,1.356985477e-04,7.881304014e-05,2.145115879e-04,1.883312051e-04,1.281550880e-04,3.164862932e-04,4.674525783e-04,1.571872670e-04,6.246398452e-04,3.810960637e-04,-5.694498646e-05,3.241510772e-04,-7.360864109e-05,-1.558075237e-05,-8.918939346e-05,1.862769650e-04,-2.285879180e-04,-4.231095300e-05,7.133836222e-06,-4.274549284e-05,-3.561165662e-05,2.508247273e-05,1.739780871e-05,4.248028144e-05,2.676972323e-04,-5.185093254e-04,-2.508120931e-04,4.086550500e-05,-4.534826127e-05,-4.482756267e-06,1.969576378e-04,-1.359943090e-04,6.096332876e-05,2.622518850e-04,-2.076594801e-04,5.459240485e-05,1.756153941e-04,9.099292228e-05,2.666083164e-04,-4.663873261e-05,1.622698149e-05,-3.041175112e-05,4.968207743e-04,7.441033818e-05,5.712311125e-04,5.718895961e-04,-3.719529123e-04,1.999366838e-04,1.171033407e-03,9.085730622e-04,2.079606469e-03,6.368408629e-04,2.291686128e-04,8.660094757e-04,8.015797703e-04,-3.567378967e-04,4.448418735e-04,4.461181970e-04,-3.403972487e-04,1.057209483e-04
-5.5,1.245487425e-04,-7.778993398e-05,4.675880849e-05,2.891017244e-04,-8.381494485e-05,2.052867795e-04,1.897483592e-05,-1.365479007e-05,5.320045845e-06,3.826174423e-05,7.809394155e-06,4.607113839e-05,-5.987936571e-06,-2.289957066e-05,-2.888750723e-05,2.375571517e-04,3.005803149e-04,5.381374666e-04,3.708207496e-04,-3.052622744e-05,3.402945222e-04,8.918301571e-04,-3.681693161e-04,5.236608411e-04,3.861886763e-05,-1.303856861e-06,3.731501077e-05,5.233164563e-04,-8.014517700e-05,4.431712793e-04,1.675715089e-05,-5.456679089e-05,-3.780964000e-05,-1.905768009e-04,5.960137036e-05,-1.309754305e-04,-4.083096542e-05,-1.551229657e-04,-1.959539311e-04,1.910728595e-05,-1.183138377e-04,-9.920655178e-05,-2.110030789e-04,1.452321261e-04,-6.577095280e-05,1.615087449e-04,8.026663821e-06,1.695354087e-04,2.276264616e-04,4.697884269e-05,2.746053042e-04,1.960844129e-04,1.312387712e-04,3.273231841e-04,4.715759221e-04,1.687268673e-04,6.403027894e-04,3.649019310e-04,-6.494048395e-05,2.999614471e-04,-6.529711351e-05,-1.360575293e-05,-7.890286645e-05,2.547429999e-04,-3.460675493e-04,-9.132454948e-05,1.503271033e-05,-4.211356417e-05,-2.708085383e-05,4.543169970e-05,-1.871296519e-06,4.356040318e-05,2.748820639e-04,-5.165982518e-04,-2.417161879e-04,4.102013005e-05,-4.651334255e-05,-5.493212503e-06,2.248079888e-04,-1.294107346e-04,9.539725424e-05,2.586648997e-04,-1.937333620e-04,6.493153767e-05,1.967808744e-04,8.912916521e-05,2.859100396e-04,-8.062365721e-05,1.716667880e-05,-6.345697841e-05,5.294892433e-04,7.672761279e-05,6.062168561e-04,5.422379804e-04,-3.725823224e-04,1.696556581e-04,1.131129685e-03,9.410099271e-04,2.072139613e-03,6.614321019e-04,2.089814667e-04,8.704135686e-04,8.538156643e-04,-4.066664282e-04,4.471492361e-04,4.762206279e-04,-3.556790819e-04,1.205415460e-04
-5.4,1.006502756e-04,-7.527963179e-05,2.537064383e-05,2.785437175e-04,-7.917243798e-05,1.993712795e-04,9.218773543e-06,-1.005318743e-05,-8.344138845e-07,4.171249180e-05,1.263486202e-05,5.434735382e-05,-5.034810529e-06,-2.034911339e-05,-2.538392392e-05,2.337922703e-04,2.919425798e-04,5.257348501e-04,3.688022543e-04,-2.913308509e-05,3.396691692e-04,8.943619786e-04,-3.651383428e-04,5.292236358e-04,5.866432139e-05,-3.171856210e-06,5.549246518e-05,5.068075431e-04,-8.270487847e-05,4.241026647e-04,2.402510821e-05,-5.463527386e-05,-3.061016564e-05,-1.596894644e-04,6.250211540e-05,-9.718734900e-05,-5.068197882e-05,-1.276612855e-04,-1.783432644e-04,4.253277225e-05,-1.258525890e-04,-8.331981679e-05,-2.044570443e-04,1.513189290e-04,-5.313811521e-05,2.070482286e-04,-1.649765844e-06,2.053984628e-04,3.213189198e-04,1.212969343e-05,3.334486132e-04,2.031020399e-04,1.333829487e-04,3.364849886e-04,4.740253725e-04,1.786850064e-04,6.527103789e-04,3.468802437e-04,-7.263885770e-05,2.742413860e-04,-5.727707499e-05,-1.151333388e-05,-6.879040886e-05,3.197573007e-04,-4.587610626e-04,-1.390037619e-04,2.216979738e-05,-4.129037902e-05,-1.912058164e-05,6.589180128e-05,-2.195161063e-05,4.394019065e-05,2.794918178e-04,-5.105220627e-04,-2.310302449e-04,4.021309314e-05,-4.716063671e-05,-6.947543565e-06,2.510539975e-04,-1.225985889e-04,1.284554086e-04,2.520820335e-04,-1.768800870e-04,7.520194653e-05,2.171855696e-04,8.711773146e-05,3.043033010e-04,-1.146700500e-04,1.823530788e-05,-9.643474212e-05,5.603607303e-04,7.909524229e-05,6.394559726e-04,5.094969374e-04,-3.699976839e-04,1.394992535e-04,1.087579916e-03,9.668901955e-04,2.054470111e-03,6.826222755e-04,1.878918376e-04,8.705141132e-04,9.016491307e-04,-4.540404859e-04,4.476086448e-04,5.024600295e-04,-3.669063689e-04,1.355536606e-04
-5.3,7.671820559e-05,-7.265647006e-05,4.061735533e-06,2.670644864e-04,-7.433344234e-05,1.927310441e-04,-5.428056579e-07,-6.357688594e-06,-6.900494252e-06,4.486011826e-05,1.749918453e-05,6.235930280e-05,-4.629293692e-06,-1.758420911e-05,-2.221350281e-05,2.308704293e-04,2.804536230e-04,5.113240523e-04,3.653759778e-04,-2.744809370e-05,3.379278841e-04,8.919732582e-04,-3.595995124e-04,5.323737458e-04,7.807361787e-05,-5.037710260e-06,7.303590761e-05,4.879537538e-04,-8.487766567e-05,4.030760881e-04,3.055728848e-05,-5.439156355e-05,-2.383427508e-05,-1.300487972e-04,6.533412632e-05,-6.471467087e-05,-6.092630660e-05,-9.950721514e-05,-1.604335217e-04,6.547692777e-05,-1.331914420e-04,-6.771451420e-05,-1.968780876e-04,1.563429867e-04,-4.053510086e-05,2.517020093e-04,-1.120939414e-05,2.404926152e-04,4.164622711e-04,-2.544110279e-05,3.910211683e-04,2.093121115e-04,1.345536787e-04,3.438657903e-04,4.746320479e-04,1.870582141e-04,6.616902620e-04,3.269499903e-04,-7.997480239e-05,2.469751879e-04,-4.960828330e-05,-9.316952462e-06,-5.892523576e-05,3.808720444e-04,-5.655433162e-04,-1.846712718e-04,2.844303878e-05,-4.026197038e-05,-1.181893160e-05,8.615163185e-05,-4.265657751e-05,4.349505434e-05,2.814230116e-04,-5.002895832e-04,-2.188665716e-04,3.839076921e-05,-4.720040645e-05,-8.809637245e-06,2.755079626e-04,-1.155635836e-04,1.599443790e-04,2.426191464e-04,-1.572065421e-04,8.541260426e-05,2.367270765e-04,8.499197078e-05,3.217190473e-04,-1.487122140e-04,1.947424084e-05,-1.292379731e-04,5.891422868e-04,8.155133101e-05,6.706936178e-04,4.737612558e-04,-3.643726640e-04,1.093885918e-04,1.041385331e-03,9.850909655e-04,2.026476297e-03,7.003173415e-04,1.658936460e-04,8.662109875e-04,9.445571446e-04,-4.986050685e-04,4.459520760e-04,5.245924414e-04,-3.740130912e-04,1.505793502e-04
-5.2,5.274430550e-05,-6.990347627e-05,-1.715917077e-05,2.546228035e-04,-6.928326273e-05,1.853395408e-04,-1.037154621e-05,-2.552441537e-06,-1.292398774e-05,4.763658609e-05,2.239607272e-05,7.003265880e-05,-4.822191531e-06,-1.461511501e-05,-1.943730654e-05,2.285452367e-04,2.663612741e-04,4.949065108e-04,3.604531016e-04,-2.547542636e-05,3.349776752e-04,8.847467712e-04,-3.517881306e-04,5.329586407e-04,9.674785612e-05,-6.882415733e-06,8.986544038e-05,4.667112536e-04,-8.661926053e-05,3.800919931e-04,3.630334562e-05,-5.384218064e-05,-1.753883502e-05,-1.017106635e-04,6.808265373e-05,-3.362800980e-05,-7.143058482e-05,-7.089682953e-05,-1.423274144e-04,8.788317453e-05,-1.402515620e-04,-5.236838752e-05,-1.882786587e-04,1.602471832e-04,-2.803147555e-05,2.951008687e-04,-2.041328186e-05,2.746875869e-04,5.126768307e-04,-6.536200585e-05,4.473148249e-04,2.146491234e-04,1.347279020e-04,3.493770253e-04,4.732460662e-04,1.938655970e-04,6.671116632e-04,3.050413928e-04,-8.687846883e-05,2.181629240e-04,-4.234350347e-05,-7.030639980e-06,-4.937414346e-05,4.376801450e-04,-6.653885010e-04,-2.277083560e-04,3.376161065e-05,-3.901488915e-05,-5.253278493e-06,1.058937614e-04,-6.378326681e-05,4.211049457e-05,2.806159191e-04,-4.859625341e-04,-2.053466150e-04,3.550791335e-05,-4.654507848e-05,-1.103716513e-05,2.979916282e-04,-1.082941865e-04,1.896974416e-04,2.304175774e-04,-1.348563178e-04,9.556125962e-05,2.553075587e-04,8.277775548e-05,3.380853142e-04,-1.826724926e-04,2.091220830e-05,-1.617602843e-04,6.155384817e-04,8.413269225e-05,6.996711740e-04,4.351542724e-04,-3.559247511e-04,7.922952133e-05,9.935177710e-04,9.945953795e-04,1.988113150e-03,7.144172306e-04,1.430285497e-04,8.574457803e-04,9.820361742e-04,-5.401153594e-04,4.419208148e-04,5.424024749e-04,-3.769739665e-04,1.654285084e-04
-5.1,2.871990992e-05,-6.700251658e-05,-3.828260666e-05,2.411752541e-04,-6.400687023e-05,1.771683839e-04,-2.032715092e-05,1.376854548e-06,-1.895029637e-05,4.997671701e-05,2.731800290e-05,7.729471991e-05,-5.656742937e-06,-1.145448002e-05,-1.711122296e-05,2.265407542e-04,2.499490310e-04,4.764897853e-04,3.539518859e-04,-2.322298981e-05,3.307288961e-04,8.727959867e-04,-3.419616940e-04,5.308342927e-04,1.145920197e-04,-8.686922364e-06,1.059050973e-04,4.430496449e-04,-8.788646509e-05,3.551631798e-04,4.122139563e-05,-5.299515590e-05,-1.177376027e-05,-7.469889605e-05,7.072436046e-05,-3.974535588e-06,-8.207034686e-05,-4.206464511e-05,-1.241349920e-04,1.096928879e-04,-1.469435290e-04,-3.725064105e-05,-1.786863316e-04,1.629903976e-04,-1.569593404e-05,3.368922997e-04,-2.904466441e-05,3.078476353e-04,6.095143747e-04,-1.071911607e-04,5.023232140e-04,2.190542044e-04,1.338942809e-04,3.529484853e-04,4.697385950e-04,1.991472786e-04,6.688858736e-04,2.810960111e-04,-9.327449796e-05,1.878215131e-04,-3.552828416e-05,-4.669172497e-06,-4.019745665e-05,4.898106912e-04,-7.573814922e-04,-2.675708010e-04,3.804629021e-05,-3.753657077e-05,5.097194393e-07,1.248000003e-04,-8.511628950e-05,3.968371076e-05,2.770499911e-04,-4.676513899e-04,-1.906013989e-04,3.152780273e-05,-4.511167299e-05,-1.358387026e-05,3.183394655e-04,-1.007644153e-04,2.175750502e-04,2.156403429e-04,-1.100101821e-04,1.056301608e-04,2.728361561e-04,8.049100909e-05,3.533271652e-04,-2.164635441e-04,2.256530113e-05,-1.938982429e-04,6.392611176e-04,8.686867842e-05,7.261297961e-04,3.938173093e-04,-3.448996746e-04,4.891763473e-05,9.449006132e-04,9.945045930e-04,1.939405206e-03,7.248132707e-04,1.193897524e-04,8.442030231e-04,1.013609058e-03,-5.783355603e-04,4.352734973e-04,5.557089135e-04,-3.758037855e-04,1.799051280e-04
-5,4.634672933e-06,-6.393433152e-05,-5.929965859e-05,2.266743830e-04,-5.848865039e-05,1.681857327e-04,-3.046778980e-05,5.442652206e-06,-2.502513760e-05,5.181803246e-05,3.225588188e-05,8.407391434e-05,-7.169309415e-06,-8.117296389e-06,-1.528660580e-05,2.245575233e-04,2.315300123e-04,4.560875356e-04,3.457967366e-04,-2.070143154e-05,3.250953050e-04,8.562683323e-04,-3.303959463e-04,5.258723859e-04,1.315148160e-04,-1.043218906e-05,1.210826269e-04,4.169516028e-04,-8.863762411e-05,3.283139786e-04,4.527811625e-05,-5.186011183e-05,-6.581995583e-06,-4.900837300e-05,7.322857945e-05,2.422020645e-05,-9.273519204e-05,-1.323838358e-05,-1.059735756e-04,1.308443345e-04,-1.531695904e-04,-2.232525592e-05,-1.681446050e-04,1.645476608e-04,-3.596944186e-06,3.767436413e-04,-3.691296316e-05,3.398306782e-04,7.064548778e-04,-1.504237656e-04,5.560311121e-04,2.224752444e-04,1.320532297e-04,3.545284741e-04,4.640035968e-04,2.029616543e-04,6.669652511e-04,2.550668420e-04,-9.908141280e-05,1.559854292e-04,-2.920097239e-05,-2.248164846e-06,-3.144913724e-05,5.369231973e-04,-8.407239809e-04,-3.038007836e-04,4.122998238e-05,-3.581564517e-05,5.414337209e-06,1.425577543e-04,-1.064323963e-04,3.612535798e-05,2.707357690e-04,-4.455085531e-04,-1.747727842e-04,2.642233557e-05,-4.282401675e-05,-1.640168118e-05,3.364007814e-04,-9.293694710e-05,2.434638343e-04,1.984704089e-04,-8.288784150e-05,1.155825674e-04,2.892305016e-04,7.813699814e-05,3.673674997e-04,-2.499914516e-04,2.443813101e-05,-2.255533205e-04,6.600395824e-04,8.977422392e-05,7.498138063e-04,3.499008813e-04,-3.315583393e-04,1.834254207e-05,8.963859308e-04,9.840560312e-04,1.880441962e-03,7.313888584e-04,9.512096068e-05,8.265098191e-04,1.038833671e-03,-6.130426425e-04,4.257910282e-04,5.643723653e-04,-3.705616086e-04,1.938107567e-04
-4.9,-1.952425598e-05,-6.067862284e-05,-8.020287882e-05,2.110673242e-04,-5.271181917e-05,1.583555051e-04,-4.085004533e-05,9.655212307e-06,-3.119483302e-05,5.310075808e-05,3.719874006e-05,9.029949814e-05,-9.389392594e-06,-4.620796824e-06,-1.401018942e-05,2.222785226e-04,2.114410590e-04,4.337195816e-04,3.359179107e-04,-1.792313858e-05,3.179947721e-04,8.353485456e-04,-3.173802379e-04,5.179683077e-04,1.474295408e-04,-1.209925775e-05,1.353302831e-04,3.884135521e-04,-8.883346192e-05,2.995800901e-04,4.844936244e-05,-5.044832177e-05,-1.998959327e-06,-2.460806088e-05,7.555971558e-05,5.095165471e-05,-1.033311850e-04,1.536490478e-05,-8.796628024e-05,1.512742439e-04,-1.588277062e-04,-7.553462343e-06,-1.567123472e-04,1.649101400e-04,8.197792833e-06,4.143444070e-04,-4.385608120e-05,3.704883258e-04,8.029049582e-04,-1.945000863e-04,6.084048720e-04,2.248670996e-04,1.292164757e-04,3.540835753e-04,4.559604803e-04,2.053816088e-04,6.613420891e-04,2.269190678e-04,-1.042115048e-04,1.227075630e-04,-2.339239108e-05,2.159864490e-07,-2.317640463e-05,5.787033283e-04,-9.147375215e-04,-3.360341932e-04,4.325907232e-05,-3.384225639e-05,9.416815925e-06,1.588671439e-04,-1.275052922e-04,3.136185168e-05,2.617067114e-04,-4.197200050e-04,-1.580132936e-04,2.017330332e-05,-3.961485871e-05,-1.944155539e-05,3.520416741e-04,-8.476628302e-05,2.672753911e-04,1.791127851e-04,-5.375148794e-05,1.253612971e-04,3.044179323e-04,7.571108125e-05,3.801290136e-04,-2.831589837e-04,2.652608354e-05,-2.566329002e-04,6.776306512e-04,9.284410806e-05,7.704747593e-04,3.035585668e-04,-3.161665226e-04,-1.260795580e-05,8.487351018e-04,9.626423903e-04,1.811377492e-03,7.340228709e-04,7.041183881e-05,8.044347098e-04,1.057314272e-03,-6.440343763e-04,4.132798953e-04,5.683043328e-04,-3.613587184e-04,2.069456144e-04
-4.8,-4.377206527e-05,-5.721427216e-05,-1.009863374e-04,1.942965644e-04,-4.665825643e-05,1.476383080e-04,-5.152776232e-05,1.402219162e-05,-3.750557070e-05,5.376863815e-05,4.213345214e-05,9.590209029e-05,-1.233813203e-05,-9.843174223e-07,-1.332244945e-05,2.193757336e-04,1.900369246e-04,4.094126582e-04,3.242527019e-04,-1.490137624e-05,3.093513256e-04,8.102603778e-04,-3.032117316e-04,5.070486462e-04,1.622565051e-04,-1.366935875e-05,1.485871464e-04,3.574477376e-04,-8.843804378e-05,2.690096938e-04,5.072177269e-05,-4.877275011e-05,1.949022581e-06,-1.442792921e-06,7.768091911e-05,7.623812619e-05,-1.137791052e-04,4.354108851e-05,-7.023801666e-05,1.709221996e-04,-1.638167176e-04,7.105482017e-06,-1.444612808e-04,1.640848690e-04,1.962358816e-05,4.494104210e-04,-4.974190282e-05,3.996685182e-04,8.982001986e-04,-2.388155840e-04,6.593846146e-04,2.261921867e-04,1.254065494e-04,3.515987361e-04,4.455583457e-04,2.064900410e-04,6.520483867e-04,1.966322306e-04,-1.085714808e-04,8.806074972e-05,-1.812460688e-05,2.706188240e-06,-1.541841864e-05,6.148628193e-04,-9.788656216e-04,-3.640028022e-04,4.409595233e-05,-3.160847114e-05,1.248748119e-05,1.734486039e-04,-1.481102520e-04,2.533835196e-05,2.500136779e-04,-3.904963797e-04,-1.404827017e-04,1.277577895e-05,-3.542787449e-05,-2.265209555e-05,3.651480866e-04,-7.620226933e-05,2.889458173e-04,1.577998822e-04,-2.290947809e-05,1.348904041e-04,3.183369498e-04,7.320015080e-05,3.915371006e-04,-3.158683238e-04,2.881874201e-05,-2.870495818e-04,6.918267593e-04,9.605032902e-05,7.878770883e-04,2.549439889e-04,-2.989871792e-04,-4.404319027e-05,8.026067010e-04,9.298267267e-04,1.732433428e-03,7.325968286e-04,4.548976968e-05,7.780865983e-04,1.068716268e-03,-6.711402438e-04,3.975760245e-04,5.674752278e-04,-3.483659562e-04,2.191092716e-04
-4.7,-6.812496007e-05,-5.351963154e-05,-1.216445916e-04,1.763036418e-04,-4.030917139e-05,1.359944704e-04,-6.254961759e-05,1.854818690e-05,-4.400143069e-05,5.377088015e-05,4.704453983e-05,1.008154200e-04,-1.602508600e-05,2.770878838e-06,-1.325420716e-05,2.155178843e-04,1.676841696e-04,3.832020539e-04,3.107483594e-04,-1.164975543e-05,2.990986040e-04,7.812672494e-04,-2.881897194e-04,4.930775300e-04,1.759268269e-04,-1.512410813e-05,1.608027188e-04,3.240855225e-04,-8.741970703e-05,2.366658155e-04,5.209539148e-05,-4.684814786e-05,5.247243624e-06,2.056725200e-05,7.955801965e-05,1.001252717e-04,-1.240084420e-04,7.109998757e-05,-5.290845447e-05,1.897368576e-04,-1.680414623e-04,2.169539533e-05,-1.314717600e-04,1.620940572e-04,3.062229723e-05,4.816906886e-04,-5.446945804e-05,4.272212306e-04,9.916123546e-04,-2.827328574e-04,7.088794971e-04,2.264220826e-04,1.206560698e-04,3.470781524e-04,4.327817252e-04,2.063754252e-04,6.391571504e-04,1.642043003e-04,-1.120643616e-04,5.213993861e-05,-1.340865132e-05,5.204605620e-06,-8.204045696e-06,6.451448386e-04,-1.032676485e-03,-3.875316467e-04,4.372239793e-05,-2.910878983e-05,1.461360810e-05,1.860503857e-04,-1.680284602e-04,1.802192550e-05,2.357229562e-04,-3.580641678e-04,-1.223412115e-04,4.243447282e-06,-3.021941712e-05,-2.597596984e-05,3.756303446e-04,-6.719403992e-05,3.084363047e-04,1.347977731e-04,9.282714081e-06,1.440804871e-04,3.309390305e-04,7.058395108e-05,4.015229816e-04,-3.480226961e-04,3.130385703e-05,-3.167188391e-04,7.024626413e-04,9.934286958e-05,8.018055108e-04,2.042106589e-04,-2.802750448e-04,-7.606438591e-05,7.585498088e-04,8.853524641e-04,1.643902273e-03,7.270067631e-04,2.060703923e-05,7.476138023e-04,1.072782769e-03,-6.942326710e-04,3.785500984e-04,5.619190451e-04,-3.318162383e-04,2.301028068e-04
-4.6,-9.259810501e-05,-4.957277925e-05,-1.421708843e-04,1.570350085e-04,-3.364643308e-05,1.233885754e-04,-7.395596663e-05,2.323426766e-05,-5.072169897e-05,5.306496003e-05,5.191406348e-05,1.049790235e-04,-2.044410344e-05,6.621781620e-06,-1.382232182e-05,2.103788795e-04,1.447547913e-04,3.551336707e-04,2.953661028e-04,-8.182162939e-06,2.871839399e-04,7.486730980e-04,-2.726113901e-04,4.760617079e-04,1.883865930e-04,-1.644582372e-05,1.719407692e-04,2.883811740e-04,-8.575197762e-05,2.026291963e-04,5.258671670e-05,-4.469126983e-05,7.895446870e-06,4.152884308e-05,8.116258980e-05,1.226914329e-04,-1.339491619e-04,9.786620284e-05,-3.608295904e-05,2.076823637e-04,-1.714168493e-04,3.626551442e-05,-1.178278077e-04,1.589737836e-04,4.114597586e-05,5.109753452e-04,-5.796939152e-05,4.530059537e-04,1.082361703e-03,-3.255943807e-04,7.567673224e-04,2.255402370e-04,1.150064023e-04,3.405466392e-04,4.176567118e-04,2.051279261e-04,6.227846379e-04,1.296572197e-04,-1.145929506e-04,1.506426911e-05,-9.241745048e-06,7.692525741e-06,-1.549219307e-06,6.693328037e-04,-1.075865838e-03,-4.065330342e-04,4.214288319e-05,-2.634069557e-05,1.580218762e-05,1.964550104e-04,-1.870510775e-04,9.403932871e-06,2.189168301e-04,-3.226578733e-04,-1.037410432e-04,-5.385705498e-06,-2.396005695e-05,-2.934576244e-05,3.834287991e-04,-5.769424439e-05,3.257345547e-04,1.104106363e-04,4.242591688e-05,1.528365532e-04,3.421904545e-04,6.783581084e-05,4.100262654e-04,-3.795264500e-04,3.397034552e-05,-3.455561044e-04,7.094207800e-04,1.026522243e-04,8.120730043e-04,1.515138577e-04,-2.602731781e-04,-1.087593204e-04,7.169999590e-04,8.291483322e-04,1.546148291e-03,7.171790707e-04,-3.976007705e-06,7.132030630e-04,1.069348731e-03,-7.132351870e-04,3.561135444e-04,5.517337205e-04,-3.120014827e-04,2.397322378e-04
-4.5,-1.172035612e-04,-4.535177788e-05,-1.625553390e-04,1.364484260e-04,-2.665417801e-05,1.097942480e-04,-8.577598256e-05,2.807750954e-05,-5.769847303e-05,5.161956256e-05,5.672152508e-05,1.083410876e-04,-2.556965944e-05,1.054373982e-05,-1.502591961e-05,2.036462322e-04,1.216195753e-04,3.252658076e-04,2.780849536e-04,-4.513021251e-06,2.735719323e-04,7.128224295e-04,-2.567683141e-04,4.560541154e-04,1.996001606e-04,-1.761788675e-05,1.819822738e-04,2.504151090e-04,-8.341448624e-05,1.670006228e-04,5.223125598e-05,-4.232116349e-05,9.910092489e-06,6.157711640e-05,8.247427494e-05,1.440513913e-04,-1.435242670e-04,1.236804429e-04,-1.984382408e-05,2.247434419e-04,-1.738705559e-04,5.087288599e-05,-1.036125100e-04,1.547720722e-04,5.115956223e-05,5.371021195e-04,-6.020320708e-05,4.768989125e-04,1.169633401e-03,-3.667354518e-04,8.028979495e-04,2.235448564e-04,1.085057995e-04,3.320506559e-04,4.002564109e-04,2.028355728e-04,6.030919837e-04,9.304266767e-05,-1.160645256e-04,-2.302185792e-05,-5.604933105e-06,1.015031935e-05,4.545386245e-06,6.872587568e-04,-1.108257655e-03,-4.209988982e-04,3.938687482e-05,-2.330515774e-05,1.608171709e-05,2.044837635e-04,-2.049826953e-04,-4.989318738e-07,1.996954025e-04,-2.845148783e-04,-8.481947578e-05,-1.604520770e-05,-1.663631634e-05,-3.268152404e-05,3.885202936e-04,-4.766412843e-05,3.408561652e-04,8.498183613e-05,7.608424079e-05,1.610660769e-04,3.520735557e-04,6.492295945e-05,4.169965151e-04,-4.102835013e-04,3.680916818e-05,-3.734743332e-04,7.126357395e-04,1.058917575e-04,8.185274970e-04,9.701400035e-05,-2.392113953e-04,-1.421973949e-04,6.782781760e-04,7.613270835e-04,1.439605260e-03,7.030880547e-04,-2.800959199e-05,6.750784627e-04,1.058348886e-03,-7.281255175e-04,3.302233681e-04,5.370769214e-04,-2.892656911e-04,2.478112304e-04
-4.4,-1.419488115e-04,-4.083510734e-05,-1.827839188e-04,1.145187864e-04,-1.932072695e-05,9.519805940e-05,-9.802593153e-05,3.307054693e-05,-6.495538460e-05,4.941690104e-05,6.144373125e-05,1.108606323e-04,-3.135475647e-05,1.451046925e-05,-1.684428722e-05,1.950292758e-04,9.864095150e-05,2.936702273e-04,2.589042164e-04,-6.575233225e-07,2.582466931e-04,6.740967117e-04,-2.409411722e-04,4.331555394e-04,2.095518055e-04,-1.862503195e-05,1.909267736e-04,2.102957900e-04,-8.039380095e-05,1.299019890e-04,5.108486336e-05,-3.975938737e-05,1.132547599e-05,8.087340683e-05,8.348326545e-05,1.643566723e-04,-1.526448662e-04,1.484010046e-04,-4.243861613e-06,2.409283211e-04,-1.753447620e-04,6.558355911e-05,-8.890458135e-05,1.495466313e-04,6.064204998e-05,5.599597803e-04,-6.116132350e-05,4.987984568e-04,1.252594653e-03,-4.054964098e-04,8.470982436e-04,2.204504978e-04,1.012078468e-04,3.216583446e-04,3.807050704e-04,1.995797946e-04,5.802848650e-04,5.444671100e-05,-1.163959542e-04,-6.194924324e-05,-2.461800356e-06,1.255757391e-05,1.009577355e-05,6.988097210e-04,-1.129802858e-03,-4.309931373e-04,3.550955298e-05,-2.000704625e-05,1.550250673e-05,2.099988297e-04,-2.216436115e-04,-1.164478175e-05,1.781792534e-04,-2.438748910e-04,-6.569563765e-05,-2.763825120e-05,-8.253056242e-06,-3.589130744e-05,3.909247844e-04,-3.707986512e-05,3.538449193e-04,5.889140270e-05,1.097938235e-04,1.686852262e-04,3.605866286e-04,6.180714345e-05,4.223937720e-04,-4.401947662e-04,3.981225257e-05,-4.003825136e-04,7.120966718e-04,1.089595120e-04,8.210561838e-04,4.088130123e-05,-2.173067266e-04,-1.764254254e-04,6.425934787e-04,6.821793670e-04,1.324772846e-03,6.847718269e-04,-5.127220986e-05,6.334996170e-04,1.039817899e-03,-7.389336097e-04,3.008842894e-04,5.181579022e-04,-2.639955472e-04,2.541623550e-04
-4.3,-1.668361746e-04,-3.600235496e-05,-2.028385295e-04,9.124297416e-05,-1.164104447e-05,7.960192970e-05,-1.107089162e-04,3.820120900e-05,-7.250770724e-05,4.645391571e-05,6.605469836e-05,1.125086141e-04,-3.773083082e-05,1.849403645e-05,-1.923679437e-05,1.842667360e-04,7.616566094e-05,2.604323970e-04,2.378441353e-04,3.368415841e-06,2.412125511e-04,6.329053412e-04,-2.253910565e-04,4.075142847e-04,2.182455650e-04,-1.945351334e-05,1.987920516e-04,1.681599415e-04,-7.668407855e-05,9.147586291e-05,4.922359183e-05,-3.703006477e-05,1.219352706e-05,9.959873046e-05,8.419321479e-05,1.837919453e-04,-1.612075939e-04,1.719045803e-04,1.069698634e-05,2.562695735e-04,-1.757977791e-04,8.047179445e-05,-7.377649165e-05,1.433625974e-04,6.958610577e-05,5.794883528e-04,-6.086046456e-05,5.186278882e-04,1.330409436e-03,-4.412328065e-04,8.891766300e-04,2.162873733e-04,9.317104129e-05,3.094584146e-04,3.591798355e-04,1.954306018e-04,5.546104373e-04,1.399261586e-05,-1.155185993e-04,-1.015259834e-04,2.415371623e-07,1.489327219e-05,1.513480935e-05,7.039330707e-04,-1.140577952e-03,-4.366448811e-04,3.059090442e-05,-1.645544060e-05,1.413546382e-05,2.129032056e-04,-2.368706092e-04,-2.396740366e-05,1.545126351e-04,-2.009837429e-04,-4.647110782e-05,-4.003790128e-05,1.163376999e-06,-3.887452428e-05,3.907105298e-04,-2.593906166e-05,3.647714681e-04,3.254966110e-05,1.430728982e-04,1.756225593e-04,3.677418926e-04,5.844624976e-05,4.261881424e-04,-4.691555539e-04,4.297023153e-05,-4.261853223e-04,7.078471026e-04,1.117404171e-04,8.195875197e-04,-1.669887850e-05,-1.947655977e-04,-2.114644762e-04,6.100461968e-04,5.921680434e-04,1.202214240e-03,6.623429192e-04,-7.358504650e-05,5.887578727e-04,1.013883407e-03,-7.457352337e-04,2.681481733e-04,4.952274157e-04,-2.366086368e-04,2.586187789e-04
-4.2,-1.918631644e-04,-3.083501803e-05,-2.226981824e-04,6.664349968e-05,-3.619504469e-06,6.302399521e-05,-1.238159527e-04,4.345232739e-05,-8.036362530e-05,4.274218716e-05,7.052576008e-05,1.132679472e-04,-4.460952417e-05,2.246493535e-05,-2.214458882e-05,1.711329256e-04,5.451806125e-05,2.256509869e-04,2.149449943e-04,7.548454133e-06,2.224934484e-04,5.896723227e-04,-2.103483067e-04,3.793240160e-04,2.257036174e-04,-2.009118141e-05,2.056124360e-04,1.241712149e-04,-7.228751041e-05,5.188370448e-05,4.674221804e-05,-3.415979872e-05,1.258241932e-05,1.179439568e-04,8.462414448e-05,2.025681013e-04,-1.690935575e-04,1.940859351e-04,2.499237757e-05,2.708233315e-04,-1.752060387e-04,9.561729280e-05,-5.829399731e-05,1.362904387e-04,7.799644138e-05,5.956765901e-04,-5.934076016e-05,5.363358300e-04,1.402250853e-03,-4.733239105e-04,9.289269424e-04,2.110984979e-04,8.445963008e-05,2.955581280e-04,3.359088796e-04,1.904422528e-04,5.263511324e-04,-2.815826355e-05,-1.133827104e-04,-1.415409740e-04,2.575262302e-06,1.713590170e-05,1.971116400e-05,7.026416153e-04,-1.140783795e-03,-4.381421794e-04,2.473349487e-05,-1.266380411e-05,1.206969076e-05,2.131389698e-04,-2.505165993e-04,-3.737762954e-05,1.288665444e-04,-1.560996211e-04,-2.723307670e-05,-5.308872591e-05,1.156158894e-05,-4.152713697e-05,3.879965644e-04,-1.426565358e-05,3.737309109e-04,6.386481695e-06,1.754342428e-04,1.818207245e-04,3.735616857e-04,5.479699678e-05,4.283586825e-04,-4.970534090e-04,4.626952035e-05,-4.507838887e-04,6.999817576e-04,1.141096288e-04,8.140913864e-04,-7.552136897e-05,-1.717867467e-04,-2.473081157e-04,5.806305021e-04,4.919246359e-04,1.072555138e-03,6.359911786e-04,-9.482132674e-05,5.411698519e-04,9.807549559e-04,-7.486425970e-04,2.321123588e-04,4.685682094e-04,-2.075397786e-04,2.610284308e-04
-4.1,-2.170236106e-04,-2.531719370e-05,-2.423408043e-04,4.077067531e-05,4.727673700e-06,4.549834901e-05,-1.373279435e-04,4.880175940e-05,-8.852618410e-05,3.830676749e-05,7.482595405e-05,1.131327215e-04,-5.188576854e-05,2.639231115e-05,-2.549345739e-05,1.554423879e-04,3.399449374e-05,1.894368817e-04,1.902653522e-04,1.186613761e-05,2.021314898e-04,5.448213602e-04,-1.960011320e-04,3.488202282e-04,2.319638245e-04,-2.052752049e-05,2.114363041e-04,7.851769713e-05,-6.721455949e-05,1.130313764e-05,4.375184905e-05,-3.117751841e-05,1.257433064e-05,1.360986595e-04,8.481448367e-05,2.209131432e-04,-1.761682983e-04,2.148565185e-04,3.868822027e-05,2.846671565e-04,-1.735659331e-04,1.111012233e-04,-4.251641603e-05,1.284040155e-04,8.588759951e-05,6.085576078e-04,-5.666259851e-05,5.518950093e-04,1.467314269e-03,-5.011821511e-04,9.661321177e-04,2.049356245e-04,7.514517575e-05,2.800808003e-04,3.111653837e-04,1.846502795e-04,4.958156633e-04,-7.180728858e-05,-1.099610360e-04,-1.817683246e-04,4.623719742e-06,1.926356899e-05,2.388728873e-05,6.950192450e-04,-1.130744277e-03,-4.357250316e-04,1.805943880e-05,-8.649991608e-06,9.409447189e-06,2.106848545e-04,-2.624500669e-04,-5.176521235e-05,1.014409158e-04,-1.094999409e-04,-8.059025031e-06,-6.660937567e-05,2.286192856e-05,-4.374744710e-05,3.829524229e-04,-2.111892785e-06,3.808405301e-04,-1.916310073e-05,2.064004842e-04,1.872373835e-04,3.780740217e-04,5.081811390e-05,4.288921356e-04,-5.237662673e-04,4.968912736e-05,-4.740771400e-04,6.886408124e-04,1.159370158e-04,8.045778282e-04,-1.353588355e-04,-1.485630301e-04,-2.839218655e-04,5.542390855e-04,3.822419742e-04,9.364810597e-04,6.059790584e-04,-1.149100820e-04,4.910689764e-04,9.407134410e-04,-7.477945888e-04,1.929188522e-04,4.384869257e-04,-1.772266888e-04,2.612602369e-04
-4,-2.423090821e-04,-1.943607563e-05,-2.617451577e-04,1.370337061e-05,1.337090535e-05,2.707427595e-05,-1.512179349e-04,5.422259324e-05,-9.699534165e-05,3.318445764e-05,7.892259940e-05,1.121070570e-04,-5.944134666e-05,3.024429187e-05,-2.919705480e-05,1.370536229e-04,1.485849793e-05,1.519121209e-04,1.638801457e-04,1.630507691e-05,1.801852226e-04,4.987611178e-04,-1.824848946e-04,3.162762232e-04,2.370772345e-04,-2.075365081e-05,2.163235837e-04,3.140881480e-05,-6.148392487e-05,-3.007511006e-05,4.037715448e-05,-2.811427002e-05,1.226288446e-05,1.542410978e-04,8.482116049e-05,2.390622583e-04,-1.822826616e-04,2.341426690e-04,5.186000738e-05,2.978968611e-04,-1.708945058e-04,1.270023553e-04,-2.649680493e-05,1.197788492e-04,9.328204431e-05,6.182039063e-04,-5.290319887e-05,5.653007075e-04,1.524833970e-03,-5.242654543e-04,1.000568516e-03,1.978547947e-04,6.530826353e-05,2.631630583e-04,2.852577280e-04,1.780708480e-04,4.633285761e-04,-1.167207298e-04,-1.052513133e-04,-2.219720431e-04,6.482695110e-06,2.125426042e-05,2.773695553e-05,6.812288022e-04,-1.110906150e-03,-4.296773481e-04,1.070722174e-05,-4.436111452e-06,6.271110289e-06,2.055541208e-04,-2.725550951e-04,-6.700097428e-05,7.246531841e-05,-6.148713899e-05,1.097817942e-05,-8.039579429e-05,3.495459375e-05,-4.544120053e-05,3.757958305e-04,1.044315145e-05,3.862389819e-04,-4.367389645e-05,2.355205059e-04,1.918466094e-04,3.813089890e-04,4.647332159e-05,4.277823106e-04,-5.491607191e-04,5.319783391e-05,-4.959628852e-04,6.740021902e-04,1.170924945e-04,7.910946847e-04,-1.959627062e-04,-1.252798290e-04,-3.212425352e-04,5.306743880e-04,2.640565226e-04,7.947309106e-04,5.726316431e-04,-1.338354932e-04,4.387961499e-04,8.941043322e-04,-7.433491252e-04,1.507552070e-04,4.053052778e-04,-1.460950100e-04,2.592102678e-04
-3.9,-2.677099709e-04,-1.318233588e-05,-2.808923067e-04,-1.445140331e-05,2.226708987e-05,7.815686555e-06,-1.654529484e-04,5.968347108e-05,-1.057694773e-04,2.742221653e-05,8.278191015e-05,1.102041267e-04,-6.714794080e-05,3.398836614e-05,-3.315957466e-05,1.158725123e-04,-2.663252117e-06,1.132092601e-04,1.358793716e-04,2.084900308e-05,1.567283747e-04,4.518717128e-04,-1.698721991e-04,2.819995137e-04,2.411064235e-04,-2.076228606e-05,2.203441374e-04,-1.692766063e-05,-5.512219168e-05,-7.204985231e-05,3.675386075e-05,-2.500292732e-05,1.175093343e-05,1.725317981e-04,8.471697876e-05,2.572487769e-04,-1.872745663e-04,2.518845437e-04,6.460997735e-05,3.106231261e-04,-1.672284717e-04,1.433946544e-04,-1.028136373e-05,1.104907860e-04,1.002094222e-04,6.247228969e-04,-4.815271913e-05,5.765701777e-04,1.574103679e-03,-5.420915168e-04,1.032012162e-03,1.899121364e-04,5.504000090e-05,2.449521373e-04,2.585175513e-04,1.707025834e-04,4.292201348e-04,-1.626328595e-04,-9.927750492e-05,-2.619103645e-04,8.256770632e-06,2.308621932e-05,3.134298995e-05,6.615217516e-04,-1.081839667e-03,-4.203179155e-04,2.829074598e-06,-4.832491804e-08,2.780749680e-06,1.977934728e-04,-2.807320030e-04,-8.293853015e-05,4.219870763e-05,-1.239232870e-05,2.980637893e-05,-9.422436889e-05,4.769958398e-05,-4.652478490e-05,3.667896018e-04,2.329810721e-05,3.900877090e-04,-6.674235842e-05,2.623838232e-04,1.956414648e-04,3.832971600e-04,4.173359089e-05,4.250307509e-04,-5.730906760e-04,5.675274310e-05,-5.163379329e-04,6.562729466e-04,1.174517796e-04,7.737247261e-04,-2.570666646e-04,-1.021092556e-04,-3.591759202e-04,5.096673806e-04,1.384200440e-04,6.480874246e-04,5.363247165e-04,-1.516340865e-04,3.846906300e-04,8.413354394e-04,-7.354791788e-04,1.058562606e-04,3.693487038e-04,-1.145423084e-04,2.548063953e-04
-3.8,-2.932156725e-04,-6.550446222e-06,-2.997661187e-04,-4.355957742e-05,3.136104360e-05,-1.219853383e-05,-1.799947624e-04,6.514900465e-05,-1.148457578e-04,2.107630369e-05,8.636957586e-05,1.074458796e-04,-7.486883107e-05,3.759179428e-05,-3.727703679e-05,9.185544188e-05,-1.838390693e-05,7.347153495e-05,1.063680290e-04,2.548173689e-05,1.318497659e-04,4.044948692e-04,-1.581661109e-04,2.463287583e-04,2.441253282e-04,-2.054768464e-05,2.235776435e-04,-6.624780223e-05,-4.816328899e-05,-1.144110912e-04,3.302707807e-05,-2.187785581e-05,1.114922226e-05,1.911125359e-04,8.458561869e-05,2.756981545e-04,-1.909711385e-04,2.680363326e-04,7.706519407e-05,3.229690136e-04,-1.626218950e-04,1.603471186e-04,6.092272417e-06,1.006151470e-04,1.067074195e-04,6.282537057e-04,-4.250961695e-05,5.857440888e-04,1.614500001e-03,-5.542516916e-04,1.060248310e-03,1.811609689e-04,4.444295474e-05,2.256039237e-04,2.312887641e-04,1.625294854e-04,3.938182495e-04,-2.092491899e-04,-9.209012288e-05,-3.013393128e-04,1.005747970e-05,2.473823346e-05,3.479571316e-05,6.362465154e-04,-1.044236985e-03,-4.079904697e-04,-5.410645227e-06,4.483334661e-06,-9.273105652e-07,1.874831954e-04,-2.868981688e-04,-9.941497344e-05,1.093017398e-05,3.742260898e-05,4.835278297e-05,-1.078538989e-04,6.092825852e-05,-4.692564033e-05,3.562394349e-04,3.633501857e-05,3.925744535e-04,-8.799320700e-05,2.866310230e-04,1.986378160e-04,3.840705462e-04,3.657831396e-05,4.206488602e-04,-5.953970189e-04,6.029995030e-05,-5.350970686e-04,6.356813120e-04,1.169020394e-04,7.525833514e-04,-3.183902949e-04,-7.920214085e-05,-3.975924358e-04,4.909000848e-04,6.465763657e-06,4.973658485e-04,4.974737636e-04,-1.683914486e-04,3.290823151e-04,7.828786202e-04,-7.243733280e-04,5.850529221e-05,3.309352524e-04,-8.292321170e-05,2.480120407e-04
-3.7,-3.188137223e-04,4.611406141e-07,-3.183525817e-04,-7.346105071e-05,4.058821753e-05,-3.287283319e-05,-1.947994535e-04,7.058030020e-05,-1.242191533e-04,1.421243726e-05,8.965132836e-05,1.038637656e-04,-8.245904943e-05,4.102205464e-05,-4.143699478e-05,6.501172999e-05,-3.215787267e-05,3.285385732e-05,7.546753270e-05,3.018700648e-05,1.056545392e-04,3.569305094e-04,-1.473001420e-04,2.096303674e-04,2.462204852e-04,-2.010567170e-05,2.261148135e-04,-1.162926896e-04,-4.064797580e-05,-1.569406654e-04,2.935059223e-05,-1.877462990e-05,1.057596233e-05,2.101109699e-04,8.451522352e-05,2.946261934e-04,-1.931901188e-04,2.825670366e-04,8.937691786e-05,3.350686857e-04,-1.571431652e-04,1.779255205e-04,2.259764127e-05,9.022610045e-05,1.128237417e-04,6.289656198e-04,-3.607546531e-05,5.928901545e-04,1.645507422e-03,-5.604230116e-04,1.085084410e-03,1.716512758e-04,3.363111071e-05,2.052823865e-04,2.039201158e-04,1.535235152e-04,3.574436310e-04,-2.562493637e-04,-8.376617412e-05,-3.400155379e-04,1.200250976e-05,2.618970501e-05,3.819221477e-05,6.058526488e-04,-9.989059777e-04,-3.930533289e-04,-1.383622280e-05,9.125099863e-06,-4.711122936e-06,1.747379918e-04,-2.909888352e-04,-1.162508434e-04,-2.101804306e-05,8.756384313e-05,6.654580007e-05,-1.210259699e-04,7.444600861e-05,-4.657996129e-05,3.444932031e-04,4.942413103e-05,3.939173341e-04,-1.070818455e-04,3.079605524e-04,2.008787069e-04,3.836656487e-04,3.099533667e-05,4.146609853e-04,-6.159083881e-04,6.377688456e-05,-5.521315035e-04,6.124708841e-04,1.153467155e-04,7.278175997e-04,-3.796405552e-04,-5.668115245e-05,-4.363217076e-04,4.740259303e-04,-1.306230367e-04,3.434028936e-04,4.565251726e-04,-1.842380174e-04,2.722871552e-04,7.192744505e-04,-7.102404137e-04,9.034036801e-06,2.903701591e-04,-5.153970676e-05,2.388304523e-04
-3.6,-3.444882905e-04,7.850051328e-06,-3.366382392e-04,-1.039702635e-04,4.987801048e-05,-5.409225303e-05,-2.098161412e-04,7.593559871e-05,-1.338805425e-04,6.906772882e-06,9.259347991e-05,9.950025279e-05,-8.976468150e-05,4.424727603e-05,-4.551740547e-05,3.540493789e-05,-4.388078491e-05,-8.475847019e-06,4.331792135e-05,3.494807647e-05,7.826599782e-05,3.094394863e-04,-1.371457661e-04,1.722937202e-04,2.474927526e-04,-1.943376503e-05,2.280589876e-04,-1.667890816e-04,-3.262345856e-05,-1.994125401e-04,2.588662226e-05,-1.572985822e-05,1.015676405e-05,2.296491921e-04,8.459097645e-05,3.142401685e-04,-1.937402545e-04,2.954608572e-04,1.017206028e-04,3.470662991e-04,-1.508715018e-04,1.961947972e-04,3.922212903e-05,7.939587789e-05,1.186180069e-04,6.270575820e-04,-2.894988517e-05,5.981076969e-04,1.666741658e-03,-5.603774359e-04,1.106364222e-03,1.614315796e-04,2.272864879e-05,1.841602284e-04,1.767611850e-04,1.436469137e-04,3.204080987e-04,-3.032899847e-04,-7.440895009e-05,-3.776989348e-04,1.421547179e-05,2.742060827e-05,4.163608006e-05,5.708894739e-04,-9.467587636e-04,-3.758692897e-04,-2.226126739e-05,1.383959379e-05,-8.421673599e-06,1.597074903e-04,-2.929581198e-04,-1.332506295e-04,-5.328617416e-05,1.376060661e-04,8.431989196e-05,-1.334649446e-04,8.803596610e-05,-4.542897846e-05,3.319399324e-04,6.242680302e-05,3.943667355e-04,-1.236947594e-04,3.261324507e-04,2.024376913e-04,3.821273079e-04,2.498017873e-05,4.071074867e-04,-6.344429291e-04,6.711502150e-05,-5.673279076e-04,5.868974720e-04,1.127085730e-04,6.996060450e-04,-4.405106234e-04,-3.463749284e-05,-4.751481162e-04,4.586833377e-04,-2.716340974e-04,1.870492404e-04,4.139492551e-04,-1.993422910e-04,2.146069641e-04,6.511387543e-04,-6.933166457e-04,-4.217789141e-05,2.479486830e-04,-2.063878299e-05,2.273099000e-04
-3.5,-3.702186957e-04,1.561025739e-05,-3.546084383e-04,-1.348767224e-04,5.915706018e-05,-7.571966220e-05,-2.249857514e-04,8.117101004e-05,-1.438147414e-04,-7.529121107e-07,9.516337972e-05,9.441046761e-05,-9.662247228e-05,4.723658091e-05,-4.938589137e-05,3.152628421e-06,-5.348839622e-05,-5.033576780e-05,1.007969647e-05,3.974729346e-05,4.982698993e-05,2.622488457e-04,-1.275243787e-04,1.347244669e-04,2.480583637e-04,-1.853134467e-05,2.295270190e-04,-2.174504963e-04,-2.414305729e-05,-2.415935536e-04,2.280523799e-05,-1.278105067e-05,1.002418732e-05,2.498532329e-04,8.488674223e-05,3.347399751e-04,-1.924219616e-04,3.067170387e-04,1.142950772e-04,3.591137676e-04,-1.438929636e-04,2.152208040e-04,5.596866946e-05,6.819381150e-05,1.241624810e-04,6.227572187e-04,-2.122613048e-05,6.015310882e-04,1.677966655e-03,-5.539875094e-04,1.123979145e-03,1.505523317e-04,1.186750022e-05,1.624198319e-04,1.501593330e-04,1.328554536e-04,2.830147866e-04,-3.500080772e-04,-6.414759834e-05,-4.141556755e-04,1.682542264e-05,2.841150942e-05,4.523693206e-05,5.319990481e-04,-8.887949012e-04,-3.567958531e-04,-3.049017117e-05,1.858597476e-05,-1.190419641e-05,1.425754103e-04,-2.927804543e-04,-1.502050440e-04,-8.547343110e-05,1.870957070e-04,1.016222759e-04,-1.448795075e-04,1.014638966e-04,-4.341561085e-05,3.190055929e-04,7.519714774e-05,3.942027406e-04,-1.375494792e-04,3.409688256e-04,2.034193465e-04,3.795121474e-04,1.853480360e-05,3.980469510e-04,-6.508108072e-04,7.024205403e-05,-5.805687532e-04,5.592277352e-04,1.089307362e-04,6.681584715e-04,-5.006774371e-04,-1.313168849e-05,-5.138091256e-04,4.445002137e-04,-4.153327413e-04,2.916747238e-05,3.702338521e-04,-2.139006067e-04,1.563332454e-04,5.791688514e-04,-6.738727376e-04,-9.470388616e-05,2.039651603e-04,9.583641505e-06,2.135488018e-04
