Time,S1D1HbO,S1D1HbR,S1D1HbT,S2D2HbO,S2D2HbR,S2D2HbT,S3D3HbO,S3D3HbR,S3D3HbT,S4D4HbO,S4D4HbR,S4D4HbT,S5D5HbO,S5D5HbR,S5D5HbT,S6D6HbO,S6D6HbR,S6D6HbT,S7D7HbO,S7D7HbR,S7D7HbT,S8D8HbO,S8D8HbR,S8D8HbT,S9D9HbO,S9D9HbR,S9D9HbT,S10D10HbO,S10D10HbR,S10D10HbT,S11D11HbO,S11D11HbR,S11D11HbT,S12D12HbO,S12D12HbR,S12D12HbT,S13D13HbO,S13D13HbR,S13D13HbT,S14D14HbO,S14D14HbR,S14D14HbT,S15D15HbO,S15D15HbR,S15D15HbT,S16D16HbO,S16D16HbR,S16D16HbT,S17D17HbO,S17D17HbR,S17D17HbT,S18D18HbO,S18D18HbR,S18D18HbT,S19D19HbO,S19D19HbR,S19D19HbT,S20D20HbO,S20D20HbR,S20D20HbT,S21D21HbO,S21D21HbR,S21D21HbT,S22D22HbO,S22D22HbR,S22D22HbT,S23D23HbO,S23D23HbR,S23D23HbT,S24D24HbO,S24D24HbR,S24D24HbT,S25D25HbO,S25D25HbR,S25D25HbT,S26D26HbO,S26D26HbR,S26D26HbT,S27D27HbO,S27D27HbR,S27D27HbT,S28D28HbO,S28D28HbR,S28D28HbT,S29D29HbO,S29D29HbR,S29D29HbT,S30D30HbO,S30D30HbR,S30D30HbT,S31D31HbO,S31D31HbR,S31D31HbT,S32D32HbO,S32D32HbR,S32D32HbT,S33D33HbO,S33D33HbR,S33D33HbT,S34D34HbO,S34D34HbR,S34D34HbT,S35D35HbO,S35D35HbR,S35D35HbT,S36D36HbO,S36D36HbR,S36D36HbT,
-10,1.223421655e-03,-4.348685468e-04,7.885531080e-04,3.498388481e-04,-4.380603947e-04,-8.822154666e-05,5.496046153e-04,-5.914707453e-04,-4.186613004e-05,1.033546198e-04,-4.463217373e-04,-3.429671175e-04,-6.112456331e-04,-1.215781128e-04,-7.328237458e-04,6.189166183e-05,-4.892185372e-04,-4.273268754e-04,-2.069658011e-04,-3.724038326e-05,-2.442061843e-04,1.928006022e-04,-3.580874999e-04,-1.652868978e-04,7.960148296e-05,-1.940708158e-04,-1.144693328e-04,3.800308043e-04,-2.366399356e-04,1.433908688e-04,3.910902194e-04,-6.509339709e-04,-2.598437515e-04,-1.658764105e-04,-6.131469879e-04,-7.790233984e-04,4.879646917e-04,-6.511129267e-04,-1.631482350e-04,-7.926669802e-04,-4.427287344e-04,-1.235395715e-03,3.243670813e-04,-5.259917752e-04,-2.016246939e-04,9.344016845e-04,-7.690161797e-04,1.653855048e-04,-4.830186103e-04,5.804979046e-05,-4.249688198e-04,6.735483344e-04,-3.919063025e-04,2.816420319e-04,-3.806996801e-05,2.204242533e-05,-1.602754268e-05,2.758065576e-04,-3.570824881e-04,-8.127593048e-05,8.427722855e-04,-6.035632153e-04,2.392090702e-04,3.437179444e-04,-8.858048641e-04,-5.420869197e-04,8.872159385e-04,-7.100346374e-04,1.771813011e-04,8.854945403e-04,-9.644386085e-04,-7.894406816e-05,-4.802203581e-04,-3.792679652e-04,-8.594883233e-04,-2.498096444e-06,-5.358970636e-04,-5.383951600e-04,-3.754496958e-04,-3.161799581e-04,-6.916296539e-04,7.871993824e-04,-7.827443110e-04,4.455071373e-06,3.574342968e-04,-4.285239575e-04,-7.108966074e-05,6.053496960e-04,-6.691406479e-04,-6.379095193e-05,1.585009281e-04,-3.121334557e-04,-1.536325276e-04,-3.037409342e-04,1.547461919e-04,-1.489947422e-04,-1.943001199e-04,-1.895939497e-04,-3.838940696e-04,-1.644807545e-04,-2.847896376e-04,-4.492703921e-04,-3.637817314e-04,5.039624036e-04,1.401806721e-04,-1.447141563e-03,1.414638616e-06,-1.445726924e-03
-9.9,1.193416122e-03,-4.179160108e-04,7.755001112e-04,2.626497887e-04,-4.379835372e-04,-1.753337485e-04,4.912293976e-04,-5.802298593e-04,-8.900046172e-05,-4.846774717e-06,-4.375753011e-04,-4.424220758e-04,-6.759300941e-04,-1.064577068e-04,-7.823878009e-04,-5.946075893e-05,-4.833667963e-04,-5.428275552e-04,-2.904277860e-04,-2.861199250e-05,-3.190397785e-04,1.034949955e-04,-3.479946839e-04,-2.444996883e-04,1.378633014e-05,-1.897121293e-04,-1.759257992e-04,2.847580458e-04,-2.280720717e-04,5.668597403e-05,3.241322421e-04,-6.366501936e-04,-3.125179514e-04,-2.349404107e-04,-6.004857391e-04,-8.354261498e-04,5.040234764e-04,-7.111399990e-04,-2.071165227e-04,-8.567723455e-04,-4.367095448e-04,-1.293481890e-03,2.370277682e-04,-5.162285846e-04,-2.792008164e-04,8.355280839e-04,-7.555277000e-04,8.000038386e-05,-5.490044821e-04,8.410077181e-05,-4.649037103e-04,5.458988627e-04,-3.987931723e-04,1.471056904e-04,-1.854912967e-04,4.469334406e-05,-1.407979526e-04,1.849552952e-04,-3.468262746e-04,-1.618709794e-04,7.631143559e-04,-5.914669319e-04,1.716474240e-04,2.593692655e-04,-8.766100753e-04,-6.172408099e-04,8.302574079e-04,-7.000201437e-04,1.302372641e-04,8.048887002e-04,-9.509284850e-04,-1.460397848e-04,-5.316007112e-04,-3.599638007e-04,-8.915645119e-04,-6.142220611e-05,-5.111689197e-04,-5.725911259e-04,-4.615270791e-04,-2.924418725e-04,-7.539689517e-04,7.224500731e-04,-7.854710288e-04,-6.302095565e-05,2.496964064e-04,-4.220611204e-04,-1.723647141e-04,4.881731578e-04,-6.500043002e-04,-1.618311424e-04,5.342144294e-05,-3.107394615e-04,-2.573180185e-04,-3.886384799e-04,1.533944422e-04,-2.352440377e-04,-3.347235835e-04,-1.547807732e-04,-4.895043566e-04,-3.213096884e-04,-2.576000630e-04,-5.789097514e-04,-4.870766323e-04,5.295520911e-04,4.247545878e-05,-1.581082211e-03,-2.277232517e-05,-1.603854536e-03
-9.8,1.164562698e-03,-4.007789070e-04,7.637837914e-04,1.747685141e-04,-4.384411245e-04,-2.636726105e-04,4.355489765e-04,-5.686003308e-04,-1.330513543e-04,-1.115482034e-04,-4.298450614e-04,-5.413932647e-04,-7.382989954e-04,-9.129390409e-05,-8.295928994e-04,-1.816643795e-04,-4.781322941e-04,-6.597966736e-04,-3.728781466e-04,-1.995254668e-05,-3.928306933e-04,1.163464787e-05,-3.370987464e-04,-3.254640985e-04,-5.183854643e-05,-1.850161241e-04,-2.368546705e-04,1.878193315e-04,-2.194751843e-04,-3.165585281e-05,2.587521382e-04,-6.219649848e-04,-3.632128466e-04,-3.042886043e-04,-5.886366237e-04,-8.929252281e-04,5.154888010e-04,-7.675770713e-04,-2.520882703e-04,-9.208411988e-04,-4.305946901e-04,-1.351435889e-03,1.468021896e-04,-5.057605049e-04,-3.589583153e-04,7.326258062e-04,-7.408600555e-04,-8.234249333e-06,-6.169028637e-04,1.074654115e-04,-5.094374522e-04,4.177801391e-04,-4.056595608e-04,1.212057837e-05,-3.330526996e-04,6.705283260e-05,-2.659998670e-04,9.286277927e-05,-3.361812964e-04,-2.433185171e-04,6.843086516e-04,-5.788715772e-04,1.054370744e-04,1.747396715e-04,-8.668426426e-04,-6.921029711e-04,7.749733317e-04,-6.894489967e-04,8.552433498e-05,7.233474878e-04,-9.368098081e-04,-2.134623203e-04,-5.820269485e-04,-3.412665260e-04,-9.232934745e-04,-1.198076526e-04,-4.868210759e-04,-6.066287284e-04,-5.473958182e-04,-2.692156238e-04,-8.166114420e-04,6.514338316e-04,-7.845979014e-04,-1.331640697e-04,1.403043485e-04,-4.161326727e-04,-2.758283242e-04,3.691972707e-04,-6.291096731e-04,-2.599124023e-04,-5.416697546e-05,-3.093934945e-04,-3.635604700e-04,-4.707446842e-04,1.485203359e-04,-3.222243484e-04,-4.830772040e-04,-1.184495728e-04,-6.015267768e-04,-4.797229832e-04,-2.289982647e-04,-7.087212479e-04,-6.176286002e-04,5.571582208e-04,-6.047037940e-05,-1.707199147e-03,-4.629473436e-05,-1.753493881e-03
-9.7,1.137112451e-03,-3.834860608e-04,7.536263902e-04,8.665425146e-05,-4.393764760e-04,-3.527222246e-04,3.828099759e-04,-5.565987838e-04,-1.737888079e-04,-2.163512038e-04,-4.230682633e-04,-6.394194671e-04,-7.980708539e-04,-7.615352929e-05,-8.742243832e-04,-3.041096029e-04,-4.734956880e-04,-7.776052910e-04,-4.537590188e-04,-1.134071601e-05,-4.650997348e-04,-8.225088820e-05,-3.254736645e-04,-4.077245527e-04,-1.168877100e-04,-1.800179135e-04,-2.969056235e-04,8.972851924e-05,-2.108753771e-04,-1.211468579e-04,1.951917484e-04,-6.069225696e-04,-4.117308212e-04,-3.734420282e-04,-5.775438917e-04,-9.509859199e-04,5.222220701e-04,-8.199377726e-04,-2.977157025e-04,-9.845332165e-04,-4.243659697e-04,-1.408899186e-03,5.420455752e-05,-4.946889077e-04,-4.404843501e-04,6.259714534e-04,-7.250700115e-04,-9.909855814e-05,-6.862769904e-04,1.278268666e-04,-5.584501238e-04,2.900274952e-04,-4.124794616e-04,-1.224519665e-04,-4.799053816e-04,8.901290710e-05,-3.908924745e-04,-4.540314181e-08,-3.251766054e-04,-3.252220085e-04,6.066348810e-04,-5.657678054e-04,4.086707557e-05,9.014335688e-05,-8.564714996e-04,-7.663281428e-04,7.214137088e-04,-6.783146748e-04,4.309903393e-05,6.410634309e-04,-9.220259349e-04,-2.809625040e-04,-6.312990978e-04,-3.232148564e-04,-9.545139543e-04,-1.774289863e-04,-4.629312859e-04,-6.403602722e-04,-6.325738812e-04,-2.465717615e-04,-8.791456427e-04,5.742469158e-04,-7.799810573e-04,-2.057341415e-04,2.978021440e-05,-4.107037323e-04,-3.809235179e-04,2.490814191e-04,-6.065219741e-04,-3.574405550e-04,-1.637220883e-04,-3.079964405e-04,-4.717185287e-04,-5.496658696e-04,1.401562683e-04,-4.095096013e-04,-6.383296014e-04,-8.066766865e-05,-7.189972701e-04,-6.383278025e-04,-1.993057329e-04,-8.376335354e-04,-7.537894406e-04,5.855799587e-04,-1.682094819e-04,-1.824602373e-03,-6.905311189e-05,-1.893655485e-03
-9.6,1.111293590e-03,-3.660717514e-04,7.452218388e-04,-1.234511029e-06,-4.407304482e-04,-4.419649592e-04,3.332317665e-04,-5.442429049e-04,-2.110111385e-04,-3.188809860e-04,-4.171728445e-04,-7.360538304e-04,-8.549899915e-04,-6.109865113e-05,-9.160886426e-04,-4.261881070e-04,-4.694335299e-04,-8.956216369e-04,-5.325269679e-04,-2.854764287e-06,-5.353817322e-04,-1.776222847e-04,-3.131976955e-04,-4.908199802e-04,-1.809842703e-04,-1.747535665e-04,-3.557378368e-04,-8.995259505e-06,-2.022996757e-04,-2.112949352e-04,1.336699882e-04,-5.915640673e-04,-4.578940792e-04,-4.419468627e-04,-5.671184405e-04,-1.009065303e-03,5.241821989e-04,-8.678154128e-04,-3.436332139e-04,-1.047508630e-03,-4.180080782e-04,-1.465516708e-03,-4.021791793e-05,-4.831367692e-04,-5.233546871e-04,5.158729970e-04,-7.082221635e-04,-1.923491664e-04,-7.566683285e-04,1.448974053e-04,-6.117709232e-04,1.634604407e-04,-4.192137609e-04,-2.557533202e-04,-6.251926290e-04,1.104636807e-04,-5.147289482e-04,-9.333995996e-05,-3.138447457e-04,-4.071847057e-04,5.303513854e-04,-5.521473462e-04,-2.179596077e-05,5.882848318e-06,-8.454668407e-04,-8.395839924e-04,6.696044726e-04,-6.666103709e-04,2.994101687e-06,5.582235215e-04,-9.065261878e-04,-3.483026663e-04,-6.792206227e-04,-3.058438288e-04,-9.850644514e-04,-2.340699962e-04,-4.395664002e-04,-6.736363964e-04,-7.165794854e-04,-2.245781923e-04,-9.411576776e-04,4.911024663e-04,-7.715701946e-04,-2.804677283e-04,-8.134959227e-05,-4.057343963e-04,-4.870839886e-04,1.285005977e-04,-5.823272676e-04,-4.538266698e-04,-2.746754624e-04,-3.064608200e-04,-5.811362824e-04,-6.250887683e-04,1.284230155e-04,-4.966657528e-04,-7.993065931e-04,-4.155779830e-05,-8.408643914e-04,-7.956541839e-04,-1.689030647e-04,-9.645572486e-04,-8.938053443e-04,6.135862736e-04,-2.802190707e-04,-1.932534821e-03,-9.093383065e-05,-2.023468651e-03
-9.5,1.087309485e-03,-3.485759033e-04,7.387335817e-04,-8.844280875e-05,-4.424424403e-04,-5.308852491e-04,2.870054890e-04,-5.315518754e-04,-2.445463864e-04,-4.187875498e-04,-4.120787725e-04,-8.308663223e-04,-9.088278837e-04,-4.618683549e-05,-9.550147192e-04,-5.472960077e-04,-4.659185039e-04,-1.013214512e-03,-6.086566829e-04,5.427874698e-06,-6.032288082e-04,-2.739347545e-04,-3.003526681e-04,-5.742874226e-04,-2.437632770e-04,-1.692598766e-04,-4.130231536e-04,-1.078312053e-04,-1.937760244e-04,-3.016072297e-04,7.438090384e-05,-5.759277260e-04,-5.015468222e-04,-5.093803030e-04,-5.572419491e-04,-1.066622252e-03,5.214108226e-04,-9.108812266e-04,-3.894704040e-04,-1.109432582e-03,-4.115088724e-04,-1.520941454e-03,-1.358929777e-04,-4.712440476e-04,-6.071370252e-04,4.026667066e-04,-6.903821684e-04,-2.877154618e-04,-8.276018134e-04,1.584331664e-04,-6.691686470e-04,3.887335634e-05,-4.258061338e-04,-3.869327774e-04,-7.680529393e-04,1.312958216e-04,-6.367571177e-04,-1.865909356e-04,-3.022217974e-04,-4.888127330e-04,4.556940934e-04,-5.380034266e-04,-8.230933313e-05,-7.775203870e-05,-8.338010218e-04,-9.115530605e-04,6.195475567e-04,-6.543294865e-04,-3.478192977e-05,4.750087604e-04,-8.902668478e-04,-4.152580874e-04,-7.256015087e-04,-2.891830562e-04,-1.014784565e-03,-2.895258066e-04,-4.167820649e-04,-7.063078715e-04,-7.989394876e-04,-2.032959148e-04,-1.002235402e-03,4.023416728e-04,-7.594143704e-04,-3.570726976e-04,-1.925603174e-04,-4.011800403e-04,-5.937403577e-04,8.138225600e-06,-5.566303219e-04,-5.484920963e-04,-3.864376893e-04,-3.047156386e-04,-6.911533279e-04,-6.967835280e-04,1.135269630e-04,-5.832565650e-04,-9.647016778e-04,-1.303625005e-06,-9.660053028e-04,-9.501836459e-04,-1.382199508e-04,-1.088403597e-03,-1.035852072e-03,6.399517052e-04,-3.959003665e-04,-2.030376022e-03,-1.118071502e-04,-2.142183173e-03
-9.4,1.065335873e-03,-3.310441252e-04,7.342917481e-04,-1.745224098e-04,-4.444512415e-04,-6.189736513e-04,2.442922248e-04,-5.185467947e-04,-2.742545699e-04,-5.157474049e-04,-4.076994399e-04,-9.234468448e-04,-9.593856098e-04,-3.147140939e-05,-9.908570192e-04,-6.668373464e-04,-4.629195425e-04,-1.129756889e-03,-6.816451461e-04,1.343109805e-05,-6.682140480e-04,-3.706427125e-04,-2.870231556e-04,-6.576658681e-04,-3.048755209e-04,-1.635741404e-04,-4.684496614e-04,-2.062610742e-04,-1.853332470e-04,-3.915943212e-04,1.749139925e-05,-5.600491624e-04,-5.425577632e-04,-5.753571775e-04,-5.477709860e-04,-1.123128163e-03,5.140044611e-04,-9.488749364e-04,-4.348704753e-04,-1.169980737e-03,-4.048597844e-04,-1.574840521e-03,-2.322338253e-04,-4.591625807e-04,-6.913964060e-04,2.867105251e-04,-6.716078396e-04,-3.848973145e-04,-8.985916380e-04,1.682484318e-04,-7.303432062e-04,-8.297314569e-05,-4.321805604e-04,-5.151537061e-04,-9.076240578e-04,1.514029679e-04,-7.562210900e-04,-2.793713190e-04,-2.903474341e-04,-5.697187530e-04,3.828753384e-04,-5.233312571e-04,-1.404559187e-04,-1.604855634e-04,-8.214494832e-04,-9.819350466e-04,5.712207861e-04,-6.414660810e-04,-7.024529494e-05,3.915933661e-04,-8.732119510e-04,-4.816185849e-04,-7.702618835e-04,-2.732563181e-04,-1.043518202e-03,-3.436058833e-04,-3.946225611e-04,-7.382284444e-04,-8.791972103e-04,-1.827773008e-04,-1.061974511e-03,3.084348370e-04,-7.436590132e-04,-4.352241762e-04,-3.033355893e-04,-3.969911938e-04,-7.003267832e-04,-1.113219457e-04,-5.295519791e-04,-6.408739248e-04,-4.984029919e-04,-3.027112567e-04,-8.011142485e-04,-7.646022202e-04,9.575343632e-05,-6.688487838e-04,-1.133094265e-03,3.984956814e-05,-1.093244697e-03,-1.100378629e-03,-1.077237468e-04,-1.208102376e-03,-1.178071999e-03,6.634883182e-04,-5.145836806e-04,-2.117637090e-03,-1.315293209e-04,-2.249166411e-03
-9.3,1.045517709e-03,-3.135276176e-04,7.319900915e-04,-2.590352302e-04,-4.466957188e-04,-7.057309489e-04,2.052210363e-04,-5.052510256e-04,-3.000299893e-04,-6.094652802e-04,-4.039431710e-04,-1.013408451e-03,-1.006496278e-03,-1.700166636e-05,-1.023497945e-03,-7.842276675e-04,-4.604018915e-04,-1.244629559e-03,-7.510157107e-04,2.108070660e-05,-7.299350041e-04,-4.672043825e-04,-2.732955843e-04,-7.404999668e-04,-3.639910399e-04,-1.577339216e-04,-5.217249615e-04,-3.037734126e-04,-1.770009614e-04,-4.807743740e-04,-3.686070741e-05,-5.439615742e-04,-5.808222816e-04,-6.395357843e-04,-5.385410934e-04,-1.178076878e-03,5.020811699e-04,-9.815888508e-04,-4.795076808e-04,-1.228844298e-03,-3.980563522e-04,-1.626900650e-03,-3.286514312e-04,-4.470498543e-04,-7.757012855e-04,1.683750494e-04,-6.519394910e-04,-4.835644417e-04,-9.691469433e-04,1.742274915e-04,-7.949194518e-04,-2.013597862e-04,-4.382405136e-04,-6.396002997e-04,-1.043047517e-03,1.706835518e-04,-8.723639654e-04,-3.712606778e-04,-2.782648209e-04,-6.495254987e-04,3.120829147e-04,-5.081284283e-04,-1.960455135e-04,-2.420573919e-04,-8.083915142e-04,-1.050448906e-03,5.245781111e-04,-6.280152422e-04,-1.034371311e-04,3.081440895e-04,-8.553338666e-04,-5.471897771e-04,-8.130351778e-04,-2.580823624e-04,-1.071117540e-03,-3.961375381e-04,-3.731203239e-04,-7.692578620e-04,-9.569181419e-04,-1.630676407e-04,-1.119985783e-03,2.099718267e-04,-7.245344236e-04,-5.145625969e-04,-4.131734439e-04,-3.931132250e-04,-8.062866689e-04,-2.292035189e-04,-5.012264642e-04,-7.304299831e-04,-6.099549466e-04,-3.004219994e-04,-9.103769460e-04,-8.284721875e-04,7.545681026e-05,-7.530153773e-04,-1.302980993e-03,8.160206930e-05,-1.221378924e-03,-1.244712853e-03,-7.790547789e-05,-1.322618331e-03,-1.318607677e-03,6.830712025e-04,-6.355364742e-04,-2.193950183e-03,-1.499452616e-04,-2.343895444e-03
-9.2,1.027966332e-03,-2.960830050e-04,7.318833268e-04,-3.415566253e-04,-4.491154065e-04,-7.906720318e-04,1.698877461e-04,-4.916904220e-04,-3.218026759e-04,-6.996751132e-04,-4.007148601e-04,-1.100389973e-03,-1.050026165e-03,-2.823002292e-06,-1.052849167e-03,-8.988973976e-04,-4.583271514e-04,-1.357224549e-03,-8.163214442e-04,2.830504265e-05,-7.880164015e-04,-5.630858714e-04,-2.592573477e-04,-8.223432190e-04,-4.208016287e-04,-1.517767593e-04,-5.725783880e-04,-3.998671383e-04,-1.688094227e-04,-5.686765610e-04,-8.856762053e-05,-5.276958957e-04,-6.162635162e-04,-7.016205452e-04,-5.293717875e-04,-1.230992333e-03,4.857543124e-04,-1.008851269e-03,-5.230969568e-04,-1.285732844e-03,-3.910986384e-04,-1.676831483e-03,-4.245670828e-04,-4.350612397e-04,-8.596283225e-04,4.803295422e-05,-6.313913764e-04,-5.833584222e-04,-1.038777959e-03,1.763320312e-04,-8.624459276e-04,-3.156148032e-04,-4.438697263e-04,-7.594845295e-04,-1.173472747e-03,1.890415494e-04,-9.844311978e-04,-4.618481687e-04,-2.660202703e-04,-7.278684390e-04,2.434798384e-04,-4.923951514e-04,-2.489153130e-04,-3.222233919e-04,-7.946107940e-04,-1.116834186e-03,4.795507410e-04,-6.139734119e-04,-1.344226709e-04,2.248201949e-04,-8.366137155e-04,-6.117935206e-04,-8.537706242e-04,-2.436757272e-04,-1.097446351e-03,-4.469688414e-04,-3.522954038e-04,-7.992642452e-04,-1.031693664e-03,-1.442088772e-04,-1.175902541e-03,1.076444257e-04,-7.023381627e-04,-5.946937371e-04,-5.215901295e-04,-3.894861294e-04,-9.110762589e-04,-3.448442415e-04,-4.717984263e-04,-8.166426678e-04,-7.204744835e-04,-2.978453391e-04,-1.018319823e-03,-8.883851702e-04,5.304845031e-05,-8.353367199e-04,-1.472818381e-03,1.236138815e-04,-1.349204500e-03,-1.381701419e-03,-4.926243616e-05,-1.430963855e-03,-1.455628075e-03,6.976576292e-04,-7.579704454e-04,-2.259057502e-03,-1.668884817e-04,-2.425945984e-03
-9.1,1.012757681e-03,-2.787720904e-04,7.339855902e-04,-4.216782792e-04,-4.516510068e-04,-8.733292860e-04,1.383550680e-04,-4.778933980e-04,-3.395383300e-04,-7.861397267e-04,-3.979176845e-04,-1.184057411e-03,-1.089873706e-03,1.102301006e-05,-1.078850696e-03,-1.010294765e-03,-4.566532997e-04,-1.466948064e-03,-8.771473029e-04,3.503566542e-05,-8.421116374e-04,-6.577643492e-04,-2.449959823e-04,-9.027603315e-04,-4.750219810e-04,-1.457398375e-04,-6.207618185e-04,-4.940540434e-04,-1.607893052e-04,-6.548433486e-04,-1.375510750e-04,-5.112809310e-04,-6.488320059e-04,-7.613601490e-04,-5.200727281e-04,-1.281432877e-03,4.651208125e-04,-1.030514401e-03,-5.653935888e-04,-1.340374389e-03,-3.839912610e-04,-1.724365650e-03,-5.194231079e-04,-4.233411412e-04,-9.427642491e-04,-7.395068678e-05,-6.099465713e-04,-6.838972581e-04,-1.107004114e-03,1.746039977e-04,-9.324001166e-04,-4.251180640e-04,-4.489347581e-04,-8.740528221e-04,-1.298060216e-03,2.063863710e-04,-1.091673845e-03,-5.507343955e-04,-2.536627613e-04,-8.043971569e-04,1.772052228e-04,-4.761344764e-04,-2.989292536e-04,-4.007554190e-04,-7.800958444e-04,-1.180851263e-03,4.360494977e-04,-5.993387086e-04,-1.632892108e-04,1.417744579e-04,-8.170417041e-04,-6.752672463e-04,-8.923349610e-04,-2.300465192e-04,-1.122381480e-03,-4.959696702e-04,-3.321554120e-04,-8.281250822e-04,-1.103144383e-03,-1.262425425e-04,-1.229386925e-03,2.224661545e-06,-6.774144100e-04,-6.751897484e-04,-6.281208597e-04,-3.860447388e-04,-1.014165599e-03,-4.576020118e-04,-4.414193111e-04,-8.990213229e-04,-8.293494433e-04,-2.949981045e-04,-1.124347548e-03,-9.443826098e-04,2.898222152e-05,-9.154003883e-04,-1.641069245e-03,1.655216355e-04,-1.475547609e-03,-1.509928512e-03,-2.227876155e-05,-1.532207273e-03,-1.587347752e-03,7.063024546e-04,-8.810452970e-04,-2.312802883e-03,-1.821773975e-04,-2.494980280e-03
-9,9.999319627e-04,-2.616614237e-04,7.382705390e-04,-4.990106285e-04,-4.542447198e-04,-9.532553482e-04,1.106540122e-04,-4.638908615e-04,-3.532368492e-04,-8.686491166e-04,-3.954547736e-04,-1.264103890e-03,-1.125966539e-03,2.449855789e-05,-1.101467981e-03,-1.117888157e-03,-4.553347459e-04,-1.573222903e-03,-9.331112741e-04,4.120799411e-05,-8.919032800e-04,-7.507303355e-04,-2.305984370e-04,-9.813287725e-04,-5.263897577e-04,-1.396596927e-04,-6.660494504e-04,-5.858603638e-04,-1.529714783e-04,-7.388318420e-04,-1.837605869e-04,-4.947435448e-04,-6.785041317e-04,-8.185423207e-04,-5.104502856e-04,-1.328992606e-03,4.402609242e-04,-1.046447589e-03,-6.061866650e-04,-1.392513563e-03,-3.767430194e-04,-1.769256583e-03,-6.126906271e-04,-4.120145000e-04,-1.024705127e-03,-1.972235565e-04,-5.875569876e-04,-7.847805441e-04,-1.173362944e-03,1.691648132e-04,-1.004198131e-03,-5.293026264e-04,-4.532893882e-04,-9.825920146e-04,-1.415984483e-03,2.226327804e-04,-1.193351702e-03,-6.375321876e-04,-2.412434594e-04,-8.787756470e-04,1.133762242e-04,-4.593526175e-04,-3.459763933e-04,-4.774400872e-04,-7.648405310e-04,-1.242280618e-03,3.939681796e-04,-5.841112343e-04,-1.901430547e-04,5.915494513e-05,-7.966173754e-04,-7.374624302e-04,-9.286128380e-04,-2.171990903e-04,-1.145811928e-03,-5.430303498e-04,-3.126962973e-04,-8.557266470e-04,-1.170923786e-03,-1.092099924e-04,-1.280133779e-03,-1.054563863e-04,-6.501336313e-04,-7.555900176e-04,-7.323181802e-04,-3.827194170e-04,-1.115037597e-03,-5.668605802e-04,-4.102431216e-04,-9.771037018e-04,-9.359836642e-04,-2.919109465e-04,-1.227894611e-03,-9.965380288e-04,3.737366903e-06,-9.928006619e-04,-1.806245407e-03,2.069535467e-04,-1.599291861e-03,-1.628071084e-03,2.593720839e-06,-1.625477363e-03,-1.712043645e-03,7.081736671e-04,-1.003869978e-03,-2.355126848e-03,-1.956089601e-04,-2.550735808e-03
-8.9,9.894944856e-04,-2.448215909e-04,7.446728946e-04,-5.731849873e-04,-4.568403167e-04,-1.030025304e-03,8.678573403e-05,-4.497161298e-04,-3.629303958e-04,-9.470180256e-04,-3.932307385e-04,-1.340248764e-03,-1.158257871e-03,3.756943863e-05,-1.120688433e-03,-1.221168066e-03,-4.543224962e-04,-1.675490562e-03,-9.838651896e-04,4.676184445e-05,-9.371033451e-04,-8.414894689e-04,-2.161504407e-04,-1.057639910e-03,-5.746654190e-04,-1.335720077e-04,-7.082374267e-04,-6.748280963e-04,-1.453868051e-04,-8.202149013e-04,-2.271711920e-04,-4.781089387e-04,-7.052801307e-04,-8.729878439e-04,-5.003139831e-04,-1.373301827e-03,4.112415968e-04,-1.056533626e-03,-6.452920288e-04,-1.441909904e-03,-3.693663420e-04,-1.811276246e-03,-7.038750400e-04,-4.011801354e-04,-1.105055175e-03,-3.214438773e-04,-5.641487735e-04,-8.855926508e-04,-1.237415817e-03,1.602109547e-04,-1.077204862e-03,-6.276543572e-04,-4.567801229e-04,-1.084434480e-03,-1.526439121e-03,2.377015190e-04,-1.288737602e-03,-7.218670434e-04,-2.288152241e-04,-9.506822675e-04,5.209039230e-05,-4.420593043e-04,-3.899689120e-04,-5.520771135e-04,-7.488445190e-04,-1.300921633e-03,3.531872679e-04,-5.682933329e-04,-2.151060649e-04,-2.289315185e-05,-7.753497042e-04,-7.982428561e-04,-9.625057136e-04,-2.051303715e-04,-1.167636085e-03,-5.880585061e-04,-2.939040382e-04,-8.819625444e-04,-1.234720834e-03,-9.315146992e-05,-1.327872304e-03,-2.145263661e-04,-6.208752541e-04,-8.354016202e-04,-8.337498591e-04,-3.794369192e-04,-1.213186778e-03,-6.720355440e-04,-3.784222930e-04,-1.050457837e-03,-1.039803934e-03,-2.886223357e-04,-1.328426270e-03,-1.044940139e-03,-2.219916601e-05,-1.067139305e-03,-1.966941712e-03,2.475385223e-04,-1.719403190e-03,-1.734920150e-03,2.495474079e-05,-1.709965409e-03,-1.828075523e-03,7.025715071e-04,-1.125504016e-03,-2.386064247e-03,-2.069519913e-04,-2.593016239e-03
-8.8,9.814167783e-04,-2.283262689e-04,7.530905094e-04,-6.438555888e-04,-4.593829945e-04,-1.103238583e-03,6.672283264e-05,-4.354049351e-04,-3.686821024e-04,-1.021083844e-03,-3.911530339e-04,-1.412236877e-03,-1.186723661e-03,5.020475419e-05,-1.136518907e-03,-1.319648857e-03,-4.535644332e-04,-1.773213290e-03,-1.029095969e-03,5.164185120e-05,-9.774541180e-04,-9.295642320e-04,-2.017359278e-04,-1.131300160e-03,-6.196325734e-04,-1.275114522e-04,-7.471440256e-04,-7.605167832e-04,-1.380659179e-04,-8.985827010e-04,-2.677814558e-04,-4.614009230e-04,-7.291823788e-04,-9.245459627e-04,-4.894832449e-04,-1.414029208e-03,3.781171787e-04,-1.060665877e-03,-6.825486987e-04,-1.488337844e-03,-3.618767853e-04,-1.850214629e-03,-7.925206702e-04,-3.909064020e-04,-1.183427072e-03,-4.462708448e-04,-5.396315225e-04,-9.859023673e-04,-1.298749240e-03,1.480065886e-04,-1.150742652e-03,-7.197110763e-04,-4.592517332e-04,-1.178962810e-03,-1.628644857e-03,2.515204415e-04,-1.377124415e-03,-8.033780606e-04,-2.164320002e-04,-1.019810061e-03,-6.572390105e-06,-4.242679746e-04,-4.308403647e-04,-6.244779849e-04,-7.321134401e-04,-1.356591425e-03,3.135773268e-04,-5.518897928e-04,-2.383124659e-04,-1.042262795e-04,-7.532569774e-04,-8.574832570e-04,-9.939299837e-04,-1.938285866e-04,-1.187758570e-03,-6.309754152e-04,-2.757571141e-04,-9.067325293e-04,-1.294260517e-03,-7.810609643e-05,-1.372366613e-03,-3.240856908e-04,-5.900148310e-04,-9.141005219e-04,-9.319978528e-04,-3.761211917e-04,-1.308119044e-03,-7.725805669e-04,-3.461050071e-04,-1.118685574e-03,-1.140264224e-03,-2.851734103e-04,-1.425437634e-03,-1.089681442e-03,-4.834759937e-05,-1.138029042e-03,-2.121857273e-03,2.869056539e-04,-1.834951619e-03,-1.829403780e-03,4.447711522e-05,-1.784926664e-03,-1.933912096e-03,6.889511645e-04,-1.244960931e-03,-2.405741327e-03,-2.159443781e-04,-2.621685705e-03
-8.7,9.756372039e-04,-2.122511668e-04,7.633860372e-04,-7.107016061e-04,-4.618191744e-04,-1.172520781e-03,5.040961393e-05,-4.209954984e-04,-3.705858845e-04,-1.090705554e-03,-3.891331515e-04,-1.479838705e-03,-1.211361325e-03,6.237648849e-05,-1.148984837e-03,-1.412870552e-03,-4.530056303e-04,-1.865876182e-03,-1.068527583e-03,5.579783901e-05,-1.012729744e-03,-1.014495873e-03,-1.874364487e-04,-1.201932322e-03,-6.610990462e-04,-1.215114925e-04,-7.826105387e-04,-8.425060444e-04,-1.310388922e-04,-9.735449367e-04,-3.056120645e-04,-4.446420577e-04,-7.502541221e-04,-9.730921558e-04,-4.777946965e-04,-1.450886852e-03,3.409253091e-04,-1.058745855e-03,-7.178205454e-04,-1.531588635e-03,-3.542926433e-04,-1.885881278e-03,-8.782152388e-04,-3.812288087e-04,-1.259444047e-03,-5.713514791e-04,-5.139079453e-04,-1.085259424e-03,-1.356975555e-03,1.328763657e-04,-1.224099189e-03,-8.050623959e-04,-4.605521721e-04,-1.265614568e-03,-1.721860466e-03,2.640252603e-04,-1.457835206e-03,-8.817196427e-04,-2.041480740e-04,-1.085867717e-03,-6.254875114e-05,-4.059957869e-04,-4.685445380e-04,-6.944652749e-04,-7.146586881e-04,-1.409123963e-03,2.750018692e-04,-5.349080300e-04,-2.599061608e-04,-1.847020295e-04,-7.303664667e-04,-9.150684961e-04,-1.022815474e-03,-1.832726230e-04,-1.206088097e-03,-6.717129381e-04,-2.582295015e-04,-9.299424396e-04,-1.349303930e-03,-6.411191095e-05,-1.413415841e-03,-4.332193471e-04,-5.579158952e-04,-9.911352423e-04,-1.026658560e-03,-3.726943708e-04,-1.399352931e-03,-8.679928477e-04,-3.134351622e-04,-1.181428010e-03,-1.236847465e-03,-2.816048609e-04,-1.518452326e-03,-1.130853534e-03,-7.424616641e-05,-1.205099700e-03,-2.269802383e-03,3.246718376e-04,-1.945130545e-03,-1.910613492e-03,6.092998124e-05,-1.849683510e-03,-2.028160184e-03,6.669450120e-04,-1.361215172e-03,-2.414368044e-03,-2.222983455e-04,-2.636666390e-03
-8.6,9.720608048e-04,-1.966729382e-04,7.753878666e-04,-7.734290913e-04,-4.640963623e-04,-1.237525454e-03,3.776149351e-05,-4.065285303e-04,-3.687670368e-04,-1.155763779e-03,-3.870876076e-04,-1.542851386e-03,-1.232189655e-03,7.405910508e-05,-1.158130550e-03,-1.500400606e-03,-4.525886197e-04,-1.952989226e-03,-1.101923474e-03,5.918520691e-05,-1.042738267e-03,-1.095846469e-03,-1.733305187e-04,-1.269176988e-03,-6.988983416e-04,-1.156041459e-04,-8.145024875e-04,-9.203986349e-04,-1.243347967e-04,-1.044733432e-03,-3.407047511e-04,-4.278536166e-04,-7.685583677e-04,-1.018528595e-03,-4.651087760e-04,-1.483637371e-03,2.996802717e-04,-1.050682751e-03,-7.510024798e-04,-1.571473341e-03,-3.466345674e-04,-1.918107909e-03,-9.605938799e-04,-3.721492291e-04,-1.332743109e-03,-6.963090447e-04,-4.868807846e-04,-1.183189829e-03,-1.411736862e-03,1.152011337e-04,-1.296535728e-03,-8.833504349e-04,-4.605368808e-04,-1.343887316e-03,-1.805394629e-03,2.751589264e-04,-1.530235702e-03,-9.565636748e-04,-1.920172960e-04,-1.148580971e-03,-1.157912369e-04,-3.872636208e-04,-5.030548577e-04,-7.618723819e-04,-6.964970153e-04,-1.458369397e-03,2.373199043e-04,-5.173582512e-04,-2.800383469e-04,-2.641791378e-04,-7.067139194e-04,-9.708930572e-04,-1.049104927e-03,-1.734319777e-04,-1.222536905e-03,-7.102114079e-04,-2.412939515e-04,-9.515053594e-04,-1.399649966e-03,-5.120373575e-05,-1.450853702e-03,-5.410090331e-04,-5.249248410e-04,-1.065933874e-03,-1.117343864e-03,-3.690783204e-04,-1.486422185e-03,-9.578171588e-04,-2.805547208e-04,-1.238371880e-03,-1.329065521e-03,-2.779562979e-04,-1.607021819e-03,-1.168546031e-03,-9.945950061e-05,-1.268005531e-03,-2.409694174e-03,3.604202051e-04,-2.049273969e-03,-1.977830424e-03,7.419856701e-05,-1.903631857e-03,-2.109593691e-03,6.363795617e-04,-1.473214129e-03,-2.412223676e-03,-2.257149568e-04,-2.637938633e-03
-8.5,9.705586158e-04,-1.816681015e-04,7.888905143e-04,-8.317727500e-04,-4.661630298e-04,-1.297935780e-03,2.866415962e-05,-3.920470031e-04,-3.633828435e-04,-1.216161408e-03,-3.849387075e-04,-1.601100115e-03,-1.249248966e-03,8.522929987e-05,-1.164019666e-03,-1.581835614e-03,-4.522535844e-04,-2.034089198e-03,-1.129088885e-03,6.176533248e-05,-1.067323553e-03,-1.173200895e-03,-1.594929266e-04,-1.332693821e-03,-7.328908858e-04,-1.098197188e-04,-8.427106046e-04,-9.938234730e-04,-1.179811719e-04,-1.111804645e-03,-3.731209744e-04,-4.110554352e-04,-7.841764096e-04,-1.060786554e-03,-4.513138600e-04,-1.512100414e-03,2.543687923e-04,-1.036395481e-03,-7.820266885e-04,-1.607825469e-03,-3.389250715e-04,-1.946750541e-03,-1.039341931e-03,-3.636365390e-04,-1.402978470e-03,-8.207361318e-04,-4.584560033e-04,-1.279192135e-03,-1.462711144e-03,9.541490783e-05,-1.367296236e-03,-9.542710649e-04,-4.590726304e-04,-1.413343695e-03,-1.878617011e-03,2.848694242e-04,-1.593747587e-03,-1.027601556e-03,-1.800923210e-04,-1.207693877e-03,-1.662677413e-04,-3.680961807e-04,-5.343639220e-04,-8.265431642e-04,-6.776501402e-04,-1.504193304e-03,2.003886332e-04,-4.992535344e-04,-2.988649012e-04,-3.425175675e-04,-6.823428538e-04,-1.024860421e-03,-1.072754340e-03,-1.642670472e-04,-1.237021387e-03,-7.464180677e-04,-2.249252724e-04,-9.713433401e-04,-1.445138445e-03,-3.940879187e-05,-1.484547237e-03,-6.465471212e-04,-4.913662789e-04,-1.137913400e-03,-1.203682473e-03,-3.651966325e-04,-1.568879105e-03,-1.041648729e-03,-2.476064455e-04,-1.289255174e-03,-1.416458166e-03,-2.742674402e-04,-1.690725607e-03,-1.202845910e-03,-1.235859512e-04,-1.326431861e-03,-2.540545390e-03,3.936765629e-04,-2.146868827e-03,-2.030545329e-03,8.429472676e-05,-1.946250603e-03,-2.177179600e-03,5.972839662e-04,-1.579895634e-03,-2.399639056e-03,-2.259043540e-04,-2.625543410e-03
-8.4,9.709669563e-04,-1.673120272e-04,8.036549291e-04,-8.854974492e-04,-4.679684111e-04,-1.353465860e-03,2.297332004e-05,-3.775956278e-04,-3.546223077e-04,-1.271823980e-03,-3.826151350e-04,-1.654439115e-03,-1.262600238e-03,9.586595003e-05,-1.166734288e-03,-1.656802764e-03,-4.519384909e-04,-2.108741255e-03,-1.149872440e-03,6.350594623e-05,-1.086366494e-03,-1.246168388e-03,-1.459940734e-04,-1.392162461e-03,-7.629643969e-04,-1.041865625e-04,-8.671509594e-04,-1.062437988e-03,-1.120035039e-04,-1.174441492e-03,-4.029397236e-04,-3.942657118e-04,-7.972054354e-04,-1.099828315e-03,-4.363275767e-04,-1.536155892e-03,2.049525630e-04,-1.015815143e-03,-8.108625801e-04,-1.640501637e-03,-3.311878521e-04,-1.971689489e-03,-1.114195478e-03,-3.556284333e-04,-1.469823911e-03,-9.441923025e-04,-4.285436053e-04,-1.372735908e-03,-1.509615696e-03,7.399794343e-05,-1.435617752e-03,-1.017575311e-03,-4.560407464e-04,-1.473616057e-03,-1.940967865e-03,2.931066660e-04,-1.647861199e-03,-1.094545500e-03,-1.684237756e-04,-1.262969276e-03,-2.139604248e-04,-3.485220956e-04,-5.624825203e-04,-8.883309536e-04,-6.581444116e-04,-1.546475365e-03,1.640667855e-04,-4.806097680e-04,-3.165429825e-04,-4.195782005e-04,-6.573036584e-04,-1.076881859e-03,-1.093733346e-03,-1.557296755e-04,-1.249463022e-03,-7.802851695e-04,-2.091033141e-04,-9.893884836e-04,-1.485652359e-03,-2.874193192e-05,-1.514394291e-03,-7.489505053e-04,-4.575376376e-04,-1.206488143e-03,-1.285321017e-03,-3.609767167e-04,-1.646297734e-03,-1.119135121e-03,-2.147350119e-04,-1.333870133e-03,-1.498591930e-03,-2.705797691e-04,-1.769171699e-03,-1.233835754e-03,-1.462637570e-04,-1.380099511e-03,-2.661448048e-03,4.238907024e-04,-2.237557346e-03,-2.068469020e-03,9.135658840e-05,-1.977112431e-03,-2.230097954e-03,5.498888894e-04,-1.680209064e-03,-2.376982358e-03,-2.226061336e-04,-2.599588492e-03
-8.3,9.730872789e-04,-1.536780748e-04,8.194092041e-04,-9.343992594e-04,-4.694622251e-04,-1.403861485e-03,2.051577720e-05,-3.632200668e-04,-3.427042896e-04,-1.322699025e-03,-3.800524402e-04,-1.702751465e-03,-1.272322254e-03,1.059501944e-04,-1.166372060e-03,-1.724960873e-03,-4.515791747e-04,-2.176540048e-03,-1.164166498e-03,6.438142153e-05,-1.099785076e-03,-1.314383419e-03,-1.328994097e-04,-1.447282828e-03,-7.890329995e-04,-9.873084311e-05,-8.877638426e-04,-1.125929325e-03,-1.064247210e-04,-1.232354046e-03,-4.302540907e-04,-3.775007904e-04,-8.077548811e-04,-1.135645783e-03,-4.200964897e-04,-1.555742273e-03,1.513790146e-04,-9.888856974e-04,-8.375066828e-04,-1.669379379e-03,-3.234468602e-04,-1.992826240e-03,-1.184938630e-03,-3.480342485e-04,-1.532972878e-03,-1.066203708e-03,-3.970588112e-04,-1.463262519e-03,-1.552202932e-03,5.146151351e-05,-1.500741419e-03,-1.073070179e-03,-4.513395747e-04,-1.524409754e-03,-1.991965806e-03,2.998191019e-04,-1.692146704e-03,-1.157128764e-03,-1.570592567e-04,-1.314188020e-03,-2.588638014e-04,-3.285738489e-04,-5.874376503e-04,-9.470966760e-04,-6.380104468e-04,-1.585107123e-03,1.282188265e-04,-4.614454652e-04,-3.332266386e-04,-4.952217869e-04,-6.316525692e-04,-1.126874356e-03,-1.112024465e-03,-1.477641886e-04,-1.259788654e-03,-8.117668896e-04,-1.938155316e-04,-1.005582421e-03,-1.521116843e-03,-1.920205865e-05,-1.540318902e-03,-8.473707374e-04,-4.237034599e-04,-1.271074197e-03,-1.361924445e-03,-3.563517737e-04,-1.718276218e-03,-1.189976565e-03,-1.820860155e-04,-1.372062580e-03,-1.575059525e-03,-2.669374008e-04,-1.841996926e-03,-1.261589569e-03,-1.671765055e-04,-1.428766074e-03,-2.771553712e-03,4.504271400e-04,-2.321126572e-03,-2.091533328e-03,9.563963813e-05,-1.995893690e-03,-2.267753979e-03,4.946169252e-04,-1.773137053e-03,-2.344652224e-03,-2.156066190e-04,-2.560258843e-03
-8.2,9.766868812e-04,-1.408369208e-04,8.358499604e-04,-9.783058589e-04,-4.705944489e-04,-1.448900308e-03,2.109196945e-05,-3.489659732e-04,-3.278740037e-04,-1.368754077e-03,-3.771934348e-04,-1.745947511e-03,-1.278506669e-03,1.154655308e-04,-1.163041139e-03,-1.786000889e-03,-4.511093894e-04,-2.237110279e-03,-1.171906275e-03,6.437295258e-05,-1.107533322e-03,-1.377505813e-03,-1.202689923e-04,-1.497774805e-03,-8.110353069e-04,-9.347631715e-05,-9.045116240e-04,-1.184014469e-03,-1.012647200e-04,-1.285279189e-03,-4.551668192e-04,-3.607749390e-04,-8.159417582e-04,-1.168255511e-03,-4.025950601e-04,-1.570850571e-03,9.359862577e-05,-9.555626830e-04,-8.619640572e-04,-1.694352727e-03,-3.157251171e-04,-2.010077844e-03,-1.251397476e-03,-3.407389713e-04,-1.592136447e-03,-1.186261017e-03,-3.639264979e-04,-1.550187515e-03,-1.590246804e-03,2.832375234e-05,-1.561923052e-03,-1.120617879e-03,-4.448864285e-04,-1.565504308e-03,-2.031213222e-03,3.049501544e-04,-1.726263068e-03,-1.215104932e-03,-1.460422729e-04,-1.361147205e-03,-3.009820429e-04,-3.082875536e-04,-6.092695965e-04,-1.002706238e-03,-6.172827132e-04,-1.619988951e-03,9.271976371e-05,-4.417815324e-04,-3.490617687e-04,-5.693072298e-04,-6.054506277e-04,-1.174757858e-03,-1.127620529e-03,-1.403092047e-04,-1.267929734e-03,-8.408150520e-04,-1.790591282e-04,-1.019874180e-03,-1.551494017e-03,-1.077040232e-05,-1.562264420e-03,-9.409991561e-04,-3.900907432e-04,-1.331089899e-03,-1.433175615e-03,-3.512627580e-04,-1.784438373e-03,-1.253924398e-03,-1.498037753e-04,-1.403728173e-03,-1.645479988e-03,-2.633866089e-04,-1.908866597e-03,-1.286165863e-03,-1.860585929e-04,-1.472224456e-03,-2.870056190e-03,4.725701912e-04,-2.397485999e-03,-2.099883250e-03,9.750133250e-05,-2.002381917e-03,-2.289783280e-03,4.320676414e-04,-1.857715638e-03,-2.303075826e-03,-2.047526958e-04,-2.507828522e-03
-8.1,9.815001897e-04,-1.288560080e-04,8.526441817e-04,-1.017076375e-03,-4.713152056e-04,-1.488391581e-03,2.447919531e-05,-3.348779762e-04,-3.103987809e-04,-1.409973897e-03,-3.739884268e-04,-1.783962323e-03,-1.281252207e-03,1.243978323e-04,-1.156854374e-03,-1.839646068e-03,-4.504608426e-04,-2.290106911e-03,-1.173068387e-03,6.346860928e-05,-1.109599778e-03,-1.435220497e-03,-1.081571200e-04,-1.543377617e-03,-8.289322445e-04,-8.844414834e-05,-9.173763928e-04,-1.236439919e-03,-9.653994832e-05,-1.332979867e-03,-4.777855987e-04,-3.441001702e-04,-8.218857689e-04,-1.197692633e-03,-3.838237126e-04,-1.581516346e-03,3.158473614e-05,-9.158114938e-04,-8.842267577e-04,-1.715327499e-03,-3.080434204e-04,-2.023370919e-03,-1.313432483e-03,-3.336086068e-04,-1.647041090e-03,-1.303813934e-03,-3.290898813e-04,-1.632903815e-03,-1.623522254e-03,5.080504361e-06,-1.618441749e-03,-1.160133196e-03,-4.366192890e-04,-1.596752485e-03,-2.058399389e-03,3.084350845e-04,-1.749964305e-03,-1.268246766e-03,-1.354113848e-04,-1.403658151e-03,-3.403259530e-04,-2.877027432e-04,-6.280286962e-04,-1.055027747e-03,-5.959991129e-04,-1.651026860e-03,5.745987925e-05,-4.216410472e-04,-3.641811680e-04,-6.416897722e-04,-5.787626571e-04,-1.220452429e-03,-1.140520894e-03,-1.333001545e-04,-1.273821048e-03,-8.673748322e-04,-1.648425635e-04,-1.032217396e-03,-1.576775114e-03,-3.410628327e-06,-1.580185742e-03,-1.029068755e-03,-3.568870216e-04,-1.385955777e-03,-1.498774545e-03,-3.456604100e-04,-1.844434955e-03,-1.310778203e-03,-1.180291145e-04,-1.428807317e-03,-1.709498910e-03,-2.599744148e-04,-1.969473324e-03,-1.307600696e-03,-2.026994033e-04,-1.510300099e-03,-2.956184114e-03,4.895472143e-04,-2.466636900e-03,-2.093860841e-03,9.737951282e-05,-1.996481328e-03,-2.296053681e-03,3.630013508e-04,-1.933052330e-03,-2.252708289e-03,-1.899614846e-04,-2.442669774e-03
-8,9.872298884e-04,-1.177989960e-04,8.694308924e-04,-1.050600989e-03,-4.715746809e-04,-1.522175670e-03,3.043433813e-05,-3.209987234e-04,-2.905643853e-04,-1.446357958e-03,-3.703951992e-04,-1.816753157e-03,-1.280659737e-03,1.327352447e-04,-1.147924492e-03,-1.885652141e-03,-4.495632886e-04,-2.335215430e-03,-1.167669673e-03,6.166326314e-05,-1.106006410e-03,-1.487237443e-03,-9.661198553e-05,-1.583849428e-03,-8.427054212e-04,-8.365280433e-05,-9.263582255e-04,-1.282981661e-03,-9.226306811e-05,-1.375244730e-03,-4.982189521e-04,-3.274861534e-04,-8.257051055e-04,-1.224006125e-03,-3.638058209e-04,-1.587811946e-03,-3.464724726e-05,-8.696078108e-04,-9.042550581e-04,-1.732218179e-03,-3.004191981e-04,-2.032637377e-03,-1.370932028e-03,-3.264965307e-04,-1.697428558e-03,-1.418264781e-03,-2.925215285e-04,-1.710786309e-03,-1.651782204e-03,-1.782252627e-05,-1.669604730e-03,-1.191580138e-03,-4.264981197e-04,-1.618078258e-03,-2.073302487e-03,3.101997175e-04,-1.763102769e-03,-1.316345280e-03,-1.251996674e-04,-1.441544948e-03,-3.769102507e-04,-2.668622535e-04,-6.437725042e-04,-1.103929247e-03,-5.742005799e-04,-1.678129827e-03,2.234872871e-05,-4.010490304e-04,-3.787003016e-04,-7.122197317e-04,-5.516562089e-04,-1.263875941e-03,-1.150728045e-03,-1.266720124e-04,-1.277400057e-03,-8.913819906e-04,-1.511860268e-04,-1.042568017e-03,-1.596972669e-03,2.930143142e-06,-1.594042526e-03,-1.110855618e-03,-3.242419569e-04,-1.435097575e-03,-1.558438128e-03,-3.395070523e-04,-1.897945181e-03,-1.360382816e-03,-8.689764334e-05,-1.447280459e-03,-1.766788139e-03,-2.567472591e-04,-2.023535398e-03,-1.325904230e-03,-2.169438877e-04,-1.542848118e-03,-3.029205348e-03,5.005674997e-04,-2.528637849e-03,-2.073983454e-03,9.576596244e-05,-1.978217492e-03,-2.286667908e-03,2.883257998e-04,-1.998342108e-03,-2.194032995e-03,-1.712243913e-04,-2.365257386e-03
-7.9,9.935473159e-04,-1.077251576e-04,8.858221584e-04,-1.078800588e-03,-4.713229739e-04,-1.550123561e-03,3.869541056e-05,-3.073680426e-04,-2.686726320e-04,-1.477918967e-03,-3.663787114e-04,-1.844297679e-03,-1.276829270e-03,1.404679909e-04,-1.136361279e-03,-1.923807691e-03,-4.483447635e-04,-2.372152455e-03,-1.155766769e-03,5.895840070e-05,-1.096808368e-03,-1.533292143e-03,-8.567531205e-05,-1.618967455e-03,-8.523563772e-04,-7.911801515e-05,-9.314743924e-04,-1.323445834e-03,-8.844268271e-05,-1.411888516e-03,-5.165731278e-04,-3.109401929e-04,-8.275133207e-04,-1.247255716e-03,-3.425843875e-04,-1.589840104e-03,-1.050217770e-04,-8.169439477e-04,-9.219657247e-04,-1.744947044e-03,-2.928656439e-04,-2.037812688e-03,-1.423808682e-03,-3.192499629e-04,-1.743058645e-03,-1.528965461e-03,-2.542339683e-04,-1.783199429e-03,-1.674736571e-03,-4.001149175e-05,-1.714748063e-03,-1.214969202e-03,-4.145054764e-04,-1.629474679e-03,-2.075791646e-03,3.101620234e-04,-1.765629623e-03,-1.359209472e-03,-1.154343710e-04,-1.474643843e-03,-4.107516368e-04,-2.458120723e-04,-6.565637091e-04,-1.149277418e-03,-5.519305669e-04,-1.701207984e-03,-1.268189409e-05,-3.800321869e-04,-3.927140810e-04,-7.807420872e-04,-5.242004282e-04,-1.304942515e-03,-1.158245809e-03,-1.203617425e-04,-1.278607551e-03,-9.127622686e-04,-1.381208414e-04,-1.050883110e-03,-1.612114559e-03,8.320457240e-06,-1.603794102e-03,-1.185682373e-03,-2.922714033e-04,-1.477953776e-03,-1.611901242e-03,-3.327776348e-04,-1.944678876e-03,-1.402626253e-03,-5.653830221e-05,-1.459164555e-03,-1.817045133e-03,-2.537502637e-04,-2.070795397e-03,-1.341061340e-03,-2.286891064e-04,-1.569750447e-03,-3.088439148e-03,5.048696017e-04,-2.583569546e-03,-2.040919842e-03,9.317828685e-05,-1.947741555e-03,-2.261967793e-03,2.090872754e-04,-2.052880517e-03,-2.127563179e-03,-1.486064766e-04,-2.276169656e-03
-7.8,1.000092143e-03,-9.868881578e-05,9.014033270e-04,-1.101626511e-03,-4.705099107e-04,-1.572136422e-03,4.898208201e-05,-2.940222006e-04,-2.450401186e-04,-1.504682502e-03,-3.619105982e-04,-1.866593100e-03,-1.269858731e-03,1.475881485e-04,-1.122270583e-03,-1.953934676e-03,-4.467319767e-04,-2.400666653e-03,-1.137456298e-03,5.536187866e-05,-1.082094419e-03,-1.573146550e-03,-7.538197739e-05,-1.648528527e-03,-8.579064825e-04,-7.485271917e-05,-9.327592016e-04,-1.357669906e-03,-8.508306460e-05,-1.442752970e-03,-5.329498718e-04,-2.944671789e-04,-8.274170507e-04,-1.267509335e-03,-3.202194813e-04,-1.587728816e-03,-1.793869764e-04,-7.578435343e-04,-9.372305107e-04,-1.753445022e-03,-2.853910371e-04,-2.038836059e-03,-1.471997898e-03,-3.117156827e-04,-1.783713581e-03,-1.635219956e-03,-2.142885041e-04,-1.849508460e-03,-1.692038730e-03,-6.119769833e-05,-1.753236428e-03,-1.230355298e-03,-4.006465474e-04,-1.631001845e-03,-2.065829210e-03,3.082363416e-04,-1.757592868e-03,-1.396666727e-03,-1.061366028e-04,-1.502803330e-03,-4.418677026e-04,-2.246010181e-04,-6.664687207e-04,-1.190937321e-03,-5.292342982e-04,-1.720171620e-03,-4.767593197e-05,-3.586186377e-04,-4.062945697e-04,-8.470967205e-04,-4.964649035e-04,-1.343561624e-03,-1.163079076e-03,-1.143102201e-04,-1.277389296e-03,-9.314323907e-04,-1.256882493e-04,-1.057120640e-03,-1.622239652e-03,1.284378415e-05,-1.609395868e-03,-1.252925049e-03,-2.610620216e-04,-1.513987071e-03,-1.658919456e-03,-3.254598162e-04,-1.984379273e-03,-1.437438658e-03,-2.707169424e-05,-1.464510353e-03,-1.859992704e-03,-2.510264526e-04,-2.111019156e-03,-1.353033885e-03,-2.378781758e-04,-1.590912061e-03,-3.133271951e-03,5.017718409e-04,-2.631500110e-03,-1.995466174e-03,9.013328355e-05,-1.905332891e-03,-2.222535585e-03,1.264631152e-04,-2.096072470e-03,-2.053843474e-03,-1.222442811e-04,-2.176087755e-03
-7.7,1.006471880e-03,-9.073895623e-05,9.157329235e-04,-1.119060244e-03,-4.690849053e-04,-1.588145149e-03,6.099593924e-05,-2.809931551e-04,-2.199972158e-04,-1.526687251e-03,-3.569685755e-04,-1.883655827e-03,-1.259843570e-03,1.540894858e-04,-1.105754084e-03,-1.975888934e-03,-4.446507837e-04,-2.420539718e-03,-1.112875056e-03,5.088768124e-05,-1.061987375e-03,-1.606590090e-03,-6.575963519e-05,-1.672349725e-03,-8.593969049e-04,-7.086694662e-05,-9.302638515e-04,-1.385523886e-03,-8.218385334e-05,-1.467707739e-03,-5.474445951e-04,-2.780694561e-04,-8.255140512e-04,-1.284839443e-03,-2.967866075e-04,-1.581626051e-03,-2.575030821e-04,-6.923819918e-04,-9.498850739e-04,-1.757652900e-03,-2.779981242e-04,-2.035651024e-03,-1.515456955e-03,-3.037445875e-04,-1.819201543e-03,-1.736291751e-03,-1.728020195e-04,-1.909093770e-03,-1.703284848e-03,-8.118159686e-05,-1.784466444e-03,-1.237835070e-03,-3.849493182e-04,-1.622784388e-03,-2.043472868e-03,3.043392444e-04,-1.739133624e-03,-1.428563448e-03,-9.732103831e-05,-1.525884486e-03,-4.702762946e-04,-2.032802987e-04,-6.735565933e-04,-1.228772843e-03,-5.061578414e-04,-1.734930684e-03,-8.265162441e-05,-3.368376973e-04,-4.194893217e-04,-9.111187681e-04,-4.685186620e-04,-1.379637430e-03,-1.165234146e-03,-1.084632945e-04,-1.273697441e-03,-9.473017554e-04,-1.139378983e-04,-1.061239654e-03,-1.627394240e-03,1.659754382e-05,-1.610796697e-03,-1.312023352e-03,-2.306745834e-04,-1.542697935e-03,-1.699272530e-03,-3.175533052e-04,-2.016825836e-03,-1.464791363e-03,1.391983517e-06,-1.463399379e-03,-1.895379769e-03,-2.486146920e-04,-2.143994461e-03,-1.361762624e-03,-2.444927435e-04,-1.606255368e-03,-3.163175431e-03,4.907240031e-04,-2.672451428e-03,-1.938523541e-03,8.712545838e-05,-1.851398083e-03,-2.169187271e-03,4.175121005e-05,-2.127436061e-03,-1.973449760e-03,-9.234327789e-05,-2.065793038e-03
-7.6,1.012262014e-03,-8.391903380e-05,9.283429804e-04,-1.131112805e-03,-4.669968815e-04,-1.598109687e-03,7.442143606e-05,-2.683076758e-04,-1.938862397e-04,-1.543985035e-03,-3.515358230e-04,-1.895520858e-03,-1.246875958e-03,1.599674304e-04,-1.086908527e-03,-1.989560421e-03,-4.420266625e-04,-2.431587083e-03,-1.082199440e-03,4.555569137e-05,-1.036643748e-03,-1.633440291e-03,-5.682836400e-05,-1.690268655e-03,-8.568879514e-04,-6.716767368e-05,-9.240556251e-04,-1.406910880e-03,-7.973977790e-05,-1.486650658e-03,-5.601443097e-04,-2.617466745e-04,-8.218909842e-04,-1.299316583e-03,-2.723753385e-04,-1.571691922e-03,-3.390373659e-04,-6.207069616e-04,-9.597443276e-04,-1.757521140e-03,-2.706836251e-04,-2.028204765e-03,-1.554161338e-03,-2.951954627e-04,-1.849356801e-03,-1.831414480e-03,-1.299514272e-04,-1.961365908e-03,-1.708026936e-03,-9.984803347e-05,-1.807874969e-03,-1.237542550e-03,-3.674653493e-04,-1.605007900e-03,-2.008877367e-03,2.983961620e-04,-1.710481205e-03,-1.454765184e-03,-8.899579954e-05,-1.543760984e-03,-4.959946751e-04,-1.819031290e-04,-6.778978041e-04,-1.262647182e-03,-4.827472080e-04,-1.745394390e-03,-1.176002067e-04,-3.147197152e-04,-4.323199218e-04,-9.726385373e-04,-4.404294181e-04,-1.413067955e-03,-1.164718828e-03,-1.027715534e-04,-1.267490382e-03,-9.602740648e-04,-1.029258742e-04,-1.063199939e-03,-1.627629479e-03,1.969244701e-05,-1.607937032e-03,-1.362493481e-03,-2.011440601e-04,-1.563637541e-03,-1.732767448e-03,-3.090687145e-04,-2.041836163e-03,-1.484694767e-03,2.875500168e-05,-1.455939765e-03,-1.922983209e-03,-2.465457911e-04,-2.169529000e-03,-1.367169058e-03,-2.485439999e-04,-1.615713057e-03,-3.177727223e-03,4.713584180e-04,-2.706368805e-03,-1.871078847e-03,8.461423636e-05,-1.786464611e-03,-2.102957014e-03,-4.364560956e-05,-2.146602623e-03,-1.886986752e-03,-5.917360893e-05,-1.946160361e-03
-7.5,1.017007531e-03,-7.826684238e-05,9.387406883e-04,-1.137823606e-03,-4.641942126e-04,-1.602017819e-03,8.892828515e-05,-2.559863139e-04,-1.670580287e-04,-1.556639828e-03,-3.456003738e-04,-1.902240201e-03,-1.231042590e-03,1.652191623e-04,-1.065823427e-03,-1.994872962e-03,-4.387851828e-04,-2.433658145e-03,-1.045643555e-03,3.939142256e-05,-1.006252132e-03,-1.653542682e-03,-4.860040967e-05,-1.702143091e-03,-8.504572919e-04,-6.375872114e-05,-9.142160131e-04,-1.421766495e-03,-7.774050037e-05,-1.499506996e-03,-5.711248660e-04,-2.454957555e-04,-8.166206215e-04,-1.310999161e-03,-2.470876700e-04,-1.558086831e-03,-4.235636441e-04,-5.430559366e-04,-9.666195807e-04,-1.753007035e-03,-2.634380342e-04,-2.016445069e-03,-1.588096615e-03,-2.859387860e-04,-1.874035401e-03,-1.919804261e-03,-8.597437952e-05,-2.005778641e-03,-1.705794522e-03,-1.171552479e-04,-1.822949770e-03,-1.229643370e-03,-3.482708515e-04,-1.577914222e-03,-1.962295902e-03,2.903488987e-04,-1.671947003e-03,-1.475155783e-03,-8.116252060e-05,-1.556318304e-03,-5.190379810e-04,-1.605244577e-04,-6.795624387e-04,-1.292422857e-03,-4.590476201e-04,-1.751470477e-03,-1.524844835e-04,-2.922959483e-04,-4.447804318e-04,-1.031480803e-03,-4.122630289e-04,-1.443743832e-03,-1.161541473e-03,-9.718894570e-05,-1.258730418e-03,-9.702482852e-04,-9.271212958e-05,-1.062960415e-03,-1.623000481e-03,2.225282545e-05,-1.600747656e-03,-1.403942300e-03,-1.724750289e-04,-1.576417329e-03,-1.759240330e-03,-3.000259029e-04,-2.059266233e-03,-1.497194254e-03,5.493330021e-05,-1.442260954e-03,-1.942610248e-03,-2.448376632e-04,-2.187447911e-03,-1.369158363e-03,-2.500624666e-04,-1.619220829e-03,-3.176635148e-03,4.435364693e-04,-2.733098679e-03,-1.794189075e-03,8.301913074e-05,-1.711169944e-03,-2.025074771e-03,-1.282408517e-04,-2.153315623e-03,-1.795082085e-03,-2.306426641e-05,-1.818146351e-03
-7.4,1.020226223e-03,-7.381428936e-05,9.464119333e-04,-1.139258697e-03,-4.606246723e-04,-1.599883369e-03,1.041753552e-04,-2.440423718e-04,-1.398670165e-04,-1.564725577e-03,-3.391545276e-04,-1.903880105e-03,-1.212421098e-03,1.698437130e-04,-1.042577385e-03,-1.991783503e-03,-4.348525113e-04,-2.426636014e-03,-1.003456044e-03,3.242564554e-05,-9.710303985e-04,-1.666769976e-03,-4.108008083e-05,-1.707850057e-03,-8.401972041e-04,-6.064072537e-05,-9.008379295e-04,-1.430057110e-03,-7.617062529e-05,-1.506227735e-03,-5.804476127e-04,-2.293110474e-04,-8.097586602e-04,-1.319920447e-03,-2.210362357e-04,-1.540956682e-03,-5.105621921e-04,-4.597732791e-04,-9.703354712e-04,-1.744069724e-03,-2.562457521e-04,-2.000315476e-03,-1.617246446e-03,-2.758609499e-04,-1.893107396e-03,-2.000672734e-03,-4.116493313e-05,-2.041837667e-03,-1.696118157e-03,-1.331208569e-04,-1.829239014e-03,-1.214328773e-03,-3.274673261e-04,-1.541796099e-03,-1.904081589e-03,2.801647142e-04,-1.623916874e-03,-1.489635716e-03,-7.381649401e-05,-1.563452210e-03,-5.394170670e-04,-1.392006646e-04,-6.786177316e-04,-1.317961224e-03,-4.351028816e-04,-1.753064106e-03,-1.872374762e-04,-2.695984462e-04,-4.568359224e-04,-1.087463820e-03,-3.840830453e-04,-1.471546865e-03,-1.155708270e-03,-9.167132910e-05,-1.247379599e-03,-9.771187008e-04,-8.335758112e-05,-1.060476282e-03,-1.613566922e-03,2.441745035e-05,-1.589149472e-03,-1.436081009e-03,-1.446332830e-04,-1.580714292e-03,-1.778557338e-03,-2.904517419e-04,-2.069009080e-03,-1.502364835e-03,7.985645312e-05,-1.422508382e-03,-1.954100751e-03,-2.434912016e-04,-2.197591953e-03,-1.367622711e-03,-2.490885054e-04,-1.616711216e-03,-3.159764107e-03,4.073847879e-04,-2.752379319e-03,-1.708966362e-03,8.271743673e-05,-1.626248926e-03,-1.936938027e-03,-2.104922158e-04,-2.147430243e-03,-1.698376196e-03,1.560310707e-05,-1.682773089e-03
-7.3,1.021413593e-03,-7.058701543e-05,9.508265772e-04,-1.135508594e-03,-4.562354484e-04,-1.591744043e-03,1.198152935e-04,-2.324811038e-04,-1.126658102e-04,-1.568323412e-03,-3.321942745e-04,-1.900517686e-03,-1.191076259e-03,1.738419167e-04,-1.017234342e-03,-1.980281114e-03,-4.301559809e-04,-2.410437095e-03,-9.559163535e-04,2.469390005e-05,-9.312224534e-04,-1.673020999e-03,-3.426379688e-05,-1.707284795e-03,-8.262116451e-04,-5.781114847e-05,-8.840227935e-04,-1.431777687e-03,-7.500983886e-05,-1.506787526e-03,-5.881562611e-04,-2.131846450e-04,-8.013409061e-04,-1.326076191e-03,-1.943425902e-04,-1.520418781e-03,-5.994182810e-04,-3.713276751e-04,-9.707459561e-04,-1.730665354e-03,-2.490853726e-04,-1.979750727e-03,-1.641580066e-03,-2.648682409e-04,-1.906448307e-03,-2.073240466e-03,4.135393040e-06,-2.069105073e-03,-1.678550376e-03,-1.478073182e-04,-1.826357695e-03,-1.191810555e-03,-3.051811654e-04,-1.496991720e-03,-1.834688500e-03,2.678463882e-04,-1.566842112e-03,-1.498120329e-03,-6.694685424e-05,-1.565067183e-03,-5.571363939e-04,-1.179891211e-04,-6.751255150e-04,-1.339122065e-03,-4.109547470e-04,-1.750076812e-03,-2.217617532e-04,-2.466599805e-04,-4.684217337e-04,-1.140398718e-03,-3.559502973e-04,-1.496349015e-03,-1.147218903e-03,-8.617620421e-05,-1.233395107e-03,-9.807746502e-04,-7.492121057e-05,-1.055695861e-03,-1.599394143e-03,2.633955103e-05,-1.573054592e-03,-1.458735090e-03,-1.175381512e-04,-1.576273241e-03,-1.790615152e-03,-2.803775286e-04,-2.070992680e-03,-1.500306521e-03,1.034670355e-04,-1.396839485e-03,-1.957329177e-03,-2.424881992e-04,-2.199817376e-03,-1.362442607e-03,-2.456666250e-04,-1.608109232e-03,-3.127161419e-03,3.633152166e-04,-2.763846202e-03,-1.616561371e-03,8.403983313e-05,-1.532521538e-03,-1.840076958e-03,-2.888367410e-04,-2.128913699e-03,-1.597510707e-03,5.640249132e-05,-1.541108216e-03
-7.2,1.020048641e-03,-6.860389820e-05,9.514447431e-04,-1.126686073e-03,-4.509732586e-04,-1.577659331e-03,1.354987981e-04,-2.212992625e-04,-8.580046443e-05,-1.567519261e-03,-3.247186730e-04,-1.892237934e-03,-1.167057516e-03,1.772161632e-04,-9.898413526e-04,-1.960386111e-03,-4.246247219e-04,-2.385010833e-03,-9.033313246e-04,1.623594971e-05,-8.870953749e-04,-1.672219917e-03,-2.814024129e-05,-1.700360159e-03,-8.086140309e-04,-5.526430079e-05,-8.638783317e-04,-1.426949978e-03,-7.423312793e-05,-1.501183106e-03,-5.942748649e-04,-1.971068133e-04,-7.913816782e-04,-1.329416671e-03,-1.671351554e-04,-1.496551827e-03,-6.894225243e-04,-2.783253685e-04,-9.677478927e-04,-1.712744665e-03,-2.419299063e-04,-1.954674571e-03,-1.661043208e-03,-2.528894410e-04,-1.913932649e-03,-2.136751441e-03,4.954949510e-05,-2.087201946e-03,-1.652682691e-03,-1.613086716e-04,-1.813991363e-03,-1.162317421e-03,-2.815618689e-04,-1.443879290e-03,-1.754670508e-03,2.534409754e-04,-1.501229533e-03,-1.500538816e-03,-6.053690826e-05,-1.561075724e-03,-5.721926703e-04,-9.694770822e-05,-6.691403785e-04,-1.355763855e-03,-3.866423411e-04,-1.742406196e-03,-2.559300339e-04,-2.235140569e-04,-4.794440909e-04,-1.190089820e-03,-3.279224890e-04,-1.518012309e-03,-1.136061624e-03,-8.066407702e-05,-1.216725701e-03,-9.811012231e-04,-6.745710991e-05,-1.048558333e-03,-1.580553499e-03,2.818485541e-05,-1.552368643e-03,-1.471845735e-03,-9.106174298e-05,-1.562907478e-03,-1.795341596e-03,-2.698364454e-04,-2.065178041e-03,-1.491141871e-03,1.257202905e-04,-1.365421581e-03,-1.952206212e-03,-2.417917620e-04,-2.193997974e-03,-1.353485304e-03,-2.398453713e-04,-1.593330675e-03,-3.079074273e-03,3.120239398e-04,-2.767050333e-03,-1.518144281e-03,8.726353320e-05,-1.430880748e-03,-1.736113236e-03,-3.617325119e-04,-2.097845748e-03,-1.493118392e-03,9.887539165e-05,-1.394243000e-03
-7.1,1.015599905e-03,-6.787646709e-05,9.477234383e-04,-1.112924235e-03,-4.447845698e-04,-1.557708805e-03,1.508779236e-04,-2.104849377e-04,-5.960701402e-05,-1.562402544e-03,-3.167291388e-04,-1.879131683e-03,-1.140398670e-03,1.799700336e-04,-9.604286368e-04,-1.932149494e-03,-4.181903260e-04,-2.350339820e-03,-8.460325988e-04,7.095252700e-06,-8.389373461e-04,-1.664316123e-03,-2.269059567e-05,-1.687006719e-03,-7.875260850e-04,-5.299139780e-05,-8.405174828e-04,-1.415621572e-03,-7.381106826e-05,-1.489432640e-03,-5.988073249e-04,-1.810665049e-04,-7.798738298e-04,-1.329844616e-03,-1.395462418e-04,-1.469390858e-03,-7.797779857e-04,-1.815129816e-04,-9.612909673e-04,-1.690253692e-03,-2.347469072e-04,-1.925000599e-03,-1.675554738e-03,-2.398765762e-04,-1.915431315e-03,-2.190489722e-03,9.467805480e-05,-2.095811667e-03,-1.618158816e-03,-1.737404544e-04,-1.791899270e-03,-1.126092551e-03,-2.567790324e-04,-1.382871583e-03,-1.664676388e-03,2.370447872e-04,-1.427631601e-03,-1.496834218e-03,-5.456471328e-05,-1.551398931e-03,-5.845745727e-04,-7.613445716e-05,-6.607090299e-04,-1.367744953e-03,-3.622017543e-04,-1.729946707e-03,-2.895872697e-04,-2.001949825e-04,-4.897822522e-04,-1.236336037e-03,-3.000537378e-04,-1.536389775e-03,-1.122209167e-03,-7.510084267e-05,-1.197310010e-03,-9.779820147e-04,-6.101120539e-05,-1.038993220e-03,-1.557120875e-03,3.012717266e-05,-1.526993702e-03,-1.475459346e-03,-6.503858069e-05,-1.540497927e-03,-1.792696860e-03,-2.588612705e-04,-2.051558131e-03,-1.475015552e-03,1.465843803e-04,-1.328431171e-03,-1.938680450e-03,-2.413484425e-04,-2.180028892e-03,-1.340601891e-03,-2.316817124e-04,-1.572283603e-03,-3.015954864e-03,2.544700587e-04,-2.761484805e-03,-1.414884314e-03,9.260467124e-05,-1.322279643e-03,-1.626714499e-03,-4.277045201e-04,-2.054419019e-03,-1.385813197e-03,1.425431727e-04,-1.243270024e-03
-7,1.007531587e-03,-6.840818682e-05,9.391234005e-04,-1.094374891e-03,-4.376159293e-04,-1.531990821e-03,1.656085238e-04,-2.000175866e-04,-3.440906271e-05,-1.553065924e-03,-3.082286664e-04,-1.861294591e-03,-1.111119552e-03,1.821079433e-04,-9.290116083e-04,-1.895652787e-03,-4.107875049e-04,-2.306440292e-03,-7.843747425e-04,-2.681508484e-06,-7.870562510e-04,-1.649284704e-03,-1.788888249e-05,-1.667173586e-03,-7.630775314e-04,-5.098067724e-05,-8.140582086e-04,-1.397865677e-03,-7.371018459e-05,-1.471575862e-03,-6.017382192e-04,-1.650519813e-04,-7.667902005e-04,-1.327217671e-03,-1.117083669e-04,-1.438926038e-03,-8.696160399e-04,-8.176773557e-05,-9.513837755e-04,-1.663136757e-03,-2.274986104e-04,-1.890635367e-03,-1.685008803e-03,-2.258040963e-04,-1.910812899e-03,-2.233797987e-03,1.391136134e-04,-2.094684374e-03,-1.574684302e-03,-1.852344777e-04,-1.759918780e-03,-1.083392126e-03,-2.310187479e-04,-1.314410874e-03,-1.565440724e-03,2.188031695e-04,-1.346637555e-03,-1.486964379e-03,-4.900381888e-05,-1.535968198e-03,-5.942635103e-04,-5.560730519e-05,-6.498708155e-04,-1.374925660e-03,-3.376658023e-04,-1.712591462e-03,-3.225539773e-04,-1.767379151e-04,-4.992918924e-04,-1.278933049e-03,-2.723939812e-04,-1.551327030e-03,-1.105616379e-03,-6.946020624e-05,-1.175076585e-03,-9.713040868e-04,-5.561759594e-05,-1.026921683e-03,-1.529173297e-03,3.234200776e-05,-1.496831289e-03,-1.469707303e-03,-3.928366898e-05,-1.508990972e-03,-1.782675532e-03,-2.474822323e-04,-2.030157764e-03,-1.452094917e-03,1.660409005e-04,-1.286054017e-03,-1.916740296e-03,-2.410906557e-04,-2.157830952e-03,-1.323625140e-03,-2.212473488e-04,-1.544872488e-03,-2.938453993e-03,1.918418485e-04,-2.746612145e-03,-1.307929315e-03,1.002113466e-04,-1.207717968e-03,-1.513546780e-03,-4.853915117e-04,-1.998938292e-03,-1.276177152e-03,1.869157695e-04,-1.089261382e-03
-6.9,9.953101021e-04,-7.019358826e-05,9.251165138e-04,-1.071207090e-03,-4.294144599e-04,-1.500621550e-03,1.793524536e-04,-1.898682111e-04,-1.051575758e-05,-1.539605545e-03,-2.992210761e-04,-1.838826621e-03,-1.079228776e-03,1.836348553e-04,-8.955939205e-04,-1.851008215e-03,-4.023546816e-04,-2.253362897e-03,-7.187335793e-04,-1.304481894e-05,-7.317783982e-04,-1.627127193e-03,-1.370245691e-05,-1.640829650e-03,-7.354060686e-04,-4.921755552e-05,-7.846236241e-04,-1.373781108e-03,-7.389335188e-05,-1.447674460e-03,-6.030343930e-04,-1.490515073e-04,-7.520859003e-04,-1.321352840e-03,-8.375099276e-05,-1.405103833e-03,-9.580184010e-04,1.992282545e-05,-9.380955755e-04,-1.631340193e-03,-2.201421200e-04,-1.851482313e-03,-1.689280422e-03,-2.106667556e-04,-1.899947178e-03,-2.266095782e-03,1.824546325e-04,-2.083641149e-03,-1.522032069e-03,-1.959384635e-04,-1.717970532e-03,-1.034484894e-03,-2.044799693e-04,-1.238964864e-03,-1.457770780e-03,1.989048233e-04,-1.258865957e-03,-1.470903405e-03,-4.382398116e-05,-1.514727386e-03,-6.012351567e-04,-3.542381827e-05,-6.366589749e-04,-1.377170895e-03,-3.130638104e-04,-1.690234706e-03,-3.546303052e-04,-1.531788600e-04,-5.078091652e-04,-1.317675730e-03,-2.449882773e-04,-1.562664007e-03,-1.086219739e-03,-6.372545074e-05,-1.149945189e-03,-9.609642788e-04,-5.129471721e-05,-1.012258996e-03,-1.496784486e-03,3.499946905e-05,-1.461785017e-03,-1.454783458e-03,-1.361383892e-05,-1.468397297e-03,-1.765308943e-03,-2.357249530e-04,-2.001033896e-03,-1.422570701e-03,1.840851726e-04,-1.238485529e-03,-1.886415289e-03,-2.409388237e-04,-2.127354112e-03,-1.302368989e-03,-2.086354979e-04,-1.511004487e-03,-2.847407715e-03,1.255216831e-04,-2.721886032e-03,-1.198387343e-03,1.101591373e-04,-1.088228206e-03,-1.398225883e-03,-5.335917470e-04,-1.931817630e-03,-1.164744404e-03,2.314973060e-04,-9.332470984e-04
-6.8,9.784116575e-04,-7.321734180e-05,9.051943157e-04,-1.043605566e-03,-4.201285507e-04,-1.463734117e-03,1.917803551e-04,-1.799996547e-04,1.178070041e-05,-1.522120982e-03,-2.897103771e-04,-1.811831359e-03,-1.044726394e-03,1.845560789e-04,-8.601703155e-04,-1.798358995e-03,-3.928344834e-04,-2.191193478e-03,-6.495040175e-04,-2.394263477e-05,-6.734466522e-04,-1.597872144e-03,-1.009265289e-05,-1.607964797e-03,-7.046569666e-04,-4.768478710e-05,-7.523417537e-04,-1.343491857e-03,-7.432020100e-05,-1.417812058e-03,-6.026466229e-04,-1.330540614e-04,-7.357006844e-04,-1.312030536e-03,-5.579878615e-05,-1.367829323e-03,-1.044039817e-03,1.224870666e-04,-9.215527508e-04,-1.594815211e-03,-2.126295921e-04,-1.807444804e-03,-1.688231475e-03,-1.944766509e-04,-1.882708126e-03,-2.286894665e-03,2.243180316e-04,-2.062576633e-03,-1.460044132e-03,-2.060178547e-04,-1.666061986e-03,-9.796526700e-04,-1.773710510e-04,-1.157023721e-03,-1.342529811e-03,1.775717654e-04,-1.164958046e-03,-1.448642994e-03,-3.899177943e-05,-1.487634774e-03,-6.054612343e-04,-1.564081639e-05,-6.211020507e-04,-1.374353060e-03,-2.884213738e-04,-1.662774433e-03,-3.856001860e-04,-1.295546500e-04,-5.151548359e-04,-1.352360212e-03,-2.178761205e-04,-1.570236333e-03,-1.063938336e-03,-5.789033632e-05,-1.121828672e-03,-9.468753987e-04,-4.804176158e-05,-9.949171603e-04,-1.460020327e-03,3.825802403e-05,-1.421762303e-03,-1.430926074e-03,1.213192514e-05,-1.418794149e-03,-1.740666762e-03,-2.236086917e-04,-1.964275454e-03,-1.386657032e-03,2.007259599e-04,-1.185931072e-03,-1.847775437e-03,-2.408039348e-04,-2.088579371e-03,-1.276629832e-03,-1.939678755e-04,-1.470597707e-03,-2.743820378e-03,5.705343682e-05,-2.686766941e-03,-1.087311926e-03,1.224506063e-04,-9.648613200e-04,-1.282268338e-03,-5.713070179e-04,-1.853575355e-03,-1.051984972e-03,2.757912566e-04,-7.761937154e-04
-6.7,9.563314695e-04,-7.745339194e-05,8.788780776e-04,-1.011768889e-03,-4.097087114e-04,-1.421477601e-03,2.025756509e-04,-1.703669804e-04,3.220867055e-05,-1.500714216e-03,-2.797002648e-04,-1.780414480e-03,-1.007605487e-03,1.848771429e-04,-8.227283440e-04,-1.737879378e-03,-3.821741976e-04,-2.120053576e-03,-5.770968264e-04,-3.532061201e-05,-6.124174384e-04,-1.561575178e-03,-7.015557077e-06,-1.568590735e-03,-6.709818531e-04,-4.636264876e-05,-7.173445018e-04,-1.307145771e-03,-7.494755572e-05,-1.382093327e-03,-6.005108461e-04,-1.170500624e-04,-7.175609086e-04,-1.298997068e-03,-2.797154304e-05,-1.326968611e-03,-1.126727186e-03,2.247967853e-04,-9.019304011e-04,-1.553518939e-03,-2.049084441e-04,-1.758427383e-03,-1.681714118e-03,-1.772607219e-04,-1.858974840e-03,-2.295808344e-03,2.643484537e-04,-2.031459890e-03,-1.388631442e-03,-2.156557265e-04,-1.604287168e-03,-9.191910905e-04,-1.499064630e-04,-1.069097553e-03,-1.220617767e-03,1.550471053e-04,-1.065570662e-03,-1.420193046e-03,-3.447126552e-05,-1.454664311e-03,-6.069109798e-04,3.685978030e-06,-6.032250017e-04,-1.366354548e-03,-2.637602272e-04,-1.630114775e-03,-4.152351022e-04,-1.059029590e-04,-5.211380612e-04,-1.382785269e-03,-1.910908732e-04,-1.573876142e-03,-1.038675486e-03,-5.195925276e-05,-1.090634739e-03,-9.289707725e-04,-4.583596478e-05,-9.748067373e-04,-1.418934440e-03,4.225986949e-05,-1.376674570e-03,-1.398406423e-03,3.807550826e-05,-1.360330915e-03,-1.708857019e-03,-2.111451133e-04,-1.920002132e-03,-1.344589910e-03,2.159842302e-04,-1.128605680e-03,-1.800928544e-03,-2.405909348e-04,-2.041519479e-03,-1.246189606e-03,-1.774008297e-04,-1.423590435e-03,-2.628841826e-03,-1.189396004e-05,-2.640735786e-03,-9.756897775e-04,1.370170765e-04,-8.386727010e-04,-1.167045372e-03,-5.977826667e-04,-1.764828039e-03,-9.382899045e-04,3.193047719e-04,-6.189851326e-04
-6.6,9.285947304e-04,-8.286414185e-05,8.457305885e-04,-9.759072360e-04,-3.981084834e-04,-1.374015719e-03,2.114397027e-04,-1.609179462e-04,5.052175648e-05,-1.475487432e-03,-2.691937118e-04,-1.744681144e-03,-9.678526593e-04,1.846036989e-04,-7.832489604e-04,-1.669774222e-03,-3.703263353e-04,-2.040100557e-03,-5.019344007e-04,-4.712231657e-05,-5.490567173e-04,-1.518318514e-03,-4.422886132e-06,-1.522741400e-03,-6.345368561e-04,-4.522922494e-05,-6.797660810e-04,-1.264912385e-03,-7.572998864e-05,-1.340642374e-03,-5.965489892e-04,-1.010321749e-04,-6.975811642e-04,-1.281966247e-03,-3.850228046e-07,-1.282351270e-03,-1.205134829e-03,3.256938184e-04,-8.794410109e-04,-1.507414054e-03,-1.969217689e-04,-1.704335822e-03,-1.669571015e-03,-1.590600130e-04,-1.828631028e-03,-2.292557965e-03,3.022239840e-04,-1.990333981e-03,-1.307773637e-03,-2.250482271e-04,-1.532821864e-03,-8.534101181e-04,-1.223033710e-04,-9.757134891e-04,-1.092950646e-03,1.315825231e-04,-9.613681226e-04,-1.385581529e-03,-3.022477880e-05,-1.415806308e-03,-6.055521356e-04,2.250214305e-05,-5.830499925e-04,-1.353069768e-03,-2.390983555e-04,-1.592168123e-03,-4.432974947e-04,-8.226234542e-05,-5.255598401e-04,-1.408753220e-03,-1.646593302e-04,-1.573412551e-03,-1.010320358e-03,-4.594683337e-05,-1.056267191e-03,-9.072064832e-04,-4.463127572e-05,-9.518377589e-04,-1.373563451e-03,4.712717932e-05,-1.326436271e-03,-1.357523652e-03,6.428755375e-05,-1.293236098e-03,-1.670024592e-03,-1.983376728e-04,-1.868362264e-03,-1.296623504e-03,2.298905178e-04,-1.066732986e-03,-1.746017150e-03,-2.402023276e-04,-1.986219477e-03,-1.210820217e-03,-1.591289618e-04,-1.369949179e-03,-2.503733161e-03,-7.957555119e-05,-2.583308712e-03,-8.644269411e-04,1.537186446e-04,-7.107082965e-04,-1.053746176e-03,-6.125378578e-04,-1.666284034e-03,-8.239590521e-04,3.615500960e-04,-4.624089561e-04
-6.5,8.947685876e-04,-8.939960668e-05,8.053689809e-04,-9.362400023e-04,-3.852853033e-04,-1.321525306e-03,2.180973281e-04,-1.515936889e-04,6.650363918e-05,-1.446540177e-03,-2.581926371e-04,-1.704732814e-03,-9.254484712e-04,1.837413686e-04,-7.417071026e-04,-1.594278177e-03,-3.572493962e-04,-1.951527573e-03,-4.244462186e-04,-5.928947017e-05,-4.837356888e-04,-1.468210367e-03,-2.262948947e-06,-1.470473316e-03,-5.954808336e-04,-4.426083099e-05,-6.397416646e-04,-1.216980557e-03,-7.662054067e-05,-1.293601097e-03,-5.906700214e-04,-8.499621819e-05,-6.756662396e-04,-1.260622234e-03,2.684810824e-05,-1.233774126e-03,-1.278338577e-03,4.240166175e-04,-8.543219593e-04,-1.456468676e-03,-1.886091556e-04,-1.645077832e-03,-1.651634734e-03,-1.399305826e-04,-1.791565317e-03,-2.276973968e-03,3.376593814e-04,-1.939314587e-03,-1.217519742e-03,-2.343955417e-04,-1.451915284e-03,-7.826345089e-04,-9.477770733e-05,-8.774122163e-04,-9.604398364e-04,1.074262211e-04,-8.530136153e-04,-1.344854354e-03,-2.621386766e-05,-1.371068221e-03,-6.013519481e-04,4.075468095e-05,-5.605972671e-04,-1.334407090e-03,-2.144502897e-04,-1.548857379e-03,-4.695443048e-04,-5.867227663e-05,-5.282165814e-04,-1.430071009e-03,-1.386013854e-04,-1.568672394e-03,-9.787498534e-04,-3.987716071e-05,-1.018627014e-03,-8.815620154e-04,-4.435853461e-05,-9.259205500e-04,-1.323922267e-03,5.295809967e-05,-1.270964168e-03,-1.308605157e-03,9.078075086e-05,-1.217824406e-03,-1.624348821e-03,-1.851817702e-04,-1.809530591e-03,-1.243024948e-03,2.424809689e-04,-1.000543979e-03,-1.683216401e-03,-2.395413872e-04,-1.922757789e-03,-1.170288697e-03,-1.393857636e-04,-1.309674461e-03,-2.369820671e-03,-1.442319711e-04,-2.514052642e-03,-7.543315248e-04,1.723417701e-04,-5.819897547e-04,-9.433548887e-04,-6.153800535e-04,-1.558734942e-03,-7.091938810e-04,4.020440851e-04,-3.071497959e-04
-6.4,8.544738567e-04,-9.699657305e-05,7.574772836e-04,-8.929936699e-04,-3.712013062e-04,-1.264194976e-03,2.223016310e-04,-1.423297401e-04,7.997189091e-05,-1.413966775e-03,-2.466976767e-04,-1.660664452e-03,-8.803691214e-04,1.822954643e-04,-6.980736570e-04,-1.511654958e-03,-3.429087711e-04,-1.854563729e-03,-3.450648692e-04,-7.176221683e-05,-4.168270861e-04,-1.411384770e-03,-4.816447952e-07,-1.411866415e-03,-5.539744360e-04,-4.343251155e-05,-5.974069476e-04,-1.163556692e-03,-7.757153383e-05,-1.241128226e-03,-5.827719534e-04,-6.894208816e-05,-6.517140415e-04,-1.234625834e-03,5.361784674e-05,-1.181007988e-03,-1.345452432e-03,5.186294030e-04,-8.268230287e-04,-1.400657984e-03,-1.799080001e-04,-1.580565984e-03,-1.627729225e-03,-1.199450272e-04,-1.747674253e-03,-2.248995129e-03,3.704077270e-04,-1.878587402e-03,-1.117991384e-03,-2.438895990e-04,-1.361880983e-03,-7.072046577e-04,-6.753994759e-05,-7.747446053e-04,-8.239732789e-04,8.281192421e-05,-7.411613547e-04,-1.298076075e-03,-2.240014564e-05,-1.320476220e-03,-5.942788551e-04,5.839224211e-05,-5.358866130e-04,-1.310291383e-03,-1.898274082e-04,-1.500118791e-03,-4.937311298e-04,-3.517311788e-05,-5.289042477e-04,-1.446552035e-03,-1.129297861e-04,-1.559481821e-03,-9.438317254e-04,-3.378259795e-05,-9.776143233e-04,-8.520407363e-04,-4.492690531e-05,-8.969676417e-04,-1.270000676e-03,5.982234662e-05,-1.210178330e-03,-1.252011258e-03,1.175078846e-04,-1.134503374e-03,-1.572040951e-03,-1.716659439e-04,-1.743706895e-03,-1.184069400e-03,2.537926927e-04,-9.302767072e-04,-1.612732779e-03,-2.385150085e-04,-1.851247787e-03,-1.124362818e-03,-1.184421581e-04,-1.242804976e-03,-2.228446363e-03,-2.041534939e-04,-2.432599856e-03,-6.460962746e-04,1.925992366e-04,-4.534970379e-04,-8.366405627e-04,-6.064020989e-04,-1.443042662e-03,-5.940981831e-04,4.403097077e-04,-1.537884754e-04
-6.3,8.073954557e-04,-1.055779242e-04,7.018175315e-04,-8.464002021e-04,-3.558241771e-04,-1.202224379e-03,2.238375556e-04,-1.330573741e-04,9.078018153e-05,-1.377854743e-03,-2.347080457e-04,-1.612562788e-03,-8.325900515e-04,1.802706160e-04,-6.523194355e-04,-1.422197071e-03,-3.272776243e-04,-1.749474696e-03,-2.642231068e-04,-8.447931877e-05,-3.487024256e-04,-1.348002123e-03,9.765947047e-07,-1.347025528e-03,-5.101802644e-04,-4.271851253e-05,-5.528987769e-04,-1.104863952e-03,-7.853535157e-05,-1.183399303e-03,-5.727450682e-04,-5.287454895e-05,-6.256196171e-04,-1.203625271e-03,7.981740935e-05,-1.123807862e-03,-1.405651078e-03,6.084558497e-04,-7.971952281e-04,-1.339967831e-03,-1.707552404e-04,-1.510723071e-03,-1.597674257e-03,-9.919415302e-05,-1.696868410e-03,-2.208664373e-03,4.002609536e-04,-1.808403419e-03,-1.009390086e-03,-2.537005863e-04,-1.263090673e-03,-6.274781770e-04,-4.079103057e-05,-6.682692075e-04,-6.844010066e-04,5.795043540e-05,-6.264505712e-04,-1.245331774e-03,-1.874601950e-05,-1.264077794e-03,-5.843051601e-04,7.536548127e-05,-5.089396789e-04,-1.280667409e-03,-1.652381616e-04,-1.445905571e-03,-5.156170740e-04,-1.180610914e-05,-5.274231831e-04,-1.458018929e-03,-8.765000920e-05,-1.545668938e-03,-9.054298044e-04,-2.770213562e-05,-9.331319400e-04,-8.186712393e-04,-4.622608161e-05,-8.648973209e-04,-1.211762682e-03,6.775708350e-05,-1.144005599e-03,-1.188142960e-03,1.443645774e-04,-1.043778382e-03,-1.513341652e-03,-1.577742446e-04,-1.671115897e-03,-1.120036482e-03,2.638587069e-04,-8.561777750e-04,-1.534803304e-03,-2.370360902e-04,-1.771839395e-03,-1.072817085e-03,-9.660390487e-05,-1.169420990e-03,-2.080923981e-03,-2.577371478e-04,-2.338661129e-03,-5.402854120e-04,2.141374776e-04,-3.261479344e-04,-7.341561742e-04,-5.859656317e-04,-1.320121806e-03,-4.786887794e-04,4.758825849e-04,-2.806194507e-06
-6.2,7.532912970e-04,-1.150522406e-04,6.382390564e-04,-7.966959909e-04,-3.391281444e-04,-1.135824135e-03,2.225242699e-04,-1.237051411e-04,9.881912882e-05,-1.338284330e-03,-2.222214318e-04,-1.560505762e-03,-7.820911266e-04,1.776704261e-04,-6.044207005e-04,-1.326226039e-03,-3.103376674e-04,-1.636563706e-03,-1.823518028e-04,-9.737819206e-05,-2.797299949e-04,-1.278250406e-03,2.167989754e-06,-1.276082417e-03,-4.642638520e-04,-4.209268908e-05,-5.063565411e-04,-1.041142299e-03,-7.946511584e-05,-1.120607415e-03,-5.604761129e-04,-3.680380987e-05,-5.972799227e-04,-1.167270393e-03,1.053442676e-04,-1.061926125e-03,-1.458197940e-03,6.925155427e-04,-7.656823975e-04,-1.274399525e-03,-1.610893886e-04,-1.435488913e-03,-1.561291911e-03,-7.778885200e-05,-1.639080763e-03,-2.156121583e-03,4.270495768e-04,-1.729072006e-03,-8.920083203e-04,-2.639653258e-04,-1.155973646e-03,-5.438325370e-04,-1.471835472e-05,-5.585508917e-04,-5.425271696e-04,3.302538884e-05,-5.095017808e-04,-1.186729798e-03,-1.521537044e-05,-1.201945168e-03,-5.714104266e-04,9.162738162e-05,-4.797830449e-04,-1.245503814e-03,-1.406883276e-04,-1.386192142e-03,-5.349699935e-04,1.138664967e-05,-5.235833438e-04,-1.464306929e-03,-6.276030845e-05,-1.527067237e-03,-8.634115160e-04,-2.167902193e-05,-8.850905379e-04,-7.815096666e-04,-4.812880293e-05,-8.296384696e-04,-1.149149237e-03,7.676343241e-05,-1.072385804e-03,-1.117452228e-03,1.711977475e-04,-9.462544809e-04,-1.448518201e-03,-1.434895226e-04,-1.592007723e-03,-1.051208222e-03,2.727026693e-04,-7.785055528e-04,-1.449695419e-03,-2.350248671e-04,-1.684720286e-03,-1.015439370e-03,-7.420789421e-05,-1.089647264e-03,-1.928501328e-03,-3.035363550e-04,-2.232037683e-03,-4.373279799e-04,2.365515137e-04,-2.007764662e-04,-6.362436702e-04,-5.546766777e-04,-1.190920348e-03,-3.629175658e-04,5.083235592e-04,1.454059934e-04
-6.1,6.920000190e-04,-1.253136564e-04,5.666863626e-04,-7.441212331e-04,-3.210950645e-04,-1.065216298e-03,2.182169938e-04,-1.142004054e-04,1.040165884e-04,-1.295328772e-03,-2.092339124e-04,-1.504562684e-03,-7.288623653e-04,1.744972827e-04,-5.543650826e-04,-1.224092817e-03,-2.920798983e-04,-1.516172715e-03,-9.987825091e-05,-1.103947692e-04,-2.102730201e-04,-1.202346658e-03,3.148694756e-06,-1.199197963e-03,-4.163948653e-04,-4.152888429e-05,-4.579237496e-04,-9.726488379e-04,-8.031527509e-05,-1.052964113e-03,-5.458528156e-04,-2.074591129e-05,-5.665987269e-04,-1.125227398e-03,1.300999297e-04,-9.951274678e-04,-1.502472952e-03,7.699567770e-04,-7.325161751e-04,-1.203974381e-03,-1.508527050e-04,-1.354827086e-03,-1.518413901e-03,-5.586176743e-05,-1.574275669e-03,-2.091595196e-03,4.506418895e-04,-1.640953306e-03,-7.662420288e-04,-2.747798390e-04,-1.041021868e-03,-4.566685192e-04,1.050828843e-05,-4.461602308e-04,-3.991082859e-04,8.193101907e-06,-3.909151840e-04,-1.122404675e-03,-1.177423008e-05,-1.134178905e-03,-5.555850125e-04,1.071334265e-04,-4.484515860e-04,-1.204797124e-03,-1.161814391e-04,-1.320978563e-03,-5.515716378e-04,3.436222601e-05,-5.172094117e-04,-1.465267265e-03,-3.825196492e-05,-1.503519229e-03,-8.176570890e-04,-1.575765134e-05,-8.334147403e-04,-7.406422723e-04,-5.049347196e-05,-7.911357442e-04,-1.082084123e-03,8.680312086e-05,-9.952810022e-04,-1.040453157e-03,1.978193404e-04,-8.426338167e-04,-1.377860710e-03,-1.287969473e-04,-1.506657658e-03,-9.778683168e-04,2.803345609e-04,-6.975337559e-04,-1.357707976e-03,-2.324085445e-04,-1.590116520e-03,-9.520392357e-04,-5.161662516e-05,-1.003655861e-03,-1.772325149e-03,-3.403070033e-04,-2.112632152e-03,-3.375190912e-04,2.594046573e-04,-7.811443390e-05,-5.430452616e-04,-5.133574057e-04,-1.056402667e-03,-2.467039080e-04,5.372365813e-04,2.905326733e-04
-6,6.234482870e-04,-1.362419126e-04,4.872063744e-04,-6.889195437e-04,-3.017154523e-04,-9.906349960e-04,2.108090944e-04,-1.044708068e-04,1.063382876e-04,-1.249054426e-03,-1.957399874e-04,-1.444794414e-03,-6.729089957e-04,1.707523668e-04,-5.021566289e-04,-1.116177927e-03,-2.725054565e-04,-1.388683383e-03,-1.722414568e-05,-1.234632523e-04,-1.406873980e-04,-1.120538172e-03,3.974086459e-06,-1.116564086e-03,-3.667478677e-04,-4.100130728e-05,-4.077491750e-04,-8.996577339e-04,-8.104214012e-05,-9.806998740e-04,-5.287680311e-04,-4.722985737e-06,-5.334910169e-04,-1.077191296e-03,1.539872205e-04,-9.232040757e-04,-1.537992004e-03,8.400787899e-04,-6.979132145e-04,-1.128736777e-03,-1.399933096e-04,-1.268730086e-03,-1.468888482e-03,-3.356802191e-05,-1.502456504e-03,-2.015395268e-03,4.709431561e-04,-1.544452112e-03,-6.326021958e-04,-2.861961327e-04,-9.187983284e-04,-3.664133755e-04,3.474037110e-05,-3.316730044e-04,-2.548551253e-04,-1.641524695e-05,-2.712703722e-04,-1.052519525e-03,-8.391353892e-06,-1.060910879e-03,-5.368331759e-04,1.218417147e-04,-4.149914612e-04,-1.158575185e-03,-9.171937195e-05,-1.250294557e-03,-5.652221708e-04,5.707691748e-05,-5.081452533e-04,-1.460769887e-03,-1.410976388e-05,-1.474879650e-03,-7.680690310e-04,-9.980278016e-06,-7.780493090e-04,-6.961869433e-04,-5.316685560e-05,-7.493537989e-04,-1.010482256e-03,9.779502911e-05,-9.126872267e-04,-9.577302222e-04,2.240219660e-04,-7.337082562e-04,-1.301677473e-03,-1.136869406e-04,-1.415364414e-03,-9.003021916e-04,2.867490348e-04,-6.135531568e-04,-1.259173703e-03,-2.291189833e-04,-1.488292686e-03,-8.824586083e-04,-2.921096168e-05,-9.116695700e-04,-1.613407878e-03,-3.670513059e-04,-1.980459184e-03,-2.410300315e-04,2.822503489e-04,4.122031740e-05,-4.545239862e-04,-4.630141457e-04,-9.175381319e-04,-1.299727769e-04,5.622896992e-04,4.323169223e-04
-5.9,5.476583818e-04,-1.477026001e-04,3.999557817e-04,-6.313375111e-04,-2.809893834e-04,-9.123268944e-04,2.002350468e-04,-9.444569017e-05,1.057893566e-04,-1.199520110e-03,-1.817328284e-04,-1.381252938e-03,-6.142549766e-04,1.664357867e-04,-4.478191899e-04,-1.002890996e-03,-2.516266305e-04,-1.254517626e-03,6.519722419e-05,-1.365158409e-04,-7.131861668e-05,-1.033103077e-03,4.698002581e-06,-1.028405075e-03,-3.155023058e-04,-4.048489081e-05,-3.559871967e-04,-8.224592883e-04,-8.160436856e-05,-9.040636569e-04,-5.091231293e-04,1.123657486e-05,-4.978865545e-04,-1.022895313e-03,1.769059340e-04,-8.459893790e-04,-1.564414662e-03,9.023419512e-04,-6.620727111e-04,-1.048755308e-03,-1.284670556e-04,-1.177222364e-03,-1.412585646e-03,-1.108483478e-05,-1.423670481e-03,-1.927909714e-03,4.878953036e-04,-1.440014410e-03,-4.917243237e-04,-2.982213897e-04,-7.899457134e-04,-2.735223686e-04,5.785304866e-05,-2.156693200e-04,-1.104355012e-04,-4.069064245e-05,-1.511261436e-04,-9.772675608e-04,-5.038593649e-06,-9.823061545e-04,-5.151754342e-04,1.357131860e-04,-3.794622482e-04,-1.106899827e-03,-6.730297047e-05,-1.174202798e-03,-5.757438000e-04,7.948632221e-05,-4.962574778e-04,-1.450705218e-03,9.687274211e-06,-1.441017943e-03,-7.145801267e-04,-4.384432335e-06,-7.189645591e-04,-6.482925335e-04,-5.598696909e-05,-7.042795026e-04,-9.342593701e-04,1.096127893e-04,-8.246465808e-04,-8.699402647e-04,2.495928014e-04,-6.203474634e-04,-1.220290192e-03,-9.815702059e-05,-1.318447212e-03,-8.187974587e-04,2.919272458e-04,-5.268702129e-04,-1.154462733e-03,-2.250892322e-04,-1.379551965e-03,-8.065836629e-04,-7.382473600e-06,-8.139661365e-04,-1.452598945e-03,-3.830575383e-04,-1.835656483e-03,-1.479257950e-04,3.046537461e-04,1.567279512e-04,-3.704945531e-04,-4.048006482e-04,-7.752952013e-04,-1.269268841e-05,5.832359551e-04,5.705432667e-04
-5.8,4.647562615e-04,-1.595475992e-04,3.052086623e-04,-5.716239441e-04,-2.589273270e-04,-8.305512711e-04,1.864741440e-04,-8.405759981e-05,1.024165442e-04,-1.146775564e-03,-1.672047345e-04,-1.313980299e-03,-5.529450762e-04,1.615467283e-04,-3.913983479e-04,-8.846697877e-04,-2.294678741e-04,-1.114137662e-03,1.469844413e-04,-1.494824860e-04,-2.498044712e-06,-9.403502916e-04,5.371947165e-06,-9.349783445e-04,-2.628419796e-04,-3.995560739e-05,-3.027975870e-04,-7.413583254e-04,-8.196337795e-05,-8.233217034e-04,-4.868308458e-04,2.709805723e-05,-4.597327886e-04,-9.621187181e-04,1.987491571e-04,-7.633695611e-04,-1.581543637e-03,9.563698397e-04,-6.251737972e-04,-9.641230502e-04,-1.162391360e-04,-1.080362186e-03,-1.349400379e-03,1.138987031e-05,-1.338010509e-03,-1.829603381e-03,5.014768833e-04,-1.328126498e-03,-3.443754281e-04,-3.108175925e-04,-6.551930206e-04,-1.784779646e-04,7.974580602e-05,-9.873215853e-05,3.352325182e-05,-6.454295940e-05,-3.101970758e-05,-8.968728222e-04,-1.691143211e-06,-8.985639654e-04,-4.906502519e-04,1.487119509e-04,-3.419383010e-04,-1.049868878e-03,-4.293269926e-05,-1.092801577e-03,-5.829837135e-04,1.015453568e-04,-4.814383568e-04,-1.434985250e-03,3.316489984e-05,-1.401820350e-03,-6.571591361e-04,9.986266508e-07,-6.561605095e-04,-5.971358277e-04,-5.878649435e-05,-6.559223220e-04,-8.533417632e-04,1.220847519e-04,-7.312570113e-04,-7.778079906e-04,2.743246219e-04,-5.034833686e-04,-1.134029980e-03,-8.221270710e-05,-1.216242687e-03,-7.336452424e-04,2.958415101e-04,-4.378037323e-04,-1.043985667e-03,-2.202508478e-04,-1.264236515e-03,-7.243561515e-04,1.347368931e-05,-7.108824622e-04,-1.290563413e-03,-3.879325825e-04,-1.678495996e-03,-5.818614553e-05,3.262107091e-04,2.680245636e-04,-2.906590159e-04,-3.399786598e-04,-6.306376757e-04,1.050918931e-04,5.999295050e-04,7.050213982e-04
-5.7,3.749794546e-04,-1.716156648e-04,2.033637897e-04,-5.100288574e-04,-2.355509771e-04,-7.455798345e-04,1.695540814e-04,-7.324389549e-05,9.631018586e-05,-1.090859774e-03,-1.521476967e-04,-1.243007471e-03,-4.890465606e-04,1.560835497e-04,-3.329630110e-04,-7.619791067e-04,-2.060666616e-04,-9.680457683e-04,2.277513793e-04,-1.622906892e-04,6.546069009e-05,-8.426192606e-04,6.044310503e-06,-8.365749501e-04,-2.089546709e-04,-3.939076945e-05,-2.483454403e-04,-6.566726070e-04,-8.208369197e-05,-7.387562989e-04,-4.618182654e-04,4.282047664e-05,-4.189977887e-04,-8.946952107e-04,2.194015166e-04,-6.752936941e-04,-1.589321495e-03,1.001946561e-03,-5.873749335e-04,-8.749586662e-04,-1.032855315e-04,-9.782441977e-04,-1.279255771e-03,3.364039525e-05,-1.245615375e-03,-1.721018316e-03,5.117029183e-04,-1.209315397e-03,-1.914574658e-04,-3.239014527e-04,-5.153589184e-04,-8.178675188e-05,1.003413232e-04,1.855457131e-05,1.764322551e-04,-8.789779350e-05,8.853446157e-05,-8.115907413e-04,1.672168794e-06,-8.099185725e-04,-4.633154640e-04,1.608055705e-04,-3.025098935e-04,-9.876179081e-04,-1.860943902e-05,-1.006227347e-03,-5.868168582e-04,1.232081963e-04,-4.636086620e-04,-1.413544708e-03,5.635242603e-05,-1.357192282e-03,-5.958148157e-04,6.144823681e-06,-5.896699920e-04,-5.429171895e-04,-6.139710166e-05,-6.043142911e-04,-7.676749849e-04,1.349962004e-04,-6.326787845e-04,-6.821168950e-04,2.980240260e-04,-3.840928690e-04,-1.043234625e-03,-6.586798398e-05,-1.109102609e-03,-6.451430465e-04,2.984612337e-04,-3.466818128e-04,-9.281946649e-04,-2.145335299e-04,-1.142728195e-03,-6.357838491e-04,3.296570186e-05,-6.028181473e-04,-1.127768634e-03,-3.816242452e-04,-1.509392880e-03,2.827355420e-05,3.465632711e-04,3.748368253e-04,-2.146400427e-04,-2.698801817e-04,-4.845202244e-04,2.232390088e-04,6.123305841e-04,8.355695930e-04
-5.6,2.786836900e-04,-1.837330807e-04,9.495060929e-05,-4.468025404e-04,-2.108940331e-04,-6.576965735e-04,1.495534092e-04,-6.194848353e-05,8.760492563e-05,-1.031800105e-03,-1.365539999e-04,-1.168354104e-03,-4.226516697e-04,1.500438114e-04,-2.726078583e-04,-6.353099736e-04,-1.814741324e-04,-8.167841060e-04,3.071298038e-04,-1.748653471e-04,1.322644568e-04,-7.402799301e-04,6.759645531e-06,-7.335202846e-04,-1.540324709e-04,-3.876935233e-05,-1.928018232e-04,-5.687319652e-04,-8.193324143e-05,-6.506652066e-04,-4.340305222e-04,5.835673752e-05,-3.756737847e-04,-8.205225702e-04,2.387383504e-04,-5.817842198e-04,-1.587826401e-03,1.039008706e-03,-5.488176948e-04,-7.814094079e-04,-8.959447036e-05,-8.710038782e-04,-1.202108742e-03,5.543858646e-05,-1.146670156e-03,-1.602773399e-03,5.186249223e-04,-1.084148476e-03,-3.400640763e-05,-3.373459552e-04,-3.713523629e-04,1.602530602e-05,1.195829305e-04,1.356082365e-04,3.177394571e-04,-1.106942217e-04,2.070452354e-04,-7.217091100e-04,5.068505736e-06,-7.166406043e-04,-4.332499030e-04,1.719652340e-04,-2.612846690e-04,-9.203220447e-04,5.664539346e-06,-9.146575053e-04,-5.871489709e-04,1.444281752e-04,-4.427207958e-04,-1.386342815e-03,7.928139250e-05,-1.307061422e-03,-5.305993335e-04,1.103795782e-05,-5.195613756e-04,-4.858563796e-04,-6.365465128e-05,-5.495110309e-04,-6.772318035e-04,1.480932277e-04,-5.291385758e-04,-5.836964293e-04,3.205155889e-04,-2.631808404e-04,-9.482472489e-04,-4.914550919e-05,-9.973927581e-04,-5.535990477e-04,2.997586342e-04,-2.538404135e-04,-8.075823381e-04,-2.078669218e-04,-1.015449260e-03,-5.409509270e-04,5.071265505e-05,-4.902382720e-04,-9.644780875e-04,-3.644311046e-04,-1.328909192e-03,1.115828867e-04,3.654119763e-04,4.769948630e-04,-1.420092954e-04,-1.958750661e-04,-3.378843615e-04,3.415031905e-04,6.204942766e-04,9.619974671e-04
-5.5,1.763474646e-04,-1.957143871e-04,-1.936692251e-05,-3.821950177e-04,-1.850028359e-04,-5.671978536e-04,1.266023958e-04,-5.012361642e-05,7.647877942e-05,-9.696128296e-04,-1.204168856e-04,-1.090029715e-03,-3.538812699e-04,1.434242806e-04,-2.104569893e-04,-5.051792784e-04,-1.557555549e-04,-6.609348333e-04,3.847708395e-04,-1.871286383e-04,1.976422012e-04,-6.337331853e-04,7.558031603e-06,-6.261751537e-04,-9.827286917e-05,-3.807232167e-05,-1.363451908e-04,-4.778783792e-04,-8.148360015e-05,-5.593619793e-04,-4.034353100e-04,7.365394426e-05,-3.297813657e-04,-7.395731161e-04,2.566246816e-04,-4.829484345e-04,-1.577264328e-03,1.067629905e-03,-5.096344234e-04,-6.836557132e-04,-7.516800961e-05,-7.588237228e-04,-1.117959837e-03,7.655176248e-05,-1.041408075e-03,-1.475563050e-03,5.223321174e-04,-9.532309330e-04,1.268115551e-04,-3.509830378e-04,-2.241714827e-04,1.144182871e-04,1.374312455e-04,2.518495326e-04,4.569278196e-04,-1.328838266e-04,3.240439929e-04,-6.275496999e-04,8.510740467e-06,-6.190389595e-04,-4.005554769e-04,1.821659891e-04,-2.183894878e-04,-8.481980261e-04,2.988457171e-05,-8.183134544e-04,-5.839198605e-04,1.651577010e-04,-4.187621595e-04,-1.353365683e-03,1.019841465e-04,-1.251381536e-03,-4.616115836e-04,1.567013723e-05,-4.459414464e-04,-4.261893966e-04,-6.540492610e-05,-4.915943227e-04,-5.820211918e-04,1.610888217e-04,-4.209323701e-04,-4.834046325e-04,3.416406042e-04,-1.417640283e-04,-8.494162935e-04,-3.207648434e-05,-8.814927778e-04,-4.593371845e-04,2.997135699e-04,-1.596236146e-04,-6.826791788e-04,-2.001836784e-04,-8.828628572e-04,-4.400288474e-04,6.635366860e-05,-3.736751788e-04,-8.007539319e-04,-3.369981470e-04,-1.137752079e-03,1.918982991e-04,3.825239871e-04,5.744222862e-04,-7.231087708e-05,-1.193460914e-04,-1.916569685e-04,4.595461948e-04,6.245433954e-04,1.084089590e-03
-5.4,6.857435081e-05,-2.073633097e-04,-1.387889589e-04,-3.164559118e-04,-1.579368644e-04,-4.743927762e-04,1.008825055e-04,-3.773168293e-05,6.315082257e-05,-9.043050096e-04,-1.037313173e-04,-1.008036327e-03,-2.828891182e-04,1.362209673e-04,-1.466681509e-04,-3.721298763e-04,-1.289905756e-04,-5.011204519e-04,4.603455538e-04,-1.989999378e-04,2.613456160e-04,-5.234115843e-04,8.474556542e-06,-5.149370278e-04,-4.188023036e-05,-3.728288478e-05,-7.916311514e-05,-3.844666946e-04,-8.071008616e-05,-4.651767807e-04,-3.700278049e-04,8.865394377e-05,-2.813738611e-04,-6.519047513e-04,2.729153218e-04,-3.789894295e-04,-1.557953560e-03,1.087997637e-03,-4.699559224e-04,-5.819162178e-04,-6.002366991e-05,-6.419398878e-04,-1.026866182e-03,9.675261263e-05,-9.301135696e-04,-1.340156818e-03,5.229550993e-04,-8.172017188e-04,2.897049856e-04,-3.646048527e-04,-7.489986710e-05,2.128433954e-04,1.538605623e-04,3.667039577e-04,5.935117491e-04,-1.544298370e-04,4.390819121e-04,-5.294702749e-04,1.200742175e-05,-5.174628532e-04,-3.653595407e-04,1.913871748e-04,-1.739723658e-04,-7.715063738e-04,5.404270676e-05,-7.174636670e-04,-5.771065569e-04,1.853481866e-04,-3.917583703e-04,-1.314628931e-03,1.244923004e-04,-1.190136630e-03,-3.890002744e-04,2.004170479e-05,-3.689585696e-04,-3.641664458e-04,-6.650935418e-05,-4.306758000e-04,-4.820997227e-04,1.736722005e-04,-3.084275222e-04,-3.821066696e-04,3.612522518e-04,-2.085441779e-05,-7.470965043e-04,-1.470022651e-05,-7.617967308e-04,-3.627023516e-04,2.983174084e-04,-6.438494324e-05,-5.540500810e-04,-1.914233851e-04,-7.454734662e-04,-3.332878425e-04,7.955910732e-05,-2.537287352e-04,-6.364727683e-04,-3.002965284e-04,-9.367692968e-04,2.693883826e-04,3.977342167e-04,6.671225994e-04,-5.078936919e-06,-4.167102115e-05,-4.674995807e-05,5.769598836e-04,6.246325401e-04,1.201592424e-03
-5.3,-4.390676297e-05,-2.184740420e-04,-2.623808050e-04,-2.498345348e-04,-1.297691435e-04,-3.796036783e-04,7.262507045e-05,-2.474685680e-05,4.787821365e-05,-8.358772827e-04,-8.649483834e-05,-9.223721211e-04,-2.098656127e-04,1.284292737e-04,-8.143633904e-05,-2.367308907e-04,-1.012731593e-04,-3.380040499e-04,5.335452530e-04,-2.103957506e-04,3.231495024e-04,-4.097799359e-04,9.538937302e-06,-4.002409986e-04,1.493294140e-05,-3.638660232e-05,-2.145366092e-05,-2.888653571e-04,-7.959169017e-05,-3.684570472e-04,-3.338353177e-04,1.032941356e-04,-2.305411821e-04,-5.576723958e-04,2.874586487e-04,-2.702137471e-04,-1.530298777e-03,1.100383954e-03,-4.299148238e-04,-4.764517891e-04,-4.419585436e-05,-5.206476435e-04,-9.289549576e-04,1.158297387e-04,-8.131252188e-04,-1.197400614e-03,5.206718557e-04,-6.767287587e-04,4.532651809e-04,-3.779626966e-04,7.530248425e-05,3.107476826e-04,1.688551351e-04,4.796028176e-04,7.270304090e-04,-1.753046236e-04,5.517257855e-04,-4.278662768e-04,1.556292935e-05,-4.123033475e-04,-3.278170023e-04,1.996129764e-04,-1.282040259e-04,-6.905531786e-04,7.812685422e-05,-6.124263244e-04,-5.667257626e-04,2.049499752e-04,-3.617757874e-04,-1.270179976e-03,1.468350176e-04,-1.123344959e-03,-3.129661713e-04,2.416052424e-05,-2.888056471e-04,-3.000508237e-04,-6.684990638e-05,-3.669007301e-04,-3.775846222e-04,1.855213398e-04,-1.920632824e-04,-2.806517932e-04,3.792111980e-04,9.855940478e-05,-6.416502754e-04,2.936508020e-06,-6.387137674e-04,-2.640648330e-04,2.955758596e-04,3.151102660e-05,-4.222900731e-04,-1.815370712e-04,-6.038271443e-04,-2.211082974e-04,9.004388245e-05,-1.310644149e-04,-4.713562809e-04,-2.555878319e-04,-7.269441128e-04,3.442236722e-04,4.109404391e-04,7.551641113e-04,6.015026982e-05,3.579191621e-05,9.594218603e-05,6.932925470e-04,6.209141083e-04,1.314206655e-03
-5.2,-1.602432710e-04,-2.288329345e-04,-3.890762055e-04,-1.825800505e-04,-1.005865107e-04,-2.831665612e-04,4.210976403e-05,-1.115644461e-05,3.095331941e-05,-7.643269954e-04,-6.870844929e-05,-8.330354447e-04,-1.350399014e-04,1.200443286e-04,-1.499557279e-05,-9.957780678e-05,-7.271119278e-05,-1.722889996e-04,6.040820888e-04,-2.212297049e-04,3.828523839e-04,-2.933351910e-04,1.077525870e-05,-2.825599323e-04,7.194551959e-05,-3.537138371e-05,3.657413588e-05,-1.914565012e-04,-7.811089171e-05,-2.695673930e-04,-2.949209851e-04,1.175084768e-04,-1.774125082e-04,-4.571385584e-04,3.001044030e-04,-1.570341555e-04,-1.494755676e-03,1.105112532e-03,-3.896431438e-04,-3.675675761e-04,-2.773669884e-05,-3.953042749e-04,-8.244345808e-04,1.335971168e-04,-6.908374640e-04,-1.048216740e-03,5.157137836e-04,-5.325029560e-04,6.159814193e-04,-3.907658571e-04,2.252155622e-04,4.075792517e-04,1.824052638e-04,5.899845155e-04,8.570385024e-04,-1.954851173e-04,6.615533851e-04,-3.231713517e-04,1.917764027e-05,-3.039937114e-04,-2.881114818e-04,2.068328814e-04,-8.127860045e-05,-6.056908527e-04,1.021198111e-04,-5.035710416e-04,-5.528351246e-04,2.239122599e-04,-3.289228647e-04,-1.220099560e-03,1.690371711e-04,-1.051062389e-03,-2.337625614e-04,2.804076484e-05,-2.057217966e-04,-2.341182620e-04,-6.633235458e-05,-3.004506166e-04,-2.686658258e-04,1.963173963e-04,-7.234842949e-05,-1.798502338e-04,3.953833747e-04,2.155331409e-04,-5.334487421e-04,2.078059506e-05,-5.126681471e-04,-1.638230245e-04,2.915104578e-04,1.276874333e-04,-2.880194064e-04,-1.704916312e-04,-4.585110376e-04,-1.039900296e-04,9.758168977e-05,-6.408339823e-06,-3.050129156e-04,-2.043767364e-04,-5.093896520e-04,4.165673175e-04,4.220986870e-04,8.386660046e-04,1.238300946e-04,1.117186964e-04,2.355487910e-04,8.080716516e-04,6.135145834e-04,1.421586235e-03
-5.1,-2.794623430e-04,-2.382205390e-04,-5.176828819e-04,-1.149415917e-04,-7.048963951e-05,-1.854312312e-04,9.663104006e-06,3.038144002e-06,1.270124801e-05,-6.896513438e-04,-5.037742338e-05,-7.400287672e-04,-5.867980496e-05,1.110614961e-04,5.238169118e-05,3.870809898e-05,-4.342586621e-05,-4.717767234e-06,6.716901653e-04,-2.314126931e-04,4.402774722e-04,-1.746053332e-04,1.220177839e-05,-1.624035548e-04,1.289282229e-04,-3.422743967e-05,9.470078326e-05,-9.263512445e-05,-7.625346359e-05,-1.688885880e-04,-2.533862054e-04,1.312285661e-04,-1.221576393e-04,-3.506810543e-04,3.107129040e-04,-3.996815032e-05,-1.451790656e-03,1.102525002e-03,-3.492656539e-04,-2.556131083e-04,-1.071611126e-05,-2.663292195e-04,-7.136023503e-04,1.499011435e-04,-5.637012069e-04,-8.935986589e-04,5.083683183e-04,-3.852303406e-04,7.762655278e-04,-4.026832629e-04,3.735822649e-04,5.027930879e-04,1.945037350e-04,6.972968229e-04,9.830968169e-04,-2.149472442e-04,7.681495727e-04,-2.158563978e-04,2.284807586e-05,-1.930083220e-04,-2.464552278e-04,2.130419442e-04,-3.341328361e-05,-5.173175541e-04,1.259981701e-04,-3.913193840e-04,-5.355332462e-04,2.421830392e-04,-2.933502070e-04,-1.164502496e-03,1.911174979e-04,-9.733849978e-04,-1.516933778e-04,3.170152617e-05,-1.199918517e-04,-1.666562334e-04,-6.488760426e-05,-2.315438377e-04,-1.556144199e-04,2.057591984e-04,5.014477848e-05,-8.044993181e-05,4.096390158e-04,3.291890840e-04,-4.228725697e-04,3.877413147e-05,-3.840984383e-04,-6.240396671e-05,2.861582702e-04,2.237543035e-04,-1.518786892e-04,-1.582730898e-04,-3.101517789e-04,1.744322492e-05,1.020181270e-04,1.194613519e-04,-1.369861521e-04,-1.483561235e-04,-2.853422756e-04,4.865626413e-04,4.312228126e-04,9.177854540e-04,1.863978130e-04,1.848360158e-04,3.712338288e-04,9.208210821e-04,6.025237639e-04,1.523344846e-03
-5,-4.004769381e-04,-2.464139676e-04,-6.468909058e-04,-4.716824162e-05,-3.959281612e-05,-8.676105774e-05,-2.434345281e-05,1.782073977e-05,-6.522713047e-06,-6.118507455e-04,-3.151202815e-05,-6.433627736e-04,1.891001525e-05,1.014769584e-04,1.203869736e-04,1.774811978e-04,-1.355095430e-05,1.639302435e-04,7.361267175e-04,-2.408532382e-04,4.952734792e-04,-5.414735603e-05,1.383077643e-05,-4.031657960e-05,1.856446242e-04,-3.294721636e-05,1.526974078e-04,7.192276491e-06,-7.400829687e-05,-6.681602038e-05,-2.093721323e-04,1.443847672e-04,-6.498736515e-05,-2.387964303e-04,3.191625871e-04,8.036615678e-05,-1.401841962e-03,1.092951236e-03,-3.088907257e-04,-1.409815584e-04,6.778978703e-06,-1.342025797e-04,-5.968487848e-04,1.646248759e-04,-4.322239089e-04,-7.345983141e-04,4.989750355e-04,-2.356232786e-04,9.324833282e-04,-4.133485663e-04,5.191347618e-04,5.958563912e-04,2.051437958e-04,8.010001870e-04,1.104764478e-03,-2.336604766e-04,8.711040013e-04,-1.064276035e-04,2.656717754e-05,-7.986042596e-05,-2.030881452e-04,2.182409713e-04,1.515282614e-05,-4.258756069e-04,1.497313298e-04,-2.761442771e-04,-5.149588435e-04,2.597091357e-04,-2.552497078e-04,-1.103538090e-03,2.130868299e-04,-8.904512600e-04,-6.710937072e-05,3.516554947e-05,-3.194382125e-05,-9.796323365e-05,-6.247142504e-05,-1.604346587e-04,-3.878659022e-05,2.135757310e-04,1.747891407e-04,1.688422542e-05,4.218531608e-04,4.387373862e-04,-3.103130108e-04,5.685644503e-05,-2.534565658e-04,3.973799424e-05,2.795696826e-04,3.193076769e-04,-1.452518983e-05,-1.448875906e-04,-1.594127805e-04,1.424455581e-04,1.032806838e-04,2.457262419e-04,3.319117466e-05,-8.934450051e-05,-5.615332585e-05,5.543186169e-04,4.383846701e-04,9.927032871e-04,2.482695887e-04,2.539411862e-04,5.022107750e-04,1.031073545e-03,5.879958422e-04,1.619069387e-03
-4.9,-5.220954746e-04,-2.531896428e-04,-7.752851174e-04,2.049109180e-05,-8.023550432e-06,1.246754136e-05,-5.949671719e-05,3.315998142e-05,-2.633673577e-05,-5.309330751e-04,-1.212818972e-05,-5.430612648e-04,9.739062005e-05,9.128828560e-05,1.886789057e-04,3.160736631e-04,1.676803374e-05,3.328416969e-04,7.971726013e-04,-2.494580991e-04,5.477145022e-04,6.745529107e-05,1.566850028e-05,8.312379135e-05,2.418520581e-04,-3.152526462e-05,2.103267934e-04,1.076088595e-04,-7.136719801e-05,3.624166152e-05,-1.630608401e-04,1.569074314e-04,-6.153408710e-06,-1.220991371e-04,3.253546689e-04,2.032555318e-04,-1.345289099e-03,1.076690435e-03,-2.685986646e-04,-2.410939992e-05,2.464594427e-05,5.365443557e-07,-4.746589896e-04,1.776896174e-04,-2.969693722e-04,-5.723059993e-04,4.879131569e-04,-8.439284235e-05,1.082988880e-03,-4.223672389e-04,6.606216407e-04,6.862522818e-04,2.143191372e-04,9.005714190e-04,1.221593286e-03,-2.515829065e-04,9.700103797e-04,4.575760734e-06,3.032479601e-05,3.490055674e-05,-1.582765787e-04,2.224367385e-04,6.416015981e-05,-3.318494749e-04,1.732807957e-04,-1.585686792e-04,-4.912895910e-04,2.764362592e-04,-2.148533318e-04,-1.037390818e-03,2.349463985e-04,-8.024444196e-04,1.959668031e-05,3.845792672e-05,5.805460703e-05,-2.834853585e-05,-5.906317369e-05,-8.741170954e-05,8.137569650e-05,2.195350683e-04,3.009107649e-04,1.115823282e-04,4.319098218e-04,5.434921500e-04,-1.961736947e-04,7.496617388e-05,-1.212075208e-04,1.421237867e-04,2.718047952e-04,4.139285819e-04,1.233690826e-04,-1.303597038e-04,-6.990621228e-06,2.701559530e-04,1.013846839e-04,3.715406369e-04,2.059363584e-04,-2.921449475e-05,1.767218636e-04,6.198963994e-04,4.437101904e-04,1.063606590e-03,3.098323446e-04,3.179269078e-04,6.277592524e-04,1.138377646e-03,5.699601902e-04,1.708337837e-03
-4.8,-6.430362988e-04,-2.583265707e-04,-9.013628695e-04,8.778773702e-05,2.407796674e-05,1.118657038e-04,-9.534699316e-05,4.900915637e-05,-4.633783679e-05,-4.469193174e-04,7.751871586e-06,-4.391674458e-04,1.763913566e-04,8.049504077e-05,2.568863973e-04,4.537980832e-04,4.737498988e-05,5.011730731e-04,8.546315568e-04,-2.571330647e-04,5.974984921e-04,1.895954642e-04,1.771529753e-05,2.073107618e-04,2.973020992e-04,-2.995800365e-05,2.673440956e-04,2.081878602e-04,-6.832461675e-05,1.398632434e-04,-1.146764918e-04,1.687282884e-04,5.405179662e-05,-1.317819471e-06,3.292160256e-04,3.278982061e-04,-1.282435988e-03,1.054008219e-03,-2.284277691e-04,9.452322790e-05,4.276821181e-05,1.372914397e-04,-3.476110361e-04,1.890541115e-04,-1.585569247e-04,-4.078250080e-04,4.755805786e-04,6.775557061e-05,1.226160380e-03,-4.293252993e-04,7.968350808e-04,7.734816524e-04,2.220251533e-04,9.955068057e-04,1.333123474e-03,-2.686568737e-04,1.064466600e-03,1.165834211e-04,3.410828125e-05,1.506917024e-04,-1.123121908e-04,2.256421760e-04,1.133299852e-04,-2.357635201e-04,1.965997401e-04,-3.916377998e-05,-4.647408833e-04,2.923091040e-04,-1.724317793e-04,-9.662815790e-04,2.566862128e-04,-7.095953661e-04,1.079947547e-04,4.160459742e-05,1.495993521e-04,4.186727864e-05,-5.466409809e-05,-1.279681945e-05,2.043450960e-04,2.234499811e-04,4.277950772e-04,2.031688142e-04,4.397105987e-04,6.428794129e-04,-8.087286322e-05,9.304287503e-05,1.217001181e-05,2.442530224e-04,2.629295261e-04,5.071825485e-04,2.611180561e-04,-1.147288710e-04,1.463891850e-04,3.996083797e-04,9.643568864e-05,4.960440683e-04,3.815560832e-04,3.018245103e-05,4.117385343e-04,6.832973863e-04,4.473721883e-04,1.130669575e-03,3.714306471e-04,3.758098517e-04,7.472404988e-04,1.242297982e-03,5.484395978e-04,1.790737580e-03
-4.7,-7.619476421e-04,-2.616102164e-04,-1.023557859e-03,1.544730909e-04,5.655966330e-05,2.110327542e-04,-1.314154510e-04,6.530649907e-05,-6.610895197e-05,-3.598507291e-04,2.809904844e-05,-3.317516807e-04,2.555125437e-04,6.909957173e-05,3.246121154e-04,5.899505014e-04,7.810471279e-05,6.680552142e-04,9.083282206e-04,-2.637839008e-04,6.445443198e-04,3.116452770e-04,1.996600032e-05,3.316112773e-04,3.517407848e-04,-2.824339034e-05,3.234973944e-04,3.084923180e-04,-6.487732634e-05,2.436149917e-04,-6.448627749e-05,1.797820013e-04,1.152957238e-04,1.227103611e-04,3.307021001e-04,4.534124612e-04,-1.213508133e-03,1.025147331e-03,-1.883608015e-04,2.143921625e-04,6.101749951e-05,2.754096620e-04,-2.163717796e-04,1.987120525e-04,-1.765972718e-05,-2.422444249e-04,4.623667960e-04,2.201223712e-04,1.360439650e-03,-4.338013091e-04,9.266383412e-04,8.570634479e-04,2.282606321e-04,1.085324080e-03,1.438880445e-03,-2.848050053e-04,1.154075440e-03,2.289962574e-04,3.790303660e-05,2.668992940e-04,-6.551078481e-05,2.278763920e-04,1.623656072e-04,-1.381792977e-04,2.196326994e-04,8.145340175e-05,-4.355642749e-04,3.072715304e-04,-1.282927445e-04,-8.904694651e-04,2.782836057e-04,-6.121858594e-04,1.976216967e-04,4.463065180e-05,2.422523485e-04,1.123513392e-04,-4.929566418e-05,6.305567497e-05,3.295091432e-04,2.251818379e-04,5.546909812e-04,2.912526106e-04,4.451851669e-04,7.364377775e-04,3.515466677e-05,1.110278300e-04,1.461824968e-04,3.456079041e-04,2.530124603e-04,5.986203645e-04,3.980221245e-04,-9.804526241e-05,2.999768620e-04,5.297438644e-04,8.862878454e-05,6.183726490e-04,5.601962490e-04,8.708395088e-05,6.472801999e-04,7.444513543e-04,4.495839400e-04,1.194035294e-03,4.333500650e-04,4.267592549e-04,8.601093199e-04,1.342408793e-03,5.234725270e-04,1.865881320e-03
-4.6,-8.774332413e-04,-2.628369991e-04,-1.140270240e-03,2.202982306e-04,8.925875413e-05,3.095569847e-04,-1.672032345e-04,8.197613104e-05,-8.522710344e-05,-2.697970849e-04,4.887676643e-05,-2.209203184e-04,3.343291308e-04,5.710812976e-05,3.914372606e-04,7.238141825e-04,1.087847386e-04,8.325989211e-04,9.581053015e-04,-2.693174579e-04,6.887878436e-04,4.329595565e-04,2.241056057e-05,4.553701171e-04,4.049091104e-04,-2.638051780e-05,3.785285926e-04,4.080746268e-04,-6.102410594e-05,3.470505209e-04,-1.280043408e-05,1.900078326e-04,1.772073985e-04,2.490488016e-04,3.298001628e-04,5.788489644e-04,-1.138658465e-03,9.903423462e-04,-1.483161192e-04,3.349302501e-04,7.925670666e-05,4.141869568e-04,-8.169076958e-05,2.066890920e-04,1.249983224e-04,-7.661330379e-05,4.486237937e-04,3.720104900e-04,1.484375731e-03,-4.353822113e-04,1.048993520e-03,9.365335726e-04,2.330298306e-04,1.169563403e-03,1.538373290e-03,-2.999269405e-04,1.238446350e-03,3.411890902e-04,4.169308947e-05,3.828821796e-04,-1.821065160e-05,2.291645484e-04,2.109538968e-04,-3.969188554e-05,2.423154692e-04,2.026235837e-04,-4.040450585e-04,3.212669330e-04,-8.277812549e-05,-8.102535991e-04,2.997020829e-04,-5.105515162e-04,2.879845532e-04,4.755857959e-05,3.355431328e-04,1.827578269e-04,-4.299801728e-05,1.397598097e-04,4.561708653e-04,2.246440175e-04,6.808148828e-04,3.755149662e-04,4.482995300e-04,8.238144962e-04,1.514564158e-04,1.288642094e-04,2.803206252e-04,4.456574578e-04,2.421229887e-04,6.877804466e-04,5.333694685e-04,-8.036581448e-05,4.530036540e-04,6.594261836e-04,7.824350366e-05,7.376696872e-04,7.418089664e-04,1.398693649e-04,8.816783313e-04,8.032055076e-04,4.505941846e-04,1.253799692e-03,4.957981802e-04,4.701221419e-04,9.659203220e-04,1.438285607e-03,4.951337492e-04,1.933419356e-03
-4.5,-9.880834722e-04,-2.618194811e-04,-1.249902953e-03,2.850135497e-04,1.220033045e-04,4.070168542e-04,-2.022016286e-04,9.892973424e-05,-1.032718944e-04,-1.768652147e-04,7.004027226e-05,-1.068249425e-04,4.123964856e-04,4.453235897e-05,4.569288446e-04,8.546645996e-04,1.392374633e-04,9.939020629e-04,1.003820533e-03,-2.736429815e-04,7.301775511e-04,5.528803147e-04,2.503489481e-05,5.779152095e-04,4.565444491e-04,-2.436913385e-05,4.321753153e-04,5.064766428e-04,-5.676544896e-05,4.497111938e-04,4.002949464e-05,1.993513871e-04,2.393808818e-04,3.766768100e-04,3.265313111e-04,7.032081212e-04,-1.057977335e-03,9.498307795e-04,-1.081465555e-04,4.555314173e-04,9.734352166e-05,5.528749390e-04,5.560807611e-05,2.130401736e-04,2.686482497e-04,8.808039096e-05,4.346404126e-04,5.227208035e-04,1.596669030e-03,-4.336806504e-04,1.162988380e-03,1.011442669e-03,2.363453586e-04,1.247788028e-03,1.631096612e-03,-3.138979655e-04,1.317198647e-03,4.525147650e-04,4.546184859e-05,4.979766136e-04,2.923002118e-05,2.295377482e-04,2.587677693e-04,5.907532088e-05,2.645754350e-04,3.236507559e-04,-3.704983738e-04,3.342388693e-04,-3.625950451e-05,-7.259743082e-04,3.208905420e-04,-4.050837662e-04,3.785640998e-04,5.040644085e-05,4.289705407e-04,2.527285050e-04,-3.582824634e-05,2.169002587e-04,5.835515516e-04,2.218046003e-04,8.053561520e-04,4.556998593e-04,4.490593463e-04,9.047592056e-04,2.675626125e-04,1.464967918e-04,4.140594042e-04,5.438626151e-04,2.303307483e-04,7.741933635e-04,6.664391154e-04,-6.175084513e-05,6.046882703e-04,7.874639204e-04,6.563275135e-05,8.530966717e-04,9.261361208e-04,1.870989596e-04,1.113235080e-03,8.593193262e-04,4.506793590e-04,1.309998685e-03,5.588838614e-04,5.054432172e-04,1.064327079e-03,1.529499298e-03,4.635482995e-04,1.993047597e-03
-4.4,-1.092511728e-03,-2.583923620e-04,-1.350904090e-03,3.483688196e-04,1.546141662e-04,5.029829858e-04,-2.359027629e-04,1.160689608e-04,-1.198338022e-04,-8.120697155e-05,9.153565134e-05,1.032867978e-05,4.892591602e-04,3.139112018e-05,5.206502804e-04,9.817760902e-04,1.692826450e-04,1.151058735e-03,1.045343900e-03,-2.766736499e-04,7.686702504e-04,6.707426478e-04,2.782189750e-05,6.985645453e-04,5.063833055e-04,-2.220906803e-05,4.841742374e-04,6.032309136e-04,-5.210330219e-05,5.511276114e-04,9.361473376e-05,2.077664169e-04,3.013811507e-04,5.045123802e-04,3.209500553e-04,8.254624355e-04,-9.715079944e-04,9.038611293e-04,-6.764686517e-05,5.755588536e-04,1.151346354e-04,6.906934889e-04,1.946380305e-04,2.178472419e-04,4.124852724e-04,2.509232971e-04,4.206251805e-04,6.715484776e-04,1.696210886e-03,-4.283505848e-04,1.267860301e-03,1.081353640e-03,2.382320697e-04,1.319585710e-03,1.716536321e-03,-3.265706727e-04,1.389965648e-03,5.623100573e-04,4.919306945e-05,6.115031267e-04,7.643702240e-05,2.290330071e-04,3.054700295e-04,1.574778195e-04,2.863325040e-04,4.438103235e-04,-3.352635152e-04,3.461319481e-04,1.086843290e-05,-6.380129849e-04,3.417828498e-04,-2.962301351e-04,4.688200792e-04,5.318596292e-05,5.220060421e-04,3.218951079e-04,-2.785798891e-05,2.940371190e-04,7.107982909e-04,2.166869321e-04,9.274852231e-04,5.316076161e-04,4.475089839e-04,9.791166000e-04,3.829886681e-04,1.638709795e-04,5.468596476e-04,6.396828146e-04,2.177060540e-04,8.573888687e-04,7.965069142e-04,-4.226169227e-05,7.542452219e-04,9.126398995e-04,5.120613092e-05,9.638460304e-04,1.112705809e-03,2.275459414e-04,1.340251750e-03,9.124715886e-04,4.501284334e-04,1.362600022e-03,6.225998644e-04,5.324757295e-04,1.155075594e-03,1.615613972e-03,4.288972554e-04,2.044511228e-03
-4.3,-1.189395579e-03,-2.524191990e-04,-1.441814778e-03,4.101139654e-04,1.869073024e-04,5.970212678e-04,-2.678108729e-04,1.332884751e-04,-1.345223978e-04,1.697398401e-05,1.132986593e-04,1.302726433e-04,5.644623906e-04,1.771253487e-05,5.821749255e-04,1.104430242e-03,1.987404003e-04,1.303170642e-03,1.082555284e-03,-2.783283112e-04,8.042269726e-04,7.858819735e-04,3.075258131e-05,8.166345548e-04,5.541651609e-04,-1.989961750e-05,5.342655434e-04,6.978630036e-04,-4.704086433e-05,6.508221393e-04,1.475355878e-04,2.152166241e-04,3.627522119e-04,6.314399445e-04,3.131424669e-04,9.445824114e-04,-8.792710449e-04,8.527024030e-04,-2.656864189e-05,6.943566534e-04,1.324902712e-04,8.268469246e-04,3.344642698e-04,2.212168579e-04,5.556811277e-04,4.110821334e-04,4.066992981e-04,8.177814316e-04,1.782115436e-03,-4.190992795e-04,1.363016156e-03,1.145840329e-03,2.387316575e-04,1.384571987e-03,1.794178793e-03,-3.377795570e-04,1.456399236e-03,6.699033618e-04,5.287182736e-05,7.227751891e-04,1.230252766e-04,2.276931824e-04,3.507184590e-04,2.548593077e-04,3.075005991e-04,5.623599068e-04,-2.986967179e-04,3.568929364e-04,5.819621852e-05,-5.467904774e-04,3.622978342e-04,-1.844926432e-04,5.581988651e-04,5.590094225e-05,6.140998074e-04,3.898836755e-04,-1.917034908e-05,3.707133264e-04,8.369981933e-04,2.093667732e-04,1.046364966e-03,6.030893008e-04,4.437295278e-04,1.046818829e-03,4.972397332e-04,1.809308310e-04,6.781705641e-04,7.325835494e-04,2.043210168e-04,9.369045662e-04,9.228549544e-04,-2.195980092e-05,9.008951535e-04,1.033746058e-03,3.541031357e-05,1.069156372e-03,1.300836499e-03,2.602249400e-04,1.561061439e-03,9.622836066e-04,4.492191314e-04,1.411502738e-03,6.868185543e-04,5.511767635e-04,1.237995318e-03,1.696189143e-03,3.914160077e-04,2.087605151e-03
-4.2,-1.277521016e-03,-2.437993087e-04,-1.521320325e-03,4.700004808e-04,2.186965087e-04,6.886969894e-04,-2.974545463e-04,1.504793325e-04,-1.469752138e-04,1.174168731e-04,1.352537168e-04,2.526705899e-04,6.375646221e-04,3.536004098e-06,6.411006262e-04,1.221925426e-03,2.274346149e-04,1.449360041e-03,1.115342335e-03,-2.785333144e-04,8.368090205e-04,8.976418863e-04,3.380726521e-05,9.314491515e-04,5.996365203e-04,-1.743900068e-05,5.821975197e-04,7.898942744e-04,-4.158249401e-05,7.483117804e-04,2.013491813e-04,2.216773428e-04,4.230265242e-04,7.563384262e-04,3.032242372e-04,1.059562663e-03,-7.812975875e-04,7.966573267e-04,1.535973919e-05,8.112625149e-04,1.492786221e-04,9.605411370e-04,4.741199787e-04,2.232771826e-04,6.973971613e-04,5.678022632e-04,3.928984332e-04,9.607006964e-04,1.853742473e-03,-4.056949951e-04,1.448047478e-03,1.204488374e-03,2.379072004e-04,1.442395574e-03,1.863522753e-03,-3.473479111e-04,1.516174842e-03,7.746234101e-04,5.648530637e-05,8.311087164e-04,1.686048321e-04,2.255667186e-04,3.941715507e-04,3.505626008e-04,3.279896236e-04,6.785522244e-04,-2.611632898e-04,3.664720413e-04,1.053087515e-04,-4.527643215e-04,3.823398962e-04,-7.042442526e-05,6.461427131e-04,5.854656819e-05,7.046892813e-04,4.563200077e-04,-9.856503014e-06,4.464635047e-04,9.611981685e-04,1.999664074e-04,1.161164576e-03,6.700399180e-04,4.378372102e-04,1.107877128e-03,6.098161474e-04,1.976164859e-04,8.074326332e-04,8.220431707e-04,1.902511002e-04,1.012294271e-03,1.044783185e-03,-9.073949380e-07,1.043875790e-03,1.149620286e-03,1.870919920e-05,1.168329485e-03,1.489643569e-03,2.844152181e-04,1.774058787e-03,1.008356901e-03,4.481881954e-04,1.456545097e-03,7.513078175e-04,5.616826325e-04,1.312990450e-03,1.770785578e-03,3.513873574e-04,2.122172936e-03
-4.1,-1.355825641e-03,-2.324738409e-04,-1.588299482e-03,5.277830953e-04,2.497964024e-04,7.775794977e-04,-3.243999433e-04,1.675322244e-04,-1.568677189e-04,2.198001381e-04,1.573134512e-04,3.771135893e-04,7.081486826e-04,-1.108614833e-05,6.970625343e-04,1.333586423e-03,2.551964412e-04,1.588782865e-03,1.143598444e-03,-2.772242772e-04,8.663741669e-04,1.005381718e-03,3.696669608e-05,1.042348414e-03,6.425542389e-04,-1.482395451e-05,6.277302844e-04,8.788443675e-04,-3.573373625e-05,8.431106313e-04,2.545976481e-04,2.271370195e-04,4.817346676e-04,8.781054825e-04,2.913386332e-04,1.169444116e-03,-6.776666267e-04,7.360778717e-04,5.841124498e-05,9.256188998e-04,1.653797971e-04,1.090998697e-03,6.126216937e-04,2.241740241e-04,8.367957178e-04,7.204010658e-04,3.791809558e-04,1.099582022e-03,1.910710223e-03,-3.879715369e-04,1.522738686e-03,1.256898277e-03,2.358466165e-04,1.492744893e-03,1.924093261e-03,-3.550964000e-04,1.568996861e-03,8.758079493e-04,6.002342767e-05,9.358313769e-04,2.127869867e-04,2.227072700e-04,4.354942567e-04,4.439413092e-04,3.477079021e-04,7.916492112e-04,-2.230300400e-04,3.748243106e-04,1.517942707e-04,-3.564251346e-04,4.018004749e-04,4.537534023e-05,7.320988956e-04,6.111007017e-05,7.932089658e-04,5.208349324e-04,-1.215312721e-08,5.208227793e-04,1.082426765e-03,1.886470685e-04,1.271073834e-03,7.323912345e-04,4.299795696e-04,1.162370804e-03,7.202182652e-04,2.138618106e-04,9.340800758e-04,9.075577149e-04,1.755767853e-04,1.083134500e-03,1.161620726e-03,2.083060929e-05,1.182451335e-03,1.259181890e-03,1.565068065e-06,1.260746958e-03,1.678047178e-03,2.996741905e-04,1.977721369e-03,1.050316528e-03,4.472011645e-04,1.497517692e-03,8.157649769e-04,5.642680946e-04,1.380033071e-03,1.838970398e-03,3.091349766e-04,2.148105375e-03
-4,-1.423435363e-03,-2.184300428e-04,-1.641865406e-03,5.832213325e-04,2.800254279e-04,8.632467603e-04,-3.482639707e-04,1.843401945e-04,-1.639237762e-04,3.237395651e-04,1.793789508e-04,5.031185158e-04,7.758299904e-04,-2.608767019e-05,7.497423202e-04,1.438773198e-03,2.818675129e-04,1.720640711e-03,1.167220835e-03,-2.743476414e-04,8.928731933e-04,1.108483249e-03,4.021302141e-05,1.148696271e-03,6.826877726e-04,-1.204945246e-05,6.706383201e-04,9.642330767e-04,-2.950140001e-05,9.347316767e-04,3.068161699e-04,2.315984964e-04,5.384146663e-04,9.956762558e-04,2.776539699e-04,1.273330226e-03,-5.685415360e-04,6.713812062e-04,1.028396702e-04,1.036781474e-03,1.806890377e-04,1.217470512e-03,7.489829986e-04,2.240657574e-04,9.730487559e-04,8.682589115e-04,3.654399533e-04,1.233698865e-03,1.952898059e-03,-3.658329297e-04,1.587065130e-03,1.302690147e-03,2.326640582e-04,1.535354205e-03,1.975456532e-03,-3.608523914e-04,1.614604140e-03,9.728116420e-04,6.347945685e-05,1.036291099e-03,2.551900402e-04,2.191733892e-04,4.743634294e-04,5.343714136e-04,3.665650757e-04,9.009364893e-04,-1.846585287e-04,3.819110508e-04,1.972525221e-04,-2.582922074e-04,4.205604077e-04,1.622682002e-04,8.155273732e-04,6.357258830e-05,8.790999615e-04,5.830685928e-04,1.026624103e-05,5.933348338e-04,1.199715867e-03,1.755997110e-04,1.375315577e-03,7.901053049e-04,4.203268902e-04,1.210432195e-03,8.279499953e-04,2.295928597e-04,1.057542855e-03,9.886438573e-04,1.603848832e-04,1.149028740e-03,1.272734818e-03,4.318434049e-05,1.315919158e-03,1.361461017e-03,-1.557792699e-05,1.345883090e-03,1.864784199e-03,3.058388561e-04,2.170623055e-03,1.087848683e-03,4.463279156e-04,1.534176598e-03,8.798583352e-04,5.593004420e-04,1.439158777e-03,1.900316910e-03,2.650226812e-04,2.165339591e-03
-3.9,-1.479690728e-03,-2.017032776e-04,-1.681394006e-03,6.360808907e-04,3.092086662e-04,9.452895569e-04,-3.687258307e-04,2.008007464e-04,-1.679250843e-04,4.287883169e-04,2.013406726e-04,6.301289894e-04,8.402616601e-04,-4.138804188e-05,7.988736182e-04,1.536888409e-03,3.073026986e-04,1.844191108e-03,1.186109069e-03,-2.698619033e-04,9.162471661e-04,1.206356485e-03,4.353060430e-05,1.249887090e-03,7.198205827e-04,-9.108485843e-06,7.107120968e-04,1.045581906e-03,-2.289358981e-05,1.022688316e-03,3.575407397e-04,2.350801053e-04,5.926208450e-04,1.108037479e-03,2.623608533e-04,1.370398332e-03,-4.542024594e-04,6.030652494e-04,1.488627900e-04,1.144125357e-03,1.951190799e-04,1.339244437e-03,8.822270660e-04,2.231171668e-04,1.105344233e-03,1.010810601e-03,3.515168099e-04,1.362327411e-03,1.980440446e-03,-3.392603761e-04,1.641180070e-03,1.341509472e-03,2.284987209e-04,1.570008193e-03,2.017233953e-03,-3.644591160e-04,1.652774837e-03,1.065013050e-03,6.685060058e-05,1.131863650e-03,2.954446370e-04,2.150283455e-04,5.104729824e-04,6.212621023e-04,3.844752091e-04,1.005737311e-03,-1.463991692e-04,3.877011354e-04,2.413019662e-04,-1.589081114e-04,4.384929958e-04,2.795848844e-04,8.959066773e-04,6.591168238e-05,9.618183597e-04,6.426739062e-04,2.088520675e-05,6.635591129e-04,1.312122429e-03,1.610332265e-04,1.473155656e-03,8.431681557e-04,4.090605989e-04,1.252228755e-03,9.325213482e-04,2.447273647e-04,1.177248713e-03,1.064841033e-03,1.447690893e-04,1.209610122e-03,1.377536747e-03,6.607737890e-05,1.443614125e-03,1.455616054e-03,-3.230506225e-05,1.423310992e-03,2.048425391e-03,3.030169494e-04,2.351442341e-03,1.120725530e-03,4.455285797e-04,1.566254110e-03,9.432642395e-04,5.471998402e-04,1.490464080e-03,1.954400430e-03,2.194591714e-04,2.173859602e-03
-3.8,-1.524161565e-03,-1.823768370e-04,-1.706538402e-03,6.861350567e-04,3.371803546e-04,1.023315411e-03,-3.855355335e-04,2.168174956e-04,-1.687180379e-04,5.344392402e-04,2.230798959e-04,7.575191361e-04,9.011373461e-04,-5.689271444e-05,8.442446316e-04,1.627383702e-03,3.313723999e-04,1.958756102e-03,1.200164532e-03,-2.637384452e-04,9.364260872e-04,1.298444653e-03,4.690669328e-05,1.345351346e-03,7.537512176e-04,-5.991924254e-06,7.477592933e-04,1.122416069e-03,-1.591964710e-05,1.106496422e-03,4.063157742e-04,2.376164606e-04,6.439322348e-04,1.214238739e-03,2.456697240e-04,1.459908463e-03,-3.350740184e-04,5.317227825e-04,1.966487641e-04,1.247050639e-03,2.086015522e-04,1.455652192e-03,1.011398664e-03,2.214931990e-04,1.232891863e-03,1.147537999e-03,3.372158942e-04,1.484753893e-03,1.993713077e-03,-3.083199969e-04,1.685393080e-03,1.373033344e-03,2.235112957e-04,1.596544639e-03,2.049114023e-03,-3.657842232e-04,1.683329800e-03,1.151821059e-03,7.013843433e-05,1.221959494e-03,3.331991006e-04,2.103399456e-04,5.435390462e-04,7.040655583e-04,4.013596889e-04,1.105425247e-03,-1.085859339e-04,3.921720986e-04,2.835861647e-04,-5.883207940e-05,4.554674773e-04,3.966353979e-04,9.727386551e-04,6.810372890e-05,1.040842384e-03,6.993197317e-04,3.175743365e-05,7.310771654e-04,1.418750228e-03,1.451611299e-04,1.563911358e-03,8.915842981e-04,3.963614996e-04,1.287945798e-03,1.033450609e-03,2.591753153e-04,1.292625925e-03,1.135713880e-03,1.288297894e-04,1.264543669e-03,1.475485397e-03,8.942611263e-05,1.564911509e-03,1.540937304e-03,-4.823560921e-05,1.492701695e-03,2.227398579e-03,2.915700665e-04,2.518968646e-03,1.148816724e-03,4.446512588e-04,1.593467983e-03,1.005691020e-03,5.284121247e-04,1.534103145e-03,2.000795947e-03,1.729019467e-04,2.173697894e-03
-3.7,-1.556649796e-03,-1.605796867e-04,-1.717229483e-03,7.331664141e-04,3.637861023e-04,1.096952516e-03,-3.985184093e-04,2.323015161e-04,-1.662168932e-04,6.401301027e-04,2.444706559e-04,8.846007586e-04,9.581928431e-04,-7.249389629e-05,8.856989468e-04,1.709764993e-03,3.539644108e-04,2.063729404e-03,1.209291569e-03,-2.559619564e-04,9.533296125e-04,1.384228598e-03,5.033190936e-05,1.434560507e-03,7.842946223e-04,-2.688536056e-06,7.816060862e-04,1.194267796e-03,-8.590034253e-06,1.185677761e-03,4.527017753e-04,2.392587439e-04,6.919605192e-04,1.313402144e-03,2.278090611e-04,1.541211205e-03,-2.117480112e-04,4.580523175e-04,2.463043064e-04,1.344988623e-03,2.210874286e-04,1.566076051e-03,1.135576211e-03,2.193540564e-04,1.354930267e-03,1.277961940e-03,3.223214889e-04,1.600283429e-03,1.993311808e-03,-2.731685331e-04,1.720143275e-03,1.396976572e-03,2.178790105e-04,1.614855583e-03,2.070861648e-03,-3.647275354e-04,1.706134113e-03,1.232681292e-03,7.334902861e-05,1.306030321e-03,3.681252184e-04,2.051802321e-04,5.733054505e-04,7.822856956e-04,4.171495969e-04,1.199435293e-03,-7.153140694e-05,3.953109708e-04,3.237795639e-04,4.136801460e-05,4.713526326e-04,5.127206472e-04,1.045552955e-03,7.012593492e-05,1.115678889e-03,7.526940919e-04,4.280403996e-05,7.954981319e-04,1.518769766e-03,1.281899458e-04,1.646959711e-03,9.353741660e-04,3.823995971e-04,1.317773763e-03,1.130266672e-03,2.728406420e-04,1.403107314e-03,1.200855866e-03,1.126733439e-04,1.313529210e-03,1.566089573e-03,1.131396321e-04,1.679229205e-03,1.616842580e-03,-6.302273939e-05,1.553819840e-03,2.400021776e-03,2.720879254e-04,2.672109702e-03,1.172091425e-03,4.434389518e-04,1.615530377e-03,1.066886512e-03,5.033950650e-04,1.570281577e-03,2.039083315e-03,1.258531051e-04,2.164936420e-03
-3.6,-1.577180840e-03,-1.364823368e-04,-1.713663176e-03,7.769690173e-04,3.888848274e-04,1.165853845e-03,-4.075752559e-04,2.471724031e-04,-1.604028529e-04,7.452522392e-04,2.653820802e-04,1.010634319e-03,1.011207166e-03,-8.807193043e-05,9.231352359e-04,1.783597072e-03,3.749852667e-04,2.158582339e-03,1.213400581e-03,-2.465305105e-04,9.668700704e-04,1.463230750e-03,5.380047154e-05,1.517031221e-03,8.112839599e-04,8.147923660e-07,8.120987522e-04,1.260681359e-03,-9.162191150e-07,1.259765140e-03,4.962830891e-04,2.400743268e-04,7.363574159e-04,1.404730949e-03,2.090241976e-04,1.613755147e-03,-8.499799120e-05,3.828637359e-04,2.978657447e-04,1.437409263e-03,2.325467799e-04,1.669956043e-03,1.253884686e-03,2.168519873e-04,1.470736673e-03,1.401630261e-03,3.066182927e-04,1.708248554e-03,1.980026430e-03,-2.340562248e-04,1.745970205e-03,1.413097520e-03,2.117903108e-04,1.624887830e-03,2.082325015e-03,-3.612277034e-04,1.721097312e-03,1.307082732e-03,7.649280013e-05,1.383575532e-03,3.999244919e-04,1.996250928e-04,5.995495847e-04,8.554858676e-04,4.317874973e-04,1.287273365e-03,-3.552216219e-05,3.971148497e-04,3.615926875e-04,1.411248938e-04,4.860203082e-04,6.271452020e-04,1.113911373e-03,7.195854729e-05,1.185869921e-03,8.025075473e-04,5.395596242e-05,8.564635097e-04,1.611434005e-03,1.103120628e-04,1.721746068e-03,9.745736951e-04,3.673277833e-04,1.341901478e-03,1.222511778e-03,2.856238809e-04,1.508135659e-03,1.259894529e-03,9.641065207e-05,1.356305181e-03,1.648909664e-03,1.371199967e-04,1.786029661e-03,1.682871990e-03,-7.635252738e-05,1.606519463e-03,2.564550183e-03,2.453525636e-04,2.809902746e-03,1.190615798e-03,4.415402901e-04,1.632156088e-03,1.126632186e-03,4.726149352e-04,1.599247121e-03,2.068862397e-03,7.884380717e-05,2.147706204e-03
