Time,S1D1HbO,S1D1HbR,S1D1HbT,S2D2HbO,S2D2HbR,S2D2HbT,S3D3HbO,S3D3HbR,S3D3HbT,S4D4HbO,S4D4HbR,S4D4HbT,S5D5HbO,S5D5HbR,S5D5HbT,S6D6HbO,S6D6HbR,S6D6HbT,S7D7HbO,S7D7HbR,S7D7HbT,S8D8HbO,S8D8HbR,S8D8HbT,S9D9HbO,S9D9HbR,S9D9HbT,S10D10HbO,S10D10HbR,S10D10HbT,S11D11HbO,S11D11HbR,S11D11HbT,S12D12HbO,S12D12HbR,S12D12HbT,S13D13HbO,S13D13HbR,S13D13HbT,S14D14HbO,S14D14HbR,S14D14HbT,S15D15HbO,S15D15HbR,S15D15HbT,S16D16HbO,S16D16HbR,S16D16HbT,S17D17HbO,S17D17HbR,S17D17HbT,S18D18HbO,S18D18HbR,S18D18HbT,S19D19HbO,S19D19HbR,S19D19HbT,S20D20HbO,S20D20HbR,S20D20HbT,S21D21HbO,S21D21HbR,S21D21HbT,S22D22HbO,S22D22HbR,S22D22HbT,S23D23HbO,S23D23HbR,S23D23HbT,S24D24HbO,S24D24HbR,S24D24HbT,S25D25HbO,S25D25HbR,S25D25HbT,S26D26HbO,S26D26HbR,S26D26HbT,S27D27HbO,S27D27HbR,S27D27HbT,S28D28HbO,S28D28HbR,S28D28HbT,S29D29HbO,S29D29HbR,S29D29HbT,S30D30HbO,S30D30HbR,S30D30HbT,S31D31HbO,S31D31HbR,S31D31HbT,S32D32HbO,S32D32HbR,S32D32HbT,S33D33HbO,S33D33HbR,S33D33HbT,S34D34HbO,S34D34HbR,S34D34HbT,S35D35HbO,S35D35HbR,S35D35HbT,S36D36HbO,S36D36HbR,S36D36HbT,
-10,1.000445044e-03,3.453605135e-04,1.345805557e-03,-1.037346920e-03,4.714992005e-04,-5.658477192e-04,-1.838804679e-04,3.783465299e-04,1.944660620e-04,-1.707704160e-04,5.569505593e-04,3.861801433e-04,-1.272219954e-03,5.643054411e-04,-7.079145128e-04,-1.131951453e-03,5.882953159e-05,-1.073121921e-03,-1.796507605e-04,2.019294371e-04,2.227867667e-05,1.927465071e-04,8.979867868e-05,2.825451858e-04,-1.138529444e-03,8.246141489e-05,-1.056068029e-03,-6.410710301e-05,3.300752752e-05,-3.109957550e-05,-9.372172541e-04,2.284896693e-04,-7.087275848e-04,-3.217007316e-03,2.938861456e-04,-2.923121170e-03,-2.379607544e-03,1.559553067e-04,-2.223652237e-03,-1.837008901e-03,1.854693705e-04,-1.651539530e-03,-2.279263273e-03,4.497820641e-04,-1.829481209e-03,-1.513178176e-03,2.211959834e-04,-1.291982192e-03,4.794951758e-04,-1.186529779e-03,-7.070346029e-04,-1.802734630e-04,5.516270987e-05,-1.251107531e-04,-1.052771648e-03,6.324020983e-04,-4.203695500e-04,-4.555843034e-04,7.056527455e-05,-3.850190288e-04,-1.018892136e-03,1.497040354e-04,-8.691881009e-04,-7.118991955e-04,3.393610775e-04,-3.725381180e-04,-1.924450264e-03,7.794752252e-05,-1.846502741e-03,9.947076682e-05,4.571048031e-04,5.565755700e-04,-1.416514751e-03,3.934293184e-04,-1.023085432e-03,-2.014872967e-03,4.941476388e-04,-1.520725328e-03,-2.843688983e-03,7.724620301e-04,-2.071226952e-03,-2.221737785e-03,2.665996152e-04,-1.955138170e-03,-1.513455154e-03,2.198067087e-04,-1.293648445e-03,-4.485771630e-04,2.444876367e-04,-2.040895262e-04,-1.697100716e-03,1.274737479e-04,-1.569626968e-03,-1.855839958e-03,1.386817045e-04,-1.717158254e-03,-1.312663167e-03,3.676950934e-04,-9.449680732e-04,1.819557077e-04,1.542348908e-04,3.361905986e-04,-1.109916975e-03,1.586418833e-05,-1.094052786e-03,1.124630674e-04,6.079217471e-05,1.732552422e-04
-9.9,1.010051842e-03,3.410082335e-04,1.351060075e-03,-1.008164415e-03,4.622036793e-04,-5.459607356e-04,-1.621396376e-04,3.753626508e-04,2.132230131e-04,-1.473525058e-04,5.592947083e-04,4.119422025e-04,-1.222066300e-03,5.640944268e-04,-6.579718730e-04,-1.091491112e-03,5.892486403e-05,-1.032566248e-03,-1.278180184e-04,2.024417591e-04,7.462374071e-05,2.488267583e-04,7.787972596e-05,3.267064843e-04,-1.105387009e-03,8.413221151e-05,-1.021254798e-03,-1.628373729e-05,3.118031339e-05,1.489657609e-05,-8.928835617e-04,2.306366608e-04,-6.622469009e-04,-3.115402721e-03,3.007515598e-04,-2.814651161e-03,-2.270134915e-03,1.535595556e-04,-2.116575359e-03,-1.770521259e-03,1.856475518e-04,-1.584873707e-03,-2.187940996e-03,4.443111249e-04,-1.743629871e-03,-1.444137753e-03,2.189194718e-04,-1.225218282e-03,4.972226597e-04,-1.168163003e-03,-6.709403435e-04,-1.222209102e-04,5.062977983e-05,-7.159113034e-05,-1.014407635e-03,6.172696881e-04,-3.971379469e-04,-4.042316910e-04,7.130922305e-05,-3.329224679e-04,-9.801884692e-04,1.541863127e-04,-8.260021565e-04,-6.646931412e-04,3.332975037e-04,-3.313956375e-04,-1.880004260e-03,7.687150846e-05,-1.803132751e-03,1.233556960e-04,4.571255917e-04,5.804812878e-04,-1.375616689e-03,4.184491196e-04,-9.571675690e-04,-1.959214289e-03,5.028273128e-04,-1.456386977e-03,-2.787275012e-03,7.890769945e-04,-1.998198017e-03,-2.163655913e-03,2.989485898e-04,-1.864707324e-03,-1.439736857e-03,2.200197871e-04,-1.219717069e-03,-4.207347603e-04,2.405805006e-04,-1.801542597e-04,-1.623350656e-03,1.181204411e-04,-1.505230215e-03,-1.844796309e-03,1.481643742e-04,-1.696631935e-03,-1.240596800e-03,3.573708056e-04,-8.832259944e-04,2.170330851e-04,1.593072768e-04,3.763403618e-04,-1.058225042e-03,1.641440654e-06,-1.056583601e-03,8.228451089e-05,7.909510231e-05,1.613796132e-04
-9.8,1.022097998e-03,3.360984597e-04,1.358196458e-03,-9.734160617e-04,4.517873871e-04,-5.216286746e-04,-1.374264737e-04,3.715510236e-04,2.341245499e-04,-1.190371649e-04,5.602857688e-04,4.412486039e-04,-1.167043447e-03,5.624507158e-04,-6.045927313e-04,-1.046214694e-03,5.846982648e-05,-9.877448671e-04,-7.151782038e-05,2.025586116e-04,1.310407912e-04,3.077594962e-04,6.621956157e-05,3.739790578e-04,-1.068711040e-03,8.552291820e-05,-9.831881222e-04,3.453355598e-05,2.895604920e-05,6.348960518e-05,-8.449920227e-04,2.320311362e-04,-6.129608865e-04,-3.005279663e-03,3.057946915e-04,-2.699484972e-03,-2.155914416e-03,1.524934267e-04,-2.003420989e-03,-1.697859159e-03,1.847838322e-04,-1.513075326e-03,-2.090048841e-03,4.383820562e-04,-1.651666785e-03,-1.370918220e-03,2.175619236e-04,-1.153356297e-03,5.193810199e-04,-1.144948273e-03,-6.255672535e-04,-6.145389915e-05,4.629616531e-05,-1.515773385e-05,-9.663327661e-04,5.997526664e-04,-3.665800996e-04,-3.494792589e-04,7.175473346e-05,-2.777245255e-04,-9.381350560e-04,1.580983450e-04,-7.800367110e-04,-6.138146843e-04,3.262383224e-04,-2.875763618e-04,-1.830587842e-03,7.471547806e-05,-1.755872364e-03,1.504122268e-04,4.555330737e-04,6.059453004e-04,-1.328944486e-03,4.415286297e-04,-8.874158559e-04,-1.897390225e-03,5.099399129e-04,-1.387450312e-03,-2.721727965e-03,8.061138667e-04,-1.915614098e-03,-2.097745739e-03,3.298432275e-04,-1.767902512e-03,-1.359471937e-03,2.197482159e-04,-1.139723721e-03,-3.891529382e-04,2.356270164e-04,-1.535259218e-04,-1.543961330e-03,1.089030531e-04,-1.435058277e-03,-1.827494450e-03,1.573503327e-04,-1.670144118e-03,-1.161185913e-03,3.448489776e-04,-8.163369355e-04,2.537503284e-04,1.659573381e-04,4.197076665e-04,-1.001466791e-03,-1.095630431e-05,-1.012423096e-03,5.555561527e-05,9.634951856e-05,1.519051338e-04
-9.7,1.036438302e-03,3.306156011e-04,1.367053903e-03,-9.332278457e-04,4.402417576e-04,-4.929860881e-04,-1.098049979e-04,3.669046435e-04,2.570996456e-04,-8.596084594e-05,5.598918910e-04,4.739310450e-04,-1.107258971e-03,5.593293401e-04,-5.479296304e-04,-9.962477563e-04,5.746200752e-05,-9.387857487e-04,-1.083475112e-05,2.022545445e-04,1.914197934e-04,3.694347501e-04,5.478858302e-05,4.242233331e-04,-1.028524116e-03,8.661072653e-05,-9.419133890e-04,8.815370894e-05,2.633481284e-05,1.144885218e-04,-7.937099333e-04,2.326258977e-04,-5.610840356e-04,-2.887004538e-03,3.089876027e-04,-2.578016935e-03,-2.037308663e-03,1.527356253e-04,-1.884573037e-03,-1.619279668e-03,1.827946710e-04,-1.436484997e-03,-1.985725539e-03,4.319604559e-04,-1.553765083e-03,-1.293655552e-03,2.171221152e-04,-1.076533437e-03,5.458374929e-04,-1.116675970e-03,-5.708384767e-04,1.825738960e-06,4.218826515e-05,4.401400411e-05,-9.084619438e-04,5.799800079e-04,-3.284819359e-04,-2.916145299e-04,7.189563998e-05,-2.197188899e-04,-8.929476242e-04,1.614039889e-04,-7.315436354e-04,-5.594941043e-04,3.182070500e-04,-2.412870543e-04,-1.776418990e-03,7.145967485e-05,-1.704959315e-03,1.804839016e-04,4.523179931e-04,6.328018948e-04,-1.276681218e-03,4.624761729e-04,-8.142050451e-04,-1.829635894e-03,5.153437195e-04,-1.314292175e-03,-2.646645495e-03,8.230803166e-04,-1.823565179e-03,-2.024102044e-03,3.588863998e-04,-1.665215645e-03,-1.272963714e-03,2.189553257e-04,-1.054008389e-03,-3.541221542e-04,2.297276014e-04,-1.243945528e-04,-1.459199388e-03,9.995333072e-05,-1.359246058e-03,-1.803837669e-03,1.661737325e-04,-1.637663937e-03,-1.074435162e-03,3.301456955e-04,-7.442894666e-04,2.921096062e-04,1.741098925e-04,4.662194987e-04,-9.398489931e-04,-2.185808845e-05,-9.617070816e-04,3.231632743e-05,1.126113510e-04,1.449276785e-04
-9.6,1.052901418e-03,3.245521730e-04,1.377453591e-03,-8.877695857e-04,4.275662649e-04,-4.602033208e-04,-7.937011465e-05,3.614235238e-04,2.820534091e-04,-4.829707663e-05,5.580917725e-04,5.097946959e-04,-1.042861895e-03,5.546957601e-04,-4.881661345e-04,-9.417608410e-04,5.590140574e-05,-8.858594353e-04,5.410542821e-05,2.015082561e-04,2.556136843e-04,4.337000568e-04,4.355962265e-05,4.772596794e-04,-9.848789274e-04,8.737550908e-05,-8.975034184e-04,1.443500738e-04,2.332209585e-05,1.676721696e-04,-7.392376668e-04,2.323798586e-04,-5.068578083e-04,-2.761037667e-03,3.103261302e-04,-2.450711537e-03,-1.914694658e-03,1.542339863e-04,-1.760460672e-03,-1.535096468e-03,1.796043927e-04,-1.355492075e-03,-1.875167470e-03,4.250112236e-04,-1.450156246e-03,-1.212519944e-03,2.175757997e-04,-9.949441442e-04,5.764222892e-04,-1.083230311e-03,-5.068080218e-04,6.737848388e-05,3.832829761e-05,1.057067815e-04,-8.408464300e-04,5.580968936e-04,-2.827495364e-04,-2.309628714e-04,7.172795226e-05,-1.592349191e-04,-8.448669182e-04,1.640715946e-04,-6.807953236e-04,-5.019978171e-04,3.092359683e-04,-1.927618488e-04,-1.717765714e-03,6.709262168e-05,-1.650673092e-03,2.133838772e-04,4.474870632e-04,6.608709404e-04,-1.219074197e-03,4.811296137e-04,-7.379445830e-04,-1.756235835e-03,5.189103164e-04,-1.237325518e-03,-2.561721493e-03,8.394384761e-04,-1.722283017e-03,-1.942885267e-03,3.856930178e-04,-1.557192250e-03,-1.180574818e-03,2.176068296e-04,-9.629679885e-04,-3.159690577e-04,2.229897497e-04,-9.297930794e-05,-1.369383547e-03,9.140361329e-05,-1.277979934e-03,-1.773795180e-03,1.745766753e-04,-1.599218504e-03,-9.804249208e-04,3.133095601e-04,-6.671153606e-04,3.321170485e-04,1.836290614e-04,5.157461099e-04,-8.736304464e-04,-3.102460149e-05,-9.046550479e-04,1.255471361e-05,1.279621742e-04,1.405168878e-04
-9.5,1.071291929e-03,3.179093526e-04,1.389201281e-03,-8.372534881e-04,4.137684622e-04,-4.234850259e-04,-4.624608241e-05,3.551149401e-04,3.088688577e-04,-6.253493851e-06,5.548752079e-04,5.486217141e-04,-9.740414627e-04,5.485265049e-04,-4.255149578e-04,-8.829691527e-04,5.379011734e-05,-8.291790354e-04,1.231362402e-04,2.003032197e-04,3.234394599e-04,5.003578723e-04,3.251044619e-05,5.328683185e-04,-9.378581269e-04,8.779989731e-05,-8.500582296e-04,2.028630443e-04,1.992867870e-05,2.227917230e-04,-6.818062835e-04,2.312585916e-04,-4.505476919e-04,-2.627924361e-03,3.098250201e-04,-2.318099341e-03,-1.788452468e-03,1.569013484e-04,-1.631551120e-03,-1.445674620e-03,1.751465051e-04,-1.270528115e-03,-1.758627553e-03,4.174996237e-04,-1.341127929e-03,-1.127712033e-03,2.188742570e-04,-9.088377757e-04,6.109418241e-04,-1.044596570e-03,-4.336547457e-04,1.349268239e-04,3.473536674e-05,1.696621906e-04,-7.636809910e-04,5.342679878e-04,-2.294130031e-04,-1.678835897e-04,7.125021289e-05,-9.663337683e-05,-7.941550537e-04,1.660745100e-04,-6.280805437e-04,-4.416238446e-04,2.993663250e-04,-1.422575196e-04,-1.654942264e-03,6.161151379e-05,-1.593330751e-03,2.488993422e-04,4.410633921e-04,6.899627343e-04,-1.156432701e-03,4.973590243e-04,-6.590736763e-04,-1.677520924e-03,5.205256048e-04,-1.156995319e-03,-2.466761034e-03,8.546137254e-04,-1.612147308e-03,-1.854325104e-03,4.098970284e-04,-1.444428076e-03,-1.082720470e-03,2.156715958e-04,-8.670488747e-04,-2.750501692e-04,2.155274075e-04,-5.952276164e-05,-1.274881615e-03,8.338431233e-05,-1.191497303e-03,-1.737399738e-03,1.825075364e-04,-1.554892201e-03,-8.793142019e-04,2.944218170e-04,-5.848923849e-04,3.737734641e-04,1.943239637e-04,5.680974278e-04,-8.031116368e-04,-3.845304457e-05,-8.415646814e-04,-3.785850794e-06,1.425002002e-04,1.387143495e-04
-9.4,1.091393969e-03,3.106971863e-04,1.402091156e-03,-7.819310816e-04,3.988639418e-04,-3.830671398e-04,-1.058339631e-05,3.479936148e-04,3.374102185e-04,3.993244157e-05,5.502433945e-04,5.901758361e-04,-9.010238104e-04,5.408095901e-04,-3.602142203e-04,-8.201307988e-04,5.113199503e-05,-7.689988038e-04,1.960525391e-04,1.986282028e-04,3.946807419e-04,5.691649686e-04,2.162583517e-05,5.907908038e-04,-8.875730775e-04,8.786921929e-05,-7.997038582e-04,2.634043580e-04,1.617043147e-05,2.795747895e-04,-6.216735168e-04,2.292347786e-04,-3.924387382e-04,-2.488278380e-03,3.075108969e-04,-2.180767483e-03,-1.658956064e-03,1.606146815e-04,-1.498341383e-03,-1.351422235e-03,1.693649906e-04,-1.182057245e-03,-1.636411985e-03,4.093923126e-04,-1.227019672e-03,-1.039458052e-03,2.209441623e-04,-8.185138895e-04,6.491944846e-04,-1.000867214e-03,-3.516727294e-04,2.041573892e-04,3.142652451e-05,2.355839137e-04,-6.773086912e-04,5.086817665e-04,-1.686269247e-04,-1.027639823e-04,7.046372295e-05,-3.230025932e-05,-7.410902422e-04,1.673916726e-04,-5.736985696e-04,-3.786954294e-04,2.886483387e-04,-9.004709064e-05,-1.588303498e-03,5.502250051e-05,-1.533280998e-03,2.867970775e-04,4.330866189e-04,7.198836964e-04,-1.089122789e-03,5.110695444e-04,-5.780532449e-04,-1.593861683e-03,5.200907880e-04,-1.073770895e-03,-2.361691607e-03,8.680081405e-04,-1.493683467e-03,-1.758717797e-03,4.311571701e-04,-1.327560627e-03,-9.798587367e-04,2.131219110e-04,-7.667368257e-04,-2.317443894e-04,2.074605159e-04,-2.428387353e-05,-1.176104287e-03,7.602043969e-05,-1.100083847e-03,-1.694743585e-03,1.899195869e-04,-1.504823999e-03,-7.713406964e-04,2.735946512e-04,-4.977460452e-04,4.170611300e-04,2.059612703e-04,6.230224003e-04,-7.286242954e-04,-4.418036901e-05,-7.728046644e-04,-1.679611825e-05,1.563294419e-04,1.395333236e-04
-9.3,1.112976149e-03,3.029343653e-04,1.415910515e-03,-7.220889515e-04,3.828760839e-04,-3.392128676e-04,2.744539670e-05,3.400818222e-04,3.675272189e-04,8.999864071e-05,5.442089997e-04,6.342076404e-04,-8.240672215e-04,5.315447057e-04,-2.925225158e-04,-7.535440027e-04,4.793238422e-05,-7.056116184e-04,2.726136567e-04,1.964776909e-04,4.690913476e-04,6.398340996e-04,1.089872739e-05,6.507328270e-04,-8.341620037e-04,8.757139340e-05,-7.465906103e-04,3.256621424e-04,1.206810166e-05,3.377302440e-04,-5.591190375e-04,2.262885842e-04,-3.328304532e-04,-2.342762094e-03,3.034143979e-04,-2.039347696e-03,-1.526567000e-03,1.652173158e-04,-1.361349684e-03,-1.252781345e-03,1.622154293e-04,-1.090565916e-03,-1.508875859e-03,4.006583447e-04,-1.108217515e-03,-9.480052516e-04,2.236892867e-04,-7.243159649e-04,6.909855716e-04,-9.522470042e-04,-2.612614327e-04,2.747255411e-04,2.841715632e-05,3.031426974e-04,-5.822232573e-04,4.815535498e-04,-1.006697074e-04,-3.601253318e-05,6.937242879e-05,3.335989561e-05,-6.859610981e-04,1.680081158e-04,-5.179529823e-04,-3.135540493e-04,2.771408717e-04,-3.641317758e-05,-1.518238644e-03,4.734076630e-05,-1.470897878e-03,3.268291407e-04,4.236126784e-04,7.504418191e-04,-1.017559114e-03,5.222030643e-04,-4.953560501e-04,-1.505659397e-03,5.175230997e-04,-9.881362975e-04,-2.246569671e-03,8.790177218e-04,-1.367551949e-03,-1.656418147e-03,4.491615080e-04,-1.207256639e-03,-8.724805555e-04,2.099336147e-04,-6.625469409e-04,-1.864458744e-04,1.989142401e-04,1.246836576e-05,-1.073496833e-03,6.942725046e-05,-1.004069583e-03,-1.645974186e-03,1.967701858e-04,-1.449204000e-03,-6.568195265e-04,2.509685701e-04,-4.058509563e-04,4.619300161e-04,2.182815392e-04,6.802115553e-04,-6.505220107e-04,-4.828449399e-05,-6.988065047e-04,-2.659063861e-05,1.695492736e-04,1.429586350e-04
-9.2,1.135796831e-03,2.946476642e-04,1.430444495e-03,-6.580443041e-04,3.658356632e-04,-2.922086409e-04,6.765001643e-05,3.314093914e-04,3.990594078e-04,1.436636681e-04,5.367960468e-04,6.804597149e-04,-7.434572558e-04,5.207432430e-04,-2.227140128e-04,-6.835439557e-04,4.419792056e-05,-6.393460351e-04,3.525467612e-04,1.938522142e-04,5.463989754e-04,7.120374731e-04,3.302330530e-07,7.123677061e-04,-7.777881592e-04,8.689685790e-05,-6.908913013e-04,3.893055722e-04,7.647081280e-06,3.969526535e-04,-4.944401471e-04,2.224079352e-04,-2.720322119e-04,-2.192068507e-03,2.975631430e-04,-1.894505364e-03,-1.391631216e-03,1.705237628e-04,-1.221107453e-03,-1.150220416e-03,1.536658197e-04,-9.965545967e-04,-1.376418851e-03,3.912700414e-04,-9.851488099e-04,-8.536186734e-04,2.269938785e-04,-6.266247949e-04,7.361369516e-04,-8.990549694e-04,-1.629180178e-04,3.462611186e-04,2.572057428e-05,3.719816928e-04,-4.790711475e-04,4.531282671e-04,-2.594288048e-05,3.194721157e-05,6.798247577e-05,9.992968734e-05,-6.290618720e-04,1.679152552e-04,-4.611466168e-04,-2.465531499e-04,2.649106975e-04,1.835754762e-05,-1.445165666e-03,3.859040613e-05,-1.406575260e-03,3.687378044e-04,4.127132047e-04,7.814510090e-04,-9.421950209e-04,5.307381614e-04,-4.114568594e-04,-1.413337658e-03,5.127561790e-04,-9.005814790e-04,-2.121584074e-03,8.870523354e-04,-1.234531739e-03,-1.547830194e-03,4.636314530e-04,-1.084198741e-03,-7.611021678e-04,2.060866021e-04,-5.550155657e-04,-1.395579137e-04,1.900171036e-04,5.045918993e-05,-9.675306538e-04,6.370571597e-05,-9.038249378e-04,-1.591290489e-03,2.030202303e-04,-1.388270259e-03,-5.361423852e-04,2.267102917e-04,-3.094320935e-04,5.082866755e-04,2.310146558e-04,7.393013313e-04,-5.691734438e-04,-5.088309711e-05,-6.200565409e-04,-3.329990601e-05,1.822453872e-04,1.489454812e-04
-9.1,1.159608857e-03,2.858712113e-04,1.445480069e-03,-5.901413484e-04,3.477805416e-04,-2.423608068e-04,1.098261217e-04,3.220135599e-04,4.318396816e-04,2.006313400e-04,5.280396661e-04,7.286710060e-04,-6.595028562e-04,5.084282218e-04,-1.510746344e-04,-6.104998469e-04,3.993630236e-05,-5.705635445e-04,4.355496758e-04,1.907585545e-04,6.263082303e-04,7.854113198e-04,-1.007134587e-05,7.753399740e-04,-7.186384432e-04,8.583858639e-05,-6.327998568e-04,4.539884319e-04,2.937123874e-06,4.569255558e-04,-4.279486452e-04,2.175886889e-04,-2.103599562e-04,-2.036908479e-03,2.899769228e-04,-1.746931556e-03,-1.254479325e-03,1.763264535e-04,-1.078152872e-03,-1.044229759e-03,1.436970346e-04,-9.005327242e-04,-1.239481497e-03,3.812034068e-04,-8.582780899e-04,-7.565797980e-04,2.307270804e-04,-5.258527175e-04,7.844883419e-04,-8.417210280e-04,-5.723268606e-05,4.183737712e-04,2.334724804e-05,4.417210193e-04,-3.686545753e-04,4.236854004e-04,5.503082504e-05,1.006810739e-04,6.630166462e-05,1.669827386e-04,-5.706893728e-04,1.671109860e-04,-4.035783867e-04,-1.780533702e-04,2.520314800e-04,7.397810978e-05,-1.369526813e-03,2.880416870e-05,-1.340722644e-03,4.122593474e-04,4.004746627e-04,8.127340101e-04,-8.635131839e-04,5.366889893e-04,-3.268241946e-04,-1.317336404e-03,5.057401756e-04,-8.115962282e-04,-1.987058777e-03,8.915570008e-04,-1.095501777e-03,-1.433400134e-03,4.743256082e-04,-9.590745258e-04,-6.462609270e-04,2.015658336e-04,-4.446950934e-04,-9.148798925e-05,1.808978346e-04,8.940984530e-05,-8.586962234e-04,5.893878586e-05,-7.997574376e-04,-1.530939933e-03,2.086337178e-04,-1.322306215e-03,-4.097771857e-04,2.010117180e-04,-2.087654676e-04,5.559869412e-04,2.438912615e-04,7.998782027e-04,-4.849588623e-04,-5.213004912e-05,-5.370889114e-04,-3.706522983e-05,1.944820917e-04,1.574168619e-04
-9,1.184163235e-03,2.766456649e-04,1.460808900e-03,-5.187488292e-04,3.287555121e-04,-1.899933171e-04,1.537580445e-04,3.119386385e-04,4.656966831e-04,2.605942568e-04,5.179857323e-04,7.785799890e-04,-5.725339060e-04,4.946341397e-04,-7.789976638e-05,-5.348123368e-04,3.515602516e-05,-4.996563116e-04,5.212928465e-04,1.872098006e-04,7.085026471e-04,8.595609350e-04,-2.029219015e-05,8.392687449e-04,-6.569225716e-04,8.439222456e-05,-5.725303470e-04,5.193514893e-04,-2.027993522e-06,5.173234957e-04,-3.599689861e-04,2.118347224e-04,-1.481342636e-04,-1.878003876e-03,2.806655339e-04,-1.597338343e-03,-1.115431070e-03,1.824037495e-04,-9.330273200e-04,-9.353197053e-04,1.323029898e-04,-8.030167155e-04,-1.098542095e-03,3.704379402e-04,-7.281041549e-04,-6.571867730e-04,2.347475184e-04,-4.224392546e-04,8.358898745e-04,-7.807767348e-04,5.511313972e-05,4.906570983e-04,2.130403060e-05,5.119611289e-04,-2.519333693e-04,3.935452886e-04,1.416119193e-04,1.697469285e-04,6.433899211e-05,2.340859206e-04,-5.111416006e-04,1.655997036e-04,-3.455418969e-04,-1.084193928e-04,2.385826821e-04,1.301632893e-04,-1.291785265e-03,1.802313868e-05,-1.273762127e-03,4.571267584e-04,3.869972882e-04,8.441240465e-04,-7.820183671e-04,5.401038550e-04,-2.419145121e-04,-1.218108871e-03,4.964415905e-04,-7.216672805e-04,-1.843456082e-03,8.920325543e-04,-9.514235274e-04,-1.313613019e-03,4.810434761e-04,-8.325695427e-04,-5.285138472e-04,1.963624498e-04,-3.321513973e-04,-4.264397690e-05,1.716814872e-04,1.290375103e-04,-7.474978540e-04,5.518888576e-05,-6.923089683e-04,-1.465216218e-03,2.135776674e-04,-1.251638551e-03,-2.782674102e-04,1.740891128e-04,-1.041782974e-04,6.048318107e-04,2.566496870e-04,8.614814977e-04,-3.982693111e-04,-5.221040105e-05,-4.504797121e-04,-3.803605164e-05,2.062962337e-04,1.682601821e-04
-8.9,1.209211774e-03,2.670173256e-04,1.476229099e-03,-4.442583912e-04,3.088121253e-04,-1.354462659e-04,1.992207505e-04,3.012355025e-04,5.004562530e-04,3.232363294e-04,5.066904119e-04,8.299267413e-04,-4.829000428e-04,4.794067451e-04,-3.493297638e-06,-4.569114743e-04,2.986617634e-05,-4.270452980e-04,6.094205825e-04,1.832252562e-04,7.926458387e-04,9.340654609e-04,-3.031484929e-05,9.037506116e-04,-5.928726301e-04,8.255634606e-05,-5.103162840e-04,5.850240449e-04,-7.210858769e-06,5.778131861e-04,-2.908373414e-04,2.051579961e-04,-8.567934531e-05,-1.716085419e-03,2.696288433e-04,-1.446456575e-03,-9.748047550e-04,1.885291727e-04,-7.862755823e-04,-8.240205255e-04,1.194907220e-04,-7.045298035e-04,-9.541142626e-04,3.589563412e-04,-5.951579214e-04,-5.557554285e-04,2.389073721e-04,-3.168480564e-04,8.901883676e-04,-7.168416125e-04,1.733467551e-04,5.626917240e-04,1.959339004e-05,5.822851140e-04,-1.300225037e-04,3.630730692e-04,2.330505655e-04,2.386963823e-04,6.210421274e-05,3.008005950e-04,-4.507175450e-04,1.633922683e-04,-2.873252767e-04,-3.801795267e-05,2.246485221e-04,1.866305695e-04,-1.212422332e-03,6.296383375e-06,-1.206125949e-03,5.030717511e-04,3.723938772e-04,8.754656283e-04,-6.982322691e-04,5.410632520e-04,-1.571690171e-04,-1.116120668e-03,4.848428187e-04,-6.312778492e-04,-1.691379354e-03,8.880528292e-04,-8.033265246e-04,-1.188993256e-03,4.836292970e-04,-7.053639593e-04,-4.084375424e-04,1.904745585e-04,-2.179629838e-04,6.568751603e-06,1.624856941e-04,1.690544457e-04,-6.344498296e-04,5.249645538e-05,-5.819533742e-04,-1.394457424e-03,2.178223401e-04,-1.176635084e-03,-1.422304523e-04,1.461813223e-04,3.950869987e-06,6.545652650e-04,2.690399652e-04,9.236052301e-04,-3.095073702e-04,-5.133492292e-05,-3.608422932e-04,-3.637009404e-05,2.176939119e-04,1.813238178e-04
-8.8,1.234509019e-03,2.570373111e-04,1.491546330e-03,-3.670831876e-04,2.880083784e-04,-7.907480924e-05,2.459814785e-04,2.899609972e-04,5.359424756e-04,3.882347039e-04,4.942196527e-04,8.824543566e-04,-3.909700452e-04,4.628027450e-04,7.183269977e-05,-3.772547954e-04,2.407637537e-05,-3.531784200e-04,6.995520370e-04,1.788302260e-04,8.783822629e-04,1.008481895e-03,-4.011999080e-05,9.683619039e-04,-5.267426202e-04,8.033275180e-05,-4.464098684e-04,6.506252859e-04,-1.257087337e-05,6.380544125e-04,-2.209008404e-04,1.975786042e-04,-2.332223627e-05,-1.551892941e-03,2.568585680e-04,-1.295034373e-03,-8.329312904e-04,1.944820547e-04,-6.384492357e-04,-7.108825089e-04,1.052805673e-04,-6.056019416e-04,-8.067452131e-04,3.467449222e-04,-4.600002909e-04,-4.526204431e-04,2.430558436e-04,-2.095645995e-04,9.472122740e-04,-6.506081034e-04,2.966041706e-04,6.340479265e-04,1.821251940e-05,6.522604459e-04,-4.184129694e-06,3.326782552e-04,3.284941255e-04,3.070765096e-04,5.960728167e-05,3.666837913e-04,-3.897172465e-04,1.605058484e-04,-2.292113981e-04,3.278393574e-05,2.103169643e-04,2.431009000e-04,-1.131934360e-03,-6.319434146e-06,-1.138253794e-03,5.498267138e-04,3.567884683e-04,9.066151821e-04,-6.126893447e-04,5.396768145e-04,-7.301253015e-05,-1.011849957e-03,4.709416882e-04,-5.409082684e-04,-1.531572693e-03,8.792756134e-04,-6.522970795e-04,-1.060107642e-03,4.819762590e-04,-5.781313829e-04,-2.866281740e-04,1.839077245e-04,-1.027204494e-04,5.574965215e-05,1.534178682e-04,2.091675203e-04,-5.200731005e-04,5.087916187e-05,-4.691939387e-04,-1.319043324e-03,2.213410272e-04,-1.097702297e-03,-2.354643141e-06,1.175471934e-04,1.151925503e-04,7.048732424e-04,2.808272945e-04,9.857005369e-04,-2.190888706e-04,-4.973445346e-05,-2.688233241e-04,-3.223602519e-05,2.286504542e-04,1.964144290e-04
-8.7,1.259813958e-03,2.467609830e-04,1.506574941e-03,-2.876561233e-04,2.664083297e-04,-2.124779367e-05,2.938016580e-04,2.781773516e-04,5.719790096e-04,4.552616948e-04,4.806486216e-04,9.359103165e-04,-2.971308190e-04,4.448894400e-04,1.477586210e-04,-2.963251117e-04,1.779682908e-05,-2.785282827e-04,7.912826347e-04,1.740556688e-04,9.653383035e-04,1.082348594e-03,-4.968792346e-05,1.032660670e-03,-4.588074715e-04,7.772669049e-05,-3.810807810e-04,7.157662297e-04,-1.806478033e-05,6.977014494e-04,-1.505160726e-04,1.891247662e-04,3.860869365e-05,-1.386175206e-03,2.423413129e-04,-1.143833893e-03,-6.901695016e-04,2.000585514e-04,-4.901109502e-04,-5.964743996e-04,8.970650976e-05,-5.067678898e-04,-6.570144174e-04,3.337949680e-04,-3.232194495e-04,-3.481360947e-04,2.470423513e-04,-1.010937434e-04,1.006761886e-03,-5.828288085e-04,4.239330771e-04,7.042886934e-04,1.715218753e-05,7.214408809e-04,1.241857007e-04,3.028114721e-04,4.269971728e-04,3.744326519e-04,5.685777914e-05,4.312904311e-04,-3.284410680e-04,1.569636425e-04,-1.714774255e-04,1.036216694e-04,1.956787603e-04,2.993004297e-04,-1.050828376e-03,-1.976047385e-05,-1.070588850e-03,5.971273040e-04,3.403149715e-04,9.374422755e-04,-5.259323603e-04,5.360792118e-04,1.014685148e-05,-9.057876766e-04,4.547515886e-04,-4.510360879e-04,-1.364915326e-03,8.654471722e-04,-4.994681542e-04,-9.275682791e-04,4.760308591e-04,-4.515374201e-04,-1.636998118e-04,1.766753365e-04,1.297552465e-05,1.045054856e-04,1.445737867e-04,2.490792724e-04,-4.048916646e-04,5.033162034e-05,-3.545600443e-04,-1.239390641e-03,2.241087143e-04,-1.015281926e-03,1.406045097e-04,8.846370215e-05,2.290682118e-04,7.553843685e-04,2.917962279e-04,1.047180596e-03,-1.274445629e-04,-4.765406341e-05,-1.750986263e-04,-2.581616449e-05,2.391120261e-04,2.132958616e-04
-8.6,1.284892090e-03,2.362476851e-04,1.521139775e-03,-2.064270893e-04,2.440817357e-04,3.765464647e-05,3.424397028e-04,2.659516267e-04,6.083913295e-04,5.239873726e-04,4.660610430e-04,9.900484156e-04,-2.017849535e-04,4.257442347e-04,2.239592812e-04,-2.146273749e-04,1.103839506e-05,-2.035889798e-04,8.841866954e-04,1.689376841e-04,1.053124379e-03,1.155189089e-03,-5.899972072e-05,1.096189368e-03,-3.893610145e-04,7.474690918e-05,-3.146141054e-04,7.800529848e-04,-2.364726976e-05,7.564057151e-04,-8.004600862e-05,1.798327164e-04,9.978670781e-05,-1.219686343e-03,2.260623833e-04,-9.936239598e-04,-5.469170640e-04,2.050801862e-04,-3.418368778e-04,-4.813786534e-04,7.281663402e-05,-4.085620194e-04,-5.055316624e-04,3.201045546e-04,-1.854271078e-04,-2.426755705e-04,2.507194843e-04,8.043913860e-06,1.068608540e-03,-5.143072025e-04,5.543013375e-04,7.729741033e-04,1.639526086e-05,7.893693642e-04,2.535763760e-04,2.739606778e-04,5.275370538e-04,4.403129594e-04,5.386466479e-05,4.941776241e-04,-2.671873089e-04,1.527945996e-04,-1.143927092e-04,1.741375358e-04,1.808266384e-04,3.549641741e-04,-9.696157274e-04,-3.395618216e-05,-1.003571910e-03,6.447162035e-04,3.231157357e-04,9.678319391e-04,-4.385066767e-04,5.304251719e-04,9.191849518e-05,-7.984361574e-04,4.363024925e-04,-3.621336649e-04,-1.192409693e-03,8.464030092e-04,-3.460066841e-04,-7.920321394e-04,4.657968840e-04,-3.262352554e-04,-4.027953384e-05,1.687986712e-04,1.285191374e-04,1.524540310e-04,1.360374093e-04,2.884914403e-04,-2.894280254e-04,5.082575760e-05,-2.386022678e-04,-1.155945673e-03,2.260997331e-04,-9.298459396e-04,2.858280046e-04,5.922565265e-05,3.450536572e-04,8.056745238e-04,3.017546969e-04,1.107429221e-03,-3.502008307e-05,-4.534737995e-05,-8.036746302e-05,-1.730652970e-05,2.489967499e-04,2.316902202e-04
-8.5,1.309518370e-03,2.255606342e-04,1.535079004e-03,-1.238586740e-04,2.211036812e-04,9.724500711e-05,3.916549990e-04,2.533551640e-04,6.450101631e-04,5.940832278e-04,4.505483635e-04,1.044631591e-03,-1.053462007e-04,4.054539413e-04,3.001077406e-04,-1.326841643e-04,3.812587095e-06,-1.288715772e-04,9.778216812e-04,1.635168566e-04,1.141338538e-03,1.226516842e-03,-6.803771417e-05,1.158479128e-03,-3.187127269e-04,7.140553240e-05,-2.473071945e-04,8.430915475e-04,-2.927162492e-05,8.138199226e-04,-9.855055300e-06,1.697464958e-04,1.598914405e-04,-1.053178124e-03,2.080104934e-04,-8.451676302e-04,-4.036128282e-04,2.093972292e-04,-1.942155990e-04,-3.661832740e-04,5.467350864e-05,-3.115097653e-04,-3.529334571e-04,3.056802321e-04,-4.725322500e-05,-1.366277525e-04,2.539453958e-04,1.173176432e-04,1.132499111e-03,-4.458879736e-04,6.866111378e-04,8.396674987e-04,1.591510112e-05,8.555825998e-04,3.823904228e-04,2.466467381e-04,6.290371609e-04,5.042746261e-04,5.063656430e-05,5.549111904e-04,-2.062480324e-04,1.480332250e-04,-5.821480739e-05,2.439869909e-04,1.658546682e-04,4.098416591e-04,-8.888038331e-04,-4.882984608e-05,-9.376336792e-04,6.923478843e-04,3.053399436e-04,9.976878279e-04,-3.509526802e-04,5.228836846e-04,1.719310044e-04,-6.903043752e-04,4.156424423e-04,-2.746619330e-04,-1.015162724e-03,8.220673490e-04,-1.930953752e-04,-6.541953148e-04,4.513384432e-04,-2.028568717e-04,8.300113071e-05,1.603064286e-04,2.433075593e-04,1.992294122e-04,1.278813961e-04,3.271108083e-04,-1.741977741e-04,5.231217884e-05,-1.218855952e-04,-1.069174833e-03,2.272852738e-04,-8.418895593e-04,4.324371466e-04,3.014602835e-05,4.625831749e-04,8.552772227e-04,3.105361138e-04,1.165813337e-03,5.772647875e-05,-4.307110551e-05,1.465537324e-05,-6.914413770e-06,2.581954471e-04,2.512810333e-04
-8.4,1.333481034e-03,2.147667196e-04,1.548247754e-03,-4.042040663e-05,1.975540447e-04,1.571336381e-04,4.412127731e-04,2.404629890e-04,6.816757621e-04,6.652267648e-04,4.342087209e-04,1.099435486e-03,-8.233149022e-06,3.841138474e-04,3.758806984e-04,-5.102989828e-05,-3.868456254e-06,-5.489835453e-05,1.071733806e-03,1.578375545e-04,1.229571360e-03,1.295841039e-03,-7.678545938e-05,1.219055579e-03,-2.471835931e-04,6.771784731e-05,-1.794657458e-04,9.044935040e-04,-3.489037112e-05,8.696031329e-04,5.969712569e-05,1.589176640e-04,2.186147897e-04,-8.873904831e-04,1.881840230e-04,-6.992064600e-04,-2.607308204e-04,2.128864462e-04,-4.784437414e-05,-2.514718135e-04,3.535426189e-05,-2.161175516e-04,-1.998775085e-04,2.905381864e-04,9.066067790e-05,-3.039148045e-05,2.565855087e-04,2.261940283e-04,1.198159104e-03,-3.784426289e-04,8.197164749e-04,9.039430963e-04,1.567427139e-05,9.196173677e-04,5.089814951e-04,2.214153705e-04,7.303968655e-04,5.658908668e-04,4.718233952e-05,6.130732063e-04,-1.459040146e-04,1.427193767e-04,-3.184637891e-06,3.128456501e-04,1.508576832e-04,4.637033333e-04,-8.088872251e-04,-6.429929750e-05,-8.731865226e-04,7.397934599e-04,2.871417080e-04,1.026935168e-03,-2.637967417e-04,5.136317200e-04,2.498349782e-04,-5.818998120e-04,3.928387287e-04,-1.890610833e-04,-8.343612793e-04,7.924522009e-04,-4.190907841e-05,-5.147830775e-04,4.327815906e-04,-8.200148686e-05,2.055165197e-04,1.512339783e-04,3.567504979e-04,2.444882286e-04,1.201676261e-04,3.646558547e-04,-5.970405639e-05,5.472276784e-05,-4.981288551e-06,-9.795545756e-04,2.276317793e-04,-7.519227963e-04,5.794984705e-04,1.555773596e-06,5.810542441e-04,9.036993575e-04,3.179990155e-04,1.221698373e-03,1.503282475e-04,-4.107898115e-05,1.092492664e-04,5.143615097e-06,2.665743765e-04,2.717179916e-04
-8.3,1.356585737e-03,2.039360701e-04,1.560521807e-03,4.341763847e-05,1.735166806e-04,2.169343191e-04,4.908889038e-04,2.273531355e-04,7.182420393e-04,7.371062532e-04,4.171457617e-04,1.154252015e-03,8.913767043e-05,3.618266002e-04,4.509642706e-04,2.979553382e-05,-1.199200762e-05,1.780352619e-05,1.165464065e-03,1.519472764e-04,1.317411342e-03,1.362672857e-03,-8.522752469e-05,1.277445333e-03,-1.751017862e-04,6.370208211e-05,-1.113997041e-04,9.638814607e-04,-4.045593595e-05,9.234255248e-04,1.282617521e-04,1.474049106e-04,2.756666627e-04,-7.230437766e-04,1.665985909e-04,-5.564451858e-04,-1.187697238e-04,2.154448264e-04,9.667510259e-05,-1.378141175e-04,1.495014573e-05,-1.228639718e-04,-4.703592287e-05,2.747045026e-04,2.276685797e-04,7.563127572e-05,2.585137391e-04,3.341450149e-04,1.265292578e-03,-3.128515050e-04,9.524410732e-04,9.653940330e-04,1.562381805e-05,9.810178510e-04,6.317013918e-04,1.988224964e-04,8.305238882e-04,6.247572226e-04,4.351147152e-05,6.682686941e-04,-8.642027771e-05,1.368978654e-04,5.047758772e-05,3.804153656e-04,1.359305815e-04,5.163459470e-04,-7.303395030e-04,-8.027778350e-05,-8.106172865e-04,7.868444648e-04,2.686778878e-04,1.055522353e-03,-1.775420152e-04,5.028479404e-04,3.253059252e-04,-4.737193470e-04,3.679784270e-04,-1.057409200e-04,-6.512458807e-04,7.576570866e-04,1.064112059e-04,-3.745392932e-04,4.103143066e-04,3.577501343e-05,3.266559091e-04,1.416227986e-04,4.682787077e-04,2.879151721e-04,1.129472866e-04,4.008624587e-04,5.356700933e-05,5.797425543e-05,1.115412648e-04,-8.875625589e-04,2.271008595e-04,-6.604616994e-04,7.260304638e-04,-2.619788951e-05,6.998325743e-04,9.504393984e-04,3.240251526e-04,1.274464551e-03,2.423126182e-04,-3.961441072e-05,2.026982075e-04,1.864079033e-05,2.739820351e-04,2.926228254e-04
-8.2,1.378659067e-03,1.931414118e-04,1.571800479e-03,1.271907207e-04,1.490783496e-04,2.762690703e-04,5.404736423e-04,2.141058662e-04,7.545795085e-04,8.094246493e-04,3.994673838e-04,1.208892033e-03,1.863577494e-04,3.387010013e-04,5.250587507e-04,1.092528564e-04,-2.054482337e-05,8.870803302e-05,1.258553585e-03,1.458960716e-04,1.404449657e-03,1.426531289e-03,-9.334938461e-05,1.333181905e-03,-1.027988543e-04,5.937922577e-05,-4.341962849e-05,1.020893187e-03,-4.592134653e-05,9.749718403e-04,1.955057999e-04,1.352735215e-04,3.307793215e-04,-5.608346375e-04,1.432944146e-04,-4.175402229e-04,2.175789088e-05,2.169817947e-04,2.387396855e-04,-2.575990629e-05,-6.434452050e-06,-3.219435834e-05,1.049117604e-04,2.582143252e-04,3.631260856e-04,1.810414146e-04,2.596133976e-04,4.406548122e-04,1.333580556e-03,-2.499859302e-04,1.083594626e-03,1.023639661e-03,1.570311620e-05,1.039342777e-03,7.489514891e-04,1.794127763e-04,9.283642654e-04,6.804960488e-04,3.963403287e-05,7.201300816e-04,-2.804336279e-05,1.306177930e-04,1.025744302e-04,4.464280619e-04,1.211674438e-04,5.675955058e-04,-6.536073875e-04,-9.667494950e-05,-7.502823369e-04,8.333148282e-04,2.501058034e-04,1.083420632e-03,-9.266052837e-05,4.907065552e-04,3.980460269e-04,-3.662424373e-04,3.411685738e-04,-2.507386353e-05,-4.670878707e-04,7.178704690e-04,2.507825983e-04,-2.342183480e-04,3.841846959e-04,1.499663479e-04,4.458292862e-04,1.315202625e-04,5.773495488e-04,3.292269207e-04,1.062608109e-04,4.354877316e-04,1.651491034e-04,6.197209346e-05,2.271211968e-04,-7.936715921e-04,2.256508056e-04,-5.680207866e-04,8.710127386e-04,-5.275646613e-05,8.182562725e-04,9.950051129e-04,3.285168200e-04,1.323521933e-03,3.332022605e-04,-3.890167898e-05,2.943005815e-04,3.333609714e-05,2.802599048e-04,3.135960019e-04
-8.1,1.399550767e-03,1.824572640e-04,1.582008031e-03,2.104439665e-04,1.243275432e-04,3.347715097e-04,5.897736373e-04,2.008027621e-04,7.905763994e-04,8.819020087e-04,3.812844545e-04,1.263186463e-03,2.830306311e-04,3.148507811e-04,5.978814122e-04,1.868086191e-04,-2.951328223e-05,1.572953368e-04,1.350547538e-03,1.397360011e-04,1.490283539e-03,1.486947800e-03,-1.011375858e-04,1.385810214e-03,-3.060680727e-05,5.477291648e-05,2.416610921e-05,1.075184027e-03,-5.124093109e-05,1.023943096e-03,2.611149868e-04,1.225947013e-04,3.837096880e-04,-4.014356810e-04,1.183419808e-04,-2.830937003e-04,1.603336454e-04,2.174126470e-04,3.777462924e-04,8.416400943e-05,-2.868340816e-05,5.548060128e-05,2.552846873e-04,2.411102349e-04,4.963949222e-04,2.854465151e-04,2.597778148e-04,5.452243299e-04,1.402678147e-03,-1.906914481e-04,1.211986699e-03,1.078330945e-03,1.584031567e-05,1.094171261e-03,8.592336270e-04,1.636933699e-04,1.022926997e-03,7.327587244e-04,3.556033803e-05,7.683190624e-04,2.899925331e-05,1.239317460e-04,1.529309994e-04,5.106467351e-04,1.066605718e-04,6.173073069e-04,-5.791072813e-04,-1.133978545e-04,-6.925051358e-04,8.790409113e-04,2.315810432e-04,1.110621954e-03,-9.587755648e-06,4.773714639e-04,4.677837082e-04,-2.599284395e-04,3.125362214e-04,5.260778187e-05,-2.831715676e-04,6.733712881e-04,3.901997205e-04,-9.458044976e-05,3.546970985e-04,2.601166487e-04,5.624694013e-04,1.209795533e-04,6.834489546e-04,3.681733191e-04,1.001382770e-04,4.683115960e-04,2.745963703e-04,6.661402417e-05,3.412103944e-04,-6.983470983e-04,2.232393428e-04,-4.751077555e-04,1.013398468e-03,-7.776057432e-05,9.356378934e-04,1.036929630e-03,3.313930833e-04,1.368322714e-03,4.225134941e-04,-3.913666287e-05,3.833768312e-04,4.896846243e-05,2.852551248e-04,3.342235872e-04
-8,1.419134453e-03,1.719589122e-04,1.591093366e-03,2.927352596e-04,9.935333501e-05,3.920885947e-04,6.386122112e-04,1.875256905e-04,8.261379018e-04,9.542761859e-04,3.627095419e-04,1.316985728e-03,3.787737315e-04,2.903933935e-04,6.691671251e-04,2.619393038e-04,-3.888353270e-05,2.230557711e-04,1.440997394e-03,1.335206408e-04,1.574518035e-03,1.543469708e-03,-1.085802347e-04,1.434889473e-03,4.114382846e-05,4.990942235e-05,9.105325082e-05,1.126427680e-03,-5.637092649e-05,1.070056753e-03,3.247948232e-04,1.094448079e-04,4.342396311e-04,-2.454986783e-04,9.184554970e-05,-1.536531286e-04,2.964376192e-04,2.166552063e-04,5.130928256e-04,1.914533389e-04,-5.167048365e-05,1.397828553e-04,4.034053001e-04,2.234404382e-04,6.268457384e-04,3.884619584e-04,2.589108571e-04,6.473728155e-04,1.472209599e-03,-1.357711438e-04,1.336438456e-03,1.129152968e-03,1.595364894e-05,1.145106617e-03,9.611962059e-04,1.521060018e-04,1.113302208e-03,7.812258461e-04,3.130040870e-05,8.125262548e-04,8.449785816e-05,1.168949725e-04,2.013928306e-04,5.728638044e-04,9.249958298e-05,6.653633874e-04,-5.072240704e-04,-1.303519694e-04,-6.375760398e-04,9.238799329e-04,2.132554483e-04,1.137135381e-03,7.127937885e-05,4.629911971e-04,5.342705759e-04,-1.552179190e-04,2.822280969e-04,1.270101779e-04,-1.007790545e-04,6.245270915e-04,5.237480370e-04,4.361054624e-05,3.222059394e-04,3.658164856e-04,6.760306529e-04,1.100595598e-04,7.860902127e-04,4.045353420e-04,9.460052689e-05,4.991358689e-04,3.814823552e-04,7.179303996e-05,4.532753952e-04,-6.020477197e-04,2.198269472e-04,-3.822207725e-04,1.152129578e-03,-1.008648684e-04,1.051264709e-03,1.075785909e-03,3.325840225e-04,1.408369931e-03,5.097526764e-04,-4.047867137e-05,4.692740051e-04,6.525109330e-05,2.888322418e-04,3.540833351e-04
-7.9,1.437307011e-03,1.617210748e-04,1.599028085e-03,3.736366300e-04,7.424434795e-05,4.478809779e-04,6.868282289e-04,1.743557159e-04,8.611839449e-04,1.026302031e-03,3.438557048e-04,1.370157736e-03,4.732183054e-04,2.654488700e-04,7.386671754e-04,3.341344187e-04,-4.864156641e-05,2.854928522e-04,1.529461709e-03,1.273046658e-04,1.656766374e-03,1.595662629e-03,-1.156676580e-04,1.479994971e-03,1.121251759e-04,4.481769930e-05,1.569428752e-04,1.174315788e-03,-6.126992193e-05,1.113045866e-03,3.862701503e-04,9.590456280e-05,4.821747131e-04,-9.366018711e-05,6.394464849e-05,-2.971553862e-05,4.295494278e-04,2.146298935e-04,6.441793213e-04,2.956240283e-04,-7.526104233e-05,2.203629859e-04,5.486022411e-04,2.052571197e-04,7.538593608e-04,4.897096604e-04,2.569276572e-04,7.466373177e-04,1.541760679e-03,-8.596874729e-05,1.455791932e-03,1.175824118e-03,1.595379190e-05,1.191777910e-03,1.053670705e-03,1.450011740e-04,1.198671879e-03,8.256060930e-04,2.686335403e-05,8.524694470e-04,1.382580014e-04,1.095645532e-04,2.478225545e-04,6.328976128e-04,7.877058267e-05,7.116681955e-04,-4.383114380e-04,-1.474421402e-04,-5.857535782e-04,9.677073687e-04,1.952752845e-04,1.162982653e-03,1.495808588e-04,4.476952233e-04,5.972760821e-04,-5.253662049e-05,2.504095222e-04,1.978729017e-04,7.882466668e-05,5.717870416e-04,6.506117083e-04,1.795880296e-04,2.871078160e-04,4.666958456e-04,7.859858514e-04,9.882490780e-05,8.848107592e-04,4.381204769e-04,8.966069595e-05,5.277811729e-04,4.853980360e-04,7.739963468e-05,5.627976706e-04,-5.052277898e-04,2.153800140e-04,-2.898477758e-04,1.286152337e-03,-1.217535378e-04,1.164398799e-03,1.111199065e-03,3.320231088e-04,1.443222174e-03,5.944122219e-04,-4.304478082e-05,5.513674411e-04,8.186805964e-05,2.908816995e-04,3.727497591e-04
-7.8,1.453987075e-03,1.518163359e-04,1.605803411e-03,4.527346265e-04,4.908789612e-05,5.018225226e-04,7.342741334e-04,1.613720388e-04,8.956461722e-04,1.097749556e-03,3.248353776e-04,1.422584933e-03,5.660083398e-04,2.401387646e-04,8.061471044e-04,4.028989483e-04,-5.877319766e-05,3.441257507e-04,1.615506053e-03,1.211434947e-04,1.736649548e-03,1.643112331e-03,-1.223927867e-04,1.520719545e-03,1.820127754e-04,3.952944101e-05,2.215422164e-04,1.218557059e-03,-6.589917425e-05,1.152657885e-03,4.452839083e-04,8.205823836e-05,5.273421467e-04,5.345226644e-05,3.481386102e-05,8.826612746e-05,5.591477625e-04,2.112619581e-04,7.704097207e-04,3.962097557e-04,-9.931384263e-05,2.968959131e-04,6.902121394e-04,1.866148581e-04,8.768269975e-04,5.888152866e-04,2.537558326e-04,8.425711192e-04,1.610869002e-03,-4.195159110e-05,1.568917411e-03,1.218092601e-03,1.574705768e-05,1.233839659e-03,1.135694378e-03,1.426185208e-04,1.278312899e-03,8.656345796e-04,2.225680979e-05,8.878913893e-04,1.900977163e-04,1.019985328e-04,2.920962491e-04,6.905881541e-04,6.555535141e-05,7.561435055e-04,-3.726926944e-04,-1.645734885e-04,-5.372661830e-04,1.010414038e-03,1.777796261e-04,1.188193665e-03,2.249893364e-04,4.315919759e-04,6.565813123e-04,4.769965527e-05,2.172626686e-04,2.649623239e-04,2.544061507e-04,5.156710767e-04,7.700772273e-04,3.125835469e-04,2.498327848e-04,5.624163316e-04,8.918225331e-04,8.734623532e-05,9.791687684e-04,4.687576312e-04,8.532542745e-05,5.540830586e-04,5.859498615e-04,8.332333440e-05,6.692731959e-04,-4.083403494e-04,2.098735945e-04,-1.984667549e-04,1.414431438e-03,-1.401530882e-04,1.274278350e-03,1.142854393e-03,3.296396973e-04,1.472494090e-03,6.759681638e-04,-4.690703770e-05,6.290611261e-04,9.847452724e-05,2.913247404e-04,3.897992676e-04
-7.7,1.469113052e-03,1.423135755e-04,1.611426628e-03,5.296304067e-04,2.396931843e-05,5.535997251e-04,7.808138491e-04,1.486510164e-04,9.294648655e-04,1.168401668e-03,3.057593352e-04,1.474161003e-03,6.567993977e-04,2.145851794e-04,8.713845770e-04,4.677557013e-04,-6.926395627e-05,3.984917451e-04,1.698702936e-03,1.150928717e-04,1.813795808e-03,1.685426206e-03,-1.287506278e-04,1.556675578e-03,2.504865055e-04,3.407900378e-05,2.845655093e-04,1.258876749e-03,-7.022287823e-05,1.188653871e-03,5.015960987e-04,6.799279169e-05,5.695888904e-04,1.952161400e-04,4.661241429e-06,1.998773814e-04,6.847102591e-04,2.064844144e-04,8.911946736e-04,4.927610181e-04,-1.236828714e-04,3.690781466e-04,8.275816981e-04,1.675689438e-04,9.951506419e-04,6.854050741e-04,2.493371860e-04,9.347422600e-04,1.679015766e-03,-4.293511186e-06,1.674722255e-03,1.255731943e-03,1.523890558e-05,1.270970848e-03,1.206518378e-03,1.450760443e-04,1.351594422e-03,9.010716161e-04,1.748663031e-05,9.185582464e-04,2.398455407e-04,9.425507216e-05,3.341006128e-04,7.457931563e-04,5.293054997e-05,7.987237063e-04,-3.106610129e-04,-1.816522131e-04,-4.923132260e-04,1.051903632e-03,1.608990052e-04,1.212802637e-03,2.972051975e-04,4.147688008e-04,7.119739983e-04,1.450813967e-04,1.829843664e-04,3.280657632e-04,4.247771934e-04,4.567574352e-04,8.815346286e-04,4.418295839e-04,2.108354221e-04,6.526650060e-04,9.930410876e-04,7.570042443e-05,1.068741512e-03,4.962943014e-04,8.159509889e-05,5.778894003e-04,6.827586143e-04,8.945366979e-05,7.722122841e-04,-3.118398142e-04,2.032937882e-04,-1.085460260e-04,1.535963373e-03,-1.558419495e-04,1.380121424e-03,1.170498350e-03,3.253549499e-04,1.495853300e-03,7.538809249e-04,-5.209221603e-05,7.017887088e-04,1.147004712e-04,2.901163865e-04,4.048168577e-04
-7.6,1.482641206e-03,1.332766329e-04,1.615917839e-03,6.039403722e-04,-1.028543070e-06,6.029118292e-04,8.263212727e-04,1.362652705e-04,9.625865433e-04,1.238052148e-03,2.867356637e-04,1.524787811e-03,7.452585089e-04,1.889098016e-04,9.341683105e-04,5.282481277e-04,-8.009887149e-05,4.481492562e-04,1.778632652e-03,1.092082656e-04,1.887840917e-03,1.722234696e-03,-1.347364940e-04,1.587498202e-03,3.172322840e-04,2.850312780e-05,3.457354118e-04,1.295017332e-03,-7.420840856e-05,1.220808924e-03,5.549839129e-04,5.379694398e-05,6.087808569e-04,3.310150142e-04,-2.627444711e-05,3.047405671e-04,8.057150981e-04,2.002409995e-04,1.005956098e-03,5.848473926e-04,-1.482190469e-04,4.366283457e-04,9.600715805e-04,1.481738228e-04,1.108245403e-03,7.791035113e-04,2.436295287e-04,1.022733040e-03,1.745622928e-03,2.654211958e-05,1.772165048e-03,1.288537600e-03,1.433736484e-05,1.302874965e-03,1.265604573e-03,1.523685218e-04,1.417973095e-03,9.317028178e-04,1.255701370e-05,9.442598315e-04,2.873403475e-04,8.639177042e-05,3.737321179e-04,7.983855299e-04,4.096702535e-05,8.393525553e-04,-2.524781585e-04,-1.985862870e-04,-4.510644456e-04,1.092091287e-03,1.447543421e-04,1.236845629e-03,3.659529291e-04,3.972936660e-04,7.632465951e-04,2.392053072e-04,1.477833812e-04,3.869886883e-04,5.888087874e-04,3.956700176e-04,9.844788050e-04,5.665664215e-04,1.705856602e-04,7.371520817e-04,1.089156715e-03,6.397032233e-05,1.153127037e-03,5.205980052e-04,7.846292300e-05,5.990609282e-04,7.754597418e-04,9.568096941e-05,8.711407113e-04,-2.161834166e-04,1.956396918e-04,-2.054372476e-05,1.649791601e-03,-1.686577624e-04,1.481133839e-03,1.193931982e-03,3.190838459e-04,1.513015828e-03,8.276001657e-04,-5.858349213e-05,7.690166735e-04,1.301567032e-04,2.872482670e-04,4.174049702e-04
-7.5,1.494544293e-03,1.247633049e-04,1.619307598e-03,6.752980121e-04,-2.582584177e-05,6.494721703e-04,8.706798458e-04,1.242828693e-04,9.949627151e-04,1.306504370e-03,2.678686522e-04,1.574373022e-03,8.310659238e-04,1.632328717e-04,9.942987956e-04,5.839440422e-04,-9.126212921e-05,4.926819130e-04,1.854885654e-03,1.035440771e-04,1.958429731e-03,1.753193462e-03,-1.403434372e-04,1.612850024e-03,3.819449294e-04,2.284044709e-05,4.047853765e-04,1.326740794e-03,-7.782648559e-05,1.248914308e-03,6.052435479e-04,3.956024352e-05,6.448037914e-04,4.602468360e-04,-5.772761586e-05,4.025192201e-04,9.216446996e-04,1.924894927e-04,1.114134192e-03,6.720634187e-04,-1.727715455e-04,4.992918732e-04,1.087062806e-03,1.284819856e-04,1.215544791e-03,8.695330660e-04,2.366081014e-04,1.106141167e-03,1.810056131e-03,5.021900907e-05,1.860275140e-03,1.316326040e-03,1.295631451e-05,1.329282354e-03,1.312615936e-03,1.643733510e-04,1.476989287e-03,9.573410409e-04,7.471085711e-06,9.648121266e-04,3.324334085e-04,7.846521983e-05,4.108986283e-04,8.482526198e-04,2.972922866e-05,8.779818485e-04,-1.983715264e-04,-2.152861116e-04,-4.136576380e-04,1.130903306e-03,1.294560705e-04,1.260359377e-03,4.309801708e-04,3.792179620e-04,8.101981328e-04,3.296794806e-04,1.118768592e-04,4.415563398e-04,7.454471329e-04,3.330660498e-04,1.078513183e-03,6.860540672e-04,1.295595114e-04,8.156135785e-04,1.179705691e-03,5.224368487e-05,1.231949376e-03,5.415622285e-04,7.591329004e-05,6.174755185e-04,8.637054089e-04,1.018972595e-04,9.656026684e-04,-1.218305640e-04,1.869246106e-04,6.509404658e-05,1.755024618e-03,-1.785028052e-04,1.576521813e-03,1.212999754e-03,3.107430124e-04,1.523742766e-03,8.965735290e-04,-6.632337161e-05,8.302501574e-04,1.444425430e-04,2.827514165e-04,4.271939595e-04
-7.4,1.504810881e-03,1.168246480e-04,1.621635529e-03,7.433570135e-04,-5.034633127e-05,6.930106822e-04,9.137831288e-04,1.127665778e-04,1.026549707e-03,1.373570846e-03,2.492575839e-04,1.622828430e-03,9.139187068e-04,1.376720683e-04,1.051590775e-03,6.344403098e-04,-1.027366482e-04,5.317036616e-04,1.927066337e-03,9.815274510e-05,2.025219082e-03,1.777986944e-03,-1.455599585e-04,1.632426986e-03,4.443319824e-04,1.713083825e-05,4.614628207e-04,1.353832167e-03,-8.105126617e-05,1.272780900e-03,6.521933070e-04,2.537212996e-05,6.775654369e-04,5.823379292e-04,-8.941074049e-05,4.929271888e-04,1.031990830e-03,1.832059248e-04,1.215196754e-03,7.540366337e-04,-1.971887006e-04,5.568479331e-04,1.207965234e-03,1.085431042e-04,1.316508338e-03,9.563165020e-04,2.282661684e-04,1.184582670e-03,1.871631308e-03,6.654304643e-05,1.938174355e-03,1.338936149e-03,1.101877959e-05,1.349954928e-03,1.347404901e-03,1.808610933e-04,1.528265994e-03,9.778296457e-04,2.231720828e-06,9.800613666e-04,3.749920325e-04,7.053066586e-05,4.455226984e-04,8.952966929e-04,1.927458202e-05,9.145712749e-04,-1.485303843e-04,-2.316652110e-04,-3.801955953e-04,1.168277390e-03,1.151033207e-04,1.283380711e-03,4.920594771e-04,3.605796230e-04,8.526391001e-04,4.161334825e-04,7.548583539e-05,4.916193179e-04,8.937318979e-04,2.696239738e-04,1.163355872e-03,7.995878070e-04,8.823014458e-05,8.878179515e-04,1.264254308e-03,4.061135767e-05,1.304865665e-03,5.591150016e-04,7.391991811e-05,6.330349197e-04,9.471678071e-04,1.079972000e-04,1.055165007e-03,-2.924012017e-05,1.771764514e-04,1.479363312e-04,1.850854846e-03,-1.853471631e-04,1.665507682e-03,1.227578513e-03,3.002609835e-04,1.527839497e-03,9.602582923e-04,-7.521770387e-05,8.850405884e-04,1.571554413e-04,2.766972542e-04,4.338526955e-04
-7.3,1.513444891e-03,1.095044662e-04,1.622949357e-03,8.077948968e-04,-7.451809060e-05,7.332768062e-04,9.555356646e-04,1.017731558e-04,1.057308820e-03,1.439073033e-03,2.309954843e-04,1.670068517e-03,9.935351215e-04,1.123413775e-04,1.105876499e-03,6.793680535e-04,-1.145036712e-04,5.648643823e-04,1.994797354e-03,9.308384154e-05,2.087881196e-03,1.796333175e-03,-1.503689698e-04,1.645964205e-03,5.041177855e-04,1.141469441e-05,5.155324799e-04,1.376103311e-03,-8.386045256e-05,1.292242859e-03,6.956768278e-04,1.132097297e-05,7.069978008e-04,6.967584768e-04,-1.210200655e-04,5.757384113e-04,1.136259675e-03,1.723895516e-04,1.308649226e-03,8.304351079e-04,-2.213187210e-04,6.091163869e-04,1.322226741e-03,8.840293384e-05,1.410629675e-03,1.039081184e-03,2.186146608e-04,1.257695845e-03,1.929625333e-03,7.547254396e-05,2.005097877e-03,1.356231740e-03,8.460295472e-06,1.364692035e-03,1.370003156e-03,2.015069285e-04,1.571510085e-03,9.930458096e-04,-3.157679217e-06,9.898881304e-04,4.149033196e-04,6.264159542e-05,4.775449151e-04,9.394353417e-04,9.652614158e-06,9.490879559e-04,-1.031028474e-04,-2.476410077e-04,-3.507438551e-04,1.204162376e-03,1.017830846e-04,1.305945461e-03,5.489914073e-04,3.414061443e-04,8.903975516e-04,4.982304848e-04,3.883020627e-05,5.370606911e-04,1.032814040e-03,2.060319905e-04,1.238846030e-03,9.065143384e-04,4.705940803e-05,9.535737465e-04,1.342407701e-03,2.916496222e-05,1.371572663e-03,5.732268754e-04,7.244443968e-05,6.456713151e-04,1.025542615e-03,1.138788948e-04,1.139421510e-03,6.113335539e-05,1.664374552e-04,2.275708106e-04,1.936574841e-03,-1.892287906e-04,1.747346050e-03,1.237569728e-03,2.875870483e-04,1.525156776e-03,1.018134201e-03,-8.514080870e-05,9.329933919e-04,1.679028560e-04,2.691944450e-04,4.370973010e-04
-7.2,1.520464598e-03,1.028388691e-04,1.623303467e-03,8.683160728e-04,-9.827425903e-05,7.700418138e-04,9.958531916e-04,9.135265477e-05,1.087205846e-03,1.502840609e-03,2.131679096e-04,1.716008518e-03,1.069658298e-03,8.735004582e-05,1.157008344e-03,7.183976920e-04,-1.265424413e-04,5.918552507e-04,2.057723373e-03,8.838317110e-05,2.146106544e-03,1.807988742e-03,-1.547481591e-04,1.653240583e-03,5.610470595e-04,5.732229055e-06,5.667792886e-04,1.393395889e-03,-8.623550241e-05,1.307160386e-03,7.355652575e-04,-2.506932549e-06,7.330583249e-04,8.030353018e-04,-1.522421639e-04,6.507931379e-04,1.233975319e-03,1.600679572e-04,1.394043276e-03,9.009723559e-04,-2.450105743e-04,6.559617816e-04,1.429341204e-03,6.810206005e-05,1.497443264e-03,1.117463971e-03,2.076810908e-04,1.325145062e-03,1.983292889e-03,7.711952170e-05,2.060412410e-03,1.368103918e-03,5.232128725e-06,1.373336046e-03,1.380614543e-03,2.258991847e-04,1.606513728e-03,1.002902621e-03,-8.692554078e-06,9.942100672e-04,4.520766645e-04,5.484922099e-05,5.069258855e-04,9.806005767e-04,9.038914613e-07,9.815044682e-04,-6.219479920e-05,-2.631356479e-04,-3.253304471e-04,1.238516720e-03,8.956939326e-05,1.328086113e-03,6.016070002e-04,3.217175105e-04,9.233245107e-04,5.756774962e-04,2.123974607e-06,5.778014708e-04,1.161969408e-03,1.429780038e-04,1.304947412e-03,1.006245971e-03,6.489129853e-06,1.012735101e-03,1.413816293e-03,1.799453133e-05,1.431810825e-03,5.839153228e-04,7.143607791e-05,6.553514007e-04,1.098551522e-03,1.194446264e-04,1.217996148e-03,1.488432037e-04,1.547635174e-04,3.036067211e-04,2.011588864e-03,-1.902504018e-04,1.821338462e-03,1.242895248e-03,2.726973240e-04,1.515592572e-03,1.069715314e-03,-9.594108178e-05,9.737742325e-04,1.763157454e-04,2.603808277e-04,4.366965731e-04
-7.1,1.525900440e-03,9.685584017e-05,1.622756280e-03,9.246535509e-04,-1.215536655e-04,8.030998854e-04,1.034661569e-03,8.154767370e-05,1.116209242e-03,1.564709637e-03,1.958518341e-04,1.760561471e-03,1.142058049e-03,6.280166617e-05,1.204859715e-03,7.512432368e-04,-1.388299500e-04,6.124132868e-04,2.115513493e-03,8.409187229e-05,2.199605365e-03,1.812752669e-03,-1.586711588e-04,1.654081510e-03,6.148874894e-04,1.229062321e-07,6.150103956e-04,1.405582927e-03,-8.816190653e-05,1.317421021e-03,7.717577293e-04,-1.602837092e-05,7.557293584e-04,9.007601568e-04,-1.827616573e-04,7.179984995e-04,1.324681010e-03,1.463015654e-04,1.470982575e-03,9.654088529e-04,-2.681151982e-04,6.972936547e-04,1.528853884e-03,4.767521720e-05,1.576529101e-03,1.191115383e-03,1.955081114e-04,1.386623495e-03,2.031888235e-03,7.174121546e-05,2.103629450e-03,1.374472475e-03,1.304123540e-06,1.375776599e-03,1.379609297e-03,2.535436952e-04,1.633152992e-03,1.007349347e-03,-1.436670322e-05,9.929826435e-04,4.864443635e-04,4.720195468e-05,5.336463182e-04,1.018736060e-03,-6.941052846e-06,1.011795007e-03,-2.587116628e-05,-2.780768189e-04,-3.039479852e-04,1.271305441e-03,7.852256738e-05,1.349828009e-03,6.497679839e-04,3.015293217e-04,9.512973056e-04,6.482308813e-04,-3.442852768e-05,6.138023536e-04,1.280606358e-03,8.114027143e-05,1.361746629e-03,1.098271700e-03,-3.306828847e-05,1.065203412e-03,1.478178803e-03,7.186444566e-06,1.485365248e-03,5.912439637e-04,7.083294199e-05,6.620769057e-04,1.165943359e-03,1.246016209e-04,1.290544980e-03,2.334534302e-04,1.422234457e-04,3.756768759e-04,2.075419818e-03,-1.885742211e-04,1.886845597e-03,1.243495011e-03,2.555991963e-04,1.499094207e-03,1.114559395e-03,-1.074461111e-04,1.007113284e-03,1.820619340e-04,2.504120966e-04,4.324740306e-04
-7,1.529791412e-03,9.157477080e-05,1.621366183e-03,9.765691058e-04,-1.443012905e-04,8.322678153e-04,1.071894283e-03,7.239258346e-05,1.144286867e-03,1.624519487e-03,1.791146705e-04,1.803634157e-03,1.210530474e-03,3.879340481e-05,1.249323879e-03,7.776655991e-04,-1.513406811e-04,6.263249180e-04,2.167862049e-03,8.024554185e-05,2.248107591e-03,1.810468668e-03,-1.621089667e-04,1.648359701e-03,6.654311559e-04,-5.374950349e-06,6.600562055e-04,1.412568867e-03,-8.962941761e-05,1.322939450e-03,8.041801024e-04,-2.916412890e-05,7.750159735e-04,9.895937358e-04,-2.122701545e-04,7.773235813e-04,1.407938869e-03,1.311869545e-04,1.539125823e-03,1.023550421e-03,-2.904869525e-04,7.330634687e-04,1.620364159e-03,2.715161622e-05,1.647515776e-03,1.259702405e-03,1.821519716e-04,1.441854377e-03,2.074685900e-03,5.972579334e-05,2.134411693e-03,1.375285593e-03,-3.332814804e-06,1.371952779e-03,1.367515320e-03,2.838663701e-04,1.651381690e-03,1.006369972e-03,-2.017199454e-05,9.861979777e-04,5.179603911e-04,3.974491840e-05,5.577053095e-04,1.053792659e-03,-1.386262026e-05,1.039930039e-03,5.840746135e-06,-2.923985169e-04,-2.865577708e-04,1.302495728e-03,6.868855295e-05,1.371184281e-03,6.933639515e-04,2.808563193e-04,9.742202708e-04,7.156965161e-04,-7.063516258e-05,6.450613535e-04,1.388267644e-03,2.117694337e-05,1.409444587e-03,1.182164386e-03,-7.123915568e-05,1.110925230e-03,1.535241932e-03,-3.178327312e-06,1.532063605e-03,5.953167422e-04,7.056497363e-05,6.658817158e-04,1.227493997e-03,1.292627890e-04,1.356756786e-03,3.145406037e-04,1.288983481e-04,4.434389519e-04,2.127712006e-03,-1.844155088e-04,1.943296498e-03,1.239325158e-03,2.363351472e-04,1.475660305e-03,1.152274733e-03,-1.194670047e-04,1.032807728e-03,1.848567059e-04,2.394508600e-04,4.243075659e-04
-6.9,1.532180266e-03,8.700592353e-05,1.619186190e-03,1.023852116e-03,-1.664684856e-04,8.573836309e-04,1.107488821e-03,6.391278845e-05,1.171401610e-03,1.682108703e-03,1.630134566e-04,1.845122159e-03,1.274895700e-03,1.541537274e-05,1.290311073e-03,7.974749245e-04,-1.640462659e-04,6.334286586e-04,2.214487931e-03,7.687341453e-05,2.291361345e-03,1.801026039e-03,-1.650316556e-04,1.635994383e-03,7.124949432e-04,-1.072439164e-05,7.017705516e-04,1.414288362e-03,-9.063214432e-05,1.323656218e-03,8.327823965e-04,-4.183978799e-05,7.909426085e-04,1.069266275e-03,-2.404756336e-04,8.287906413e-04,1.483329570e-03,1.148584832e-04,1.598188053e-03,1.075244403e-03,-3.119851240e-04,7.632592793e-04,1.703526609e-03,6.555802522e-06,1.710082411e-03,1.322910020e-03,1.676809529e-04,1.490590973e-03,2.110994381e-03,4.157775317e-05,2.152572135e-03,1.370517446e-03,-8.664497870e-06,1.361852948e-03,1.345003801e-03,3.162181027e-04,1.661221904e-03,9.999805933e-04,-2.609827981e-05,9.738823135e-04,5.465978689e-04,3.251944227e-05,5.791173112e-04,1.085723026e-03,-1.985282349e-05,1.065870203e-03,3.294656020e-05,-3.060417230e-04,-2.730951628e-04,1.332051729e-03,6.009834667e-05,1.392150076e-03,7.323069149e-04,2.597163061e-04,9.920232211e-04,7.779256196e-04,-1.063173038e-04,6.716083158e-04,1.484626504e-03,-3.628560953e-05,1.448340895e-03,1.257583188e-03,-1.076958379e-04,1.149887350e-03,1.584797825e-03,-1.302591134e-05,1.571771914e-03,5.962687848e-04,7.055786253e-05,6.668266474e-04,1.283005390e-03,1.333473492e-04,1.416352740e-03,3.916952284e-04,1.148809152e-04,5.065761436e-04,2.168230083e-03,-1.780352056e-04,1.990194877e-03,1.230356247e-03,2.149854611e-04,1.445341708e-03,1.182525292e-03,-1.318024673e-04,1.050722825e-03,1.844684116e-04,2.276592985e-04,4.121277102e-04
-6.8,1.533107911e-03,8.314987769e-05,1.616257788e-03,1.066317497e-03,-1.880128508e-04,8.783046464e-04,1.141382422e-03,5.612410646e-05,1.197506528e-03,1.737310270e-03,1.475942392e-04,1.884904509e-03,1.334994461e-03,-7.249845051e-06,1.327744616e-03,8.105321593e-04,-1.769150160e-04,6.336171433e-04,2.255132901e-03,7.399761596e-05,2.329130517e-03,1.784359569e-03,-1.674105159e-04,1.616949053e-03,7.559202853e-04,-1.589000672e-05,7.400302786e-04,1.410704400e-03,-9.116850878e-05,1.319535891e-03,8.575356878e-04,-5.398638590e-05,8.035493019e-04,1.139575660e-03,-2.671106920e-04,8.724649677e-04,1.550454121e-03,9.748762385e-05,1.647941745e-03,1.120375011e-03,-3.324752687e-04,7.878997422e-04,1.778051648e-03,-1.409179429e-05,1.763959854e-03,1.380442095e-03,1.521737956e-04,1.532615891e-03,2.140160941e-03,1.790635915e-05,2.158067300e-03,1.360164358e-03,-1.465172027e-05,1.345512637e-03,1.312870927e-03,3.498846354e-04,1.662755563e-03,9.882264672e-04,-3.213343606e-05,9.560930312e-04,5.723460199e-04,2.556254245e-05,5.979085623e-04,1.114476252e-03,-2.491571083e-05,1.089560541e-03,5.547972363e-05,-3.189549401e-04,-2.634752164e-04,1.359929320e-03,5.276756529e-05,1.412696885e-03,7.665246499e-04,2.381342219e-04,1.004658872e-03,8.348081882e-04,-1.413101187e-04,6.934980695e-04,1.569476954e-03,-9.066382737e-05,1.478813126e-03,1.324271400e-03,-1.421607892e-04,1.182110611e-03,1.626681022e-03,-2.229127631e-05,1.604389746e-03,5.942565575e-04,7.073694600e-05,6.649935035e-04,1.332304210e-03,1.367813295e-04,1.469085539e-03,4.645230447e-04,1.002742750e-04,5.647973197e-04,2.196855321e-03,-1.697321059e-04,2.027123215e-03,1.216571799e-03,1.916693168e-04,1.408241116e-03,1.205035276e-03,-1.442433665e-04,1.060791910e-03,1.807189414e-04,2.151959926e-04,3.959149340e-04
-6.7,1.532607531e-03,7.999711820e-05,1.612604649e-03,1.103803273e-03,-2.088977423e-04,8.949055304e-04,1.173507921e-03,4.903231549e-05,1.222540236e-03,1.789946827e-03,1.328916353e-04,1.922838462e-03,1.390684486e-03,-2.912751476e-05,1.361556971e-03,8.167502138e-04,-1.899113656e-04,6.268388482e-04,2.289559559e-03,7.163250204e-05,2.361192061e-03,1.760448464e-03,-1.692202140e-04,1.591228250e-03,7.955727941e-04,-2.083810567e-05,7.747346884e-04,1.401806486e-03,-9.124110398e-05,1.310565382e-03,8.784294023e-04,-6.554095116e-05,8.128884511e-04,1.200384617e-03,-2.919383025e-04,9.084463144e-04,1.608939596e-03,7.927944006e-05,1.688219036e-03,1.158859529e-03,-3.518301743e-04,8.070293542e-04,1.843706458e-03,-3.477475028e-05,1.808931708e-03,1.432022457e-03,1.357180081e-04,1.567740465e-03,2.161570080e-03,-1.058272167e-05,2.150987358e-03,1.344241271e-03,-2.122967176e-05,1.323011600e-03,1.272018990e-03,3.841009355e-04,1.656119926e-03,9.711796528e-04,-3.826337873e-05,9.329162740e-04,5.952075475e-04,1.890650072e-05,6.141140483e-04,1.139993789e-03,-2.906747322e-05,1.110926316e-03,7.349706605e-05,-3.310945530e-04,-2.575974870e-04,1.386071669e-03,4.669623625e-05,1.432767905e-03,7.959548352e-04,2.161456914e-04,1.012100527e-03,8.862662859e-04,-1.754620473e-04,7.108042386e-04,1.642720914e-03,-1.414262634e-04,1.501294650e-03,1.382051729e-03,-1.744072670e-04,1.207644462e-03,1.660766837e-03,-3.091987689e-05,1.629846961e-03,5.894498551e-04,7.103039827e-05,6.604802534e-04,1.375240708e-03,1.394980241e-04,1.514738732e-03,5.326469069e-04,8.519048495e-05,6.178373918e-04,2.213581030e-03,-1.598348453e-04,2.053746185e-03,1.197967041e-03,1.665449423e-04,1.364511983e-03,1.219593831e-03,-1.565780324e-04,1.063015798e-03,1.734805864e-04,2.022154143e-04,3.756960007e-04
-6.6,1.530699031e-03,7.752790910e-05,1.608226940e-03,1.136168449e-03,-2.290915061e-04,9.070769432e-04,1.203790441e-03,4.263287618e-05,1.246423317e-03,1.839826526e-03,1.189285011e-04,1.958755027e-03,1.441837730e-03,-5.015099038e-05,1.391686740e-03,8.160951910e-04,-2.029952715e-04,6.130999195e-04,2.317549767e-03,6.978411079e-05,2.387333878e-03,1.729314517e-03,-1.704402302e-04,1.558874286e-03,8.313423392e-04,-2.553696755e-05,8.058053717e-04,1.387609677e-03,-9.085647048e-05,1.296753207e-03,8.954698926e-04,-7.644688422e-05,8.190230084e-04,1.251619583e-03,-3.147548812e-04,9.368647014e-04,1.658448948e-03,6.046628939e-05,1.718915238e-03,1.190646915e-03,-3.699303114e-04,8.207166035e-04,1.900316249e-03,-5.548009166e-05,1.844836157e-03,1.477397163e-03,1.184078748e-04,1.595805038e-03,2.174640720e-03,-4.309464844e-05,2.131546072e-03,1.322780491e-03,-2.830911830e-05,1.294471373e-03,1.223437565e-03,4.180681118e-04,1.641505677e-03,9.489380222e-04,-4.447186878e-05,9.044661534e-04,6.151973283e-04,1.257869889e-05,6.277760272e-04,1.162207759e-03,-3.233619224e-05,1.129871566e-03,8.707592731e-05,-3.424250238e-04,-2.553490965e-04,1.410406337e-03,4.186881637e-05,1.452275153e-03,8.205422137e-04,1.937989655e-04,1.014341179e-03,9.322493967e-04,-2.086337934e-04,7.236156034e-04,1.704356846e-03,-1.881014070e-04,1.516255439e-03,1.430822499e-03,-2.042576883e-04,1.226564811e-03,1.686972796e-03,-3.886910611e-05,1.648103690e-03,5.820272496e-04,7.137137360e-05,6.533986232e-04,1.411688630e-03,1.414386056e-04,1.553127235e-03,5.957101050e-04,6.974893441e-05,6.654590394e-04,2.218508357e-03,-1.486931810e-04,2.069815176e-03,1.174547848e-03,1.398093803e-04,1.314357228e-03,1.226060122e-03,-1.685979457e-04,1.057462177e-03,1.626711218e-04,1.888684371e-04,3.515395589e-04
-6.5,1.527384432e-03,7.571245425e-05,1.603096886e-03,1.163291806e-03,-2.485665862e-04,9.147252194e-04,1.232145524e-03,3.691083186e-05,1.269056356e-03,1.886740117e-03,1.057156431e-04,1.992455760e-03,1.488339338e-03,-7.026193310e-05,1.418077405e-03,8.085880710e-04,-2.161215824e-04,5.924664886e-04,2.338904142e-03,6.844975956e-05,2.407353902e-03,1.691020441e-03,-1.710553349e-04,1.519965107e-03,8.631438974e-04,-2.995715828e-05,8.331867392e-04,1.368154863e-03,-9.002479658e-05,1.278130066e-03,9.086807412e-04,-8.665416325e-05,8.220265780e-04,1.293273308e-03,-3.353914105e-04,9.578818974e-04,1.698693071e-03,4.129981085e-05,1.739992882e-03,1.215719342e-03,-3.866638226e-04,8.290555194e-04,1.947765495e-03,-7.619638320e-05,1.871569112e-03,1.516338620e-03,1.003422499e-04,1.616680870e-03,2.178825839e-03,-7.875336331e-05,2.100072476e-03,1.295833614e-03,-3.577943310e-05,1.260054181e-03,1.168183494e-03,4.509713830e-04,1.619154877e-03,9.216259441e-04,-5.074005641e-05,8.708858877e-04,6.323427781e-04,6.601712866e-06,6.389444910e-04,1.181042028e-03,-3.476130141e-05,1.146280727e-03,9.631311053e-05,-3.529189755e-04,-2.566058650e-04,1.432843999e-03,3.825434866e-05,1.471098348e-03,8.402406529e-04,1.711542438e-04,1.011394897e-03,9.727333668e-04,-2.406971712e-04,7.320361956e-04,1.754473369e-03,-2.302843064e-04,1.524189063e-03,1.470557399e-03,-2.315804708e-04,1.238976928e-03,1.705263492e-03,-4.610973582e-05,1.659153756e-03,5.721751379e-04,7.169891192e-05,6.438740498e-04,1.441546740e-03,1.425530949e-04,1.584099834e-03,6.533816427e-04,5.407480117e-05,7.074564439e-04,2.211841926e-03,-1.366675559e-04,2.075174370e-03,1.146330488e-03,1.116971826e-04,1.258027670e-03,1.224368931e-03,-1.801034472e-04,1.044265484e-03,1.482491642e-04,1.753024091e-04,3.235515733e-04
-6.4,1.522644507e-03,7.451121687e-05,1.597155724e-03,1.185071830e-03,-2.672986141e-04,9.177732155e-04,1.258478693e-03,3.184088599e-05,1.290319579e-03,1.930459379e-03,9.325155521e-05,2.023710935e-03,1.530088418e-03,-8.941054469e-05,1.440677873e-03,7.943068647e-04,-2.292393896e-04,5.650674751e-04,2.353442692e-03,6.761778507e-05,2.421060477e-03,1.645669440e-03,-1.710556600e-04,1.474613780e-03,8.909189891e-04,-3.407190099e-05,8.568470881e-04,1.343509977e-03,-8.875957189e-05,1.254750405e-03,9.181043985e-04,-9.611941090e-05,8.219849876e-04,1.325410622e-03,-3.537135562e-04,9.716970655e-04,1.729442683e-03,2.204274853e-05,1.751485431e-03,1.234095566e-03,-4.019262761e-04,8.321692903e-04,1.985998868e-03,-9.691068319e-05,1.889088185e-03,1.548651338e-03,8.162259482e-05,1.630273933e-03,2.173615572e-03,-1.166111490e-04,2.057004422e-03,1.263476083e-03,-4.351298959e-05,1.219963093e-03,1.107359145e-03,4.819984901e-04,1.589357635e-03,8.893962239e-04,-5.704595531e-05,8.323502686e-04,6.466853436e-04,9.934993078e-07,6.476788429e-04,1.196415324e-03,-3.639289424e-05,1.160022430e-03,1.013249435e-04,-3.625572196e-04,-2.612322760e-04,1.453278168e-03,3.580666526e-05,1.489084834e-03,8.550204126e-04,1.482801103e-04,1.003300523e-03,1.007722705e-03,-2.715340088e-04,7.361886960e-04,1.793248319e-03,-2.676424475e-04,1.525605871e-03,1.501308673e-03,-2.562860283e-04,1.245022645e-03,1.715657005e-03,-5.262733634e-05,1.663029668e-03,5.600890936e-04,7.195763722e-05,6.320467308e-04,1.464741824e-03,1.428014484e-04,1.607543273e-03,7.053630270e-04,3.829758470e-05,7.436606117e-04,2.193883422e-03,-1.241162839e-04,2.069767138e-03,1.113342457e-03,8.247689258e-05,1.195819349e-03,1.214536500e-03,-1.909092915e-04,1.023627208e-03,1.302120615e-04,1.616592684e-04,2.918713299e-04
-6.3,1.516436355e-03,7.387524396e-05,1.590311599e-03,1.201427388e-03,-2.852655504e-04,9.161618371e-04,1.282685727e-03,2.738761730e-05,1.310073345e-03,1.970736344e-03,8.152222052e-05,2.052258564e-03,1.566999708e-03,-1.075557923e-04,1.459443916e-03,7.733887906e-04,-2.422914324e-04,5.310973583e-04,2.361005921e-03,6.726736463e-05,2.428273285e-03,1.593406061e-03,-1.704369927e-04,1.422969069e-03,9.146370943e-04,-3.785745327e-05,8.767796410e-04,1.313771197e-03,-8.707725311e-05,1.226693944e-03,9.238040486e-04,-1.048059032e-04,8.189981453e-04,1.348174328e-03,-3.696215159e-04,9.785528117e-04,1.750537827e-03,2.961713102e-06,1.753499540e-03,1.245833943e-03,-4.156204935e-04,8.302134492e-04,2.015021654e-03,-1.176055089e-04,1.897416145e-03,1.574178173e-03,6.235166956e-05,1.636529843e-03,2.158543412e-03,-1.556610357e-04,2.002882377e-03,1.225812778e-03,-5.137020476e-05,1.174442573e-03,1.042088587e-03,5.103587812e-04,1.552447369e-03,8.524322733e-04,-6.336412841e-05,7.890681449e-04,6.582818961e-04,-4.232487346e-06,6.540494088e-04,1.208244798e-03,-3.729090909e-05,1.170953889e-03,1.022471884e-04,-3.713287230e-04,-2.690815346e-04,1.471584891e-03,3.446463659e-05,1.506049528e-03,8.648784643e-04,1.252479921e-04,9.901264563e-04,1.037253974e-03,-3.010350323e-04,7.362189419e-04,1.820951211e-03,-2.999217246e-04,1.521029486e-03,1.523211072e-03,-2.783228330e-04,1.244888239e-03,1.718229702e-03,-5.842316515e-05,1.659806537e-03,5.459754884e-04,7.209673889e-05,6.180722272e-04,1.481232405e-03,1.421541293e-04,1.623386534e-03,7.513955044e-04,2.254965583e-05,7.739451602e-04,2.165021666e-03,-1.113809572e-04,2.053640709e-03,1.075624386e-03,5.244485693e-05,1.128069243e-03,1.196665556e-03,-2.008497028e-04,9.958158537e-04,1.085977010e-04,1.480708206e-04,2.566685216e-04
-6.2,1.508691339e-03,7.374638896e-05,1.582437728e-03,1.212298320e-03,-3.024469217e-04,9.098513983e-04,1.304652688e-03,2.350575171e-05,1.328158440e-03,2.007302490e-03,7.050102266e-05,2.077803513e-03,1.599004694e-03,-1.246655829e-04,1.474339111e-03,7.460318122e-04,-2.552136306e-04,4.908181815e-04,2.361455454e-03,6.736835410e-05,2.428823808e-03,1.534417070e-03,-1.692011490e-04,1.365215921e-03,9.342963778e-04,-4.129340766e-05,8.930029701e-04,1.279063152e-03,-8.499697930e-05,1.194066173e-03,9.258645540e-04,-1.126835710e-04,8.131809830e-04,1.361787988e-03,-3.830499303e-04,9.787380577e-04,1.761893148e-03,-1.567877173e-05,1.746214376e-03,1.251033182e-03,-4.276566725e-04,8.233765100e-04,2.034899051e-03,-1.382566811e-04,1.896642370e-03,1.592805572e-03,4.263295508e-05,1.635438527e-03,2.133194653e-03,-1.948532961e-04,1.938341357e-03,1.182983002e-03,-5.920461840e-05,1.123778383e-03,9.734908894e-04,5.353034345e-04,1.508794324e-03,8.109493431e-04,-6.966567970e-05,7.412836634e-04,6.672049000e-04,-9.067262360e-06,6.581376377e-04,1.216448578e-03,-3.752408031e-05,1.178924498e-03,9.923380635e-05,-3.792304703e-04,-2.799966640e-04,1.487621673e-03,3.415251690e-05,1.521774190e-03,8.698483217e-04,1.021261619e-04,9.719744836e-04,1.061397403e-03,-3.290985344e-04,7.322988688e-04,1.837945708e-03,-3.269520452e-04,1.510993663e-03,1.536482800e-03,-2.976740219e-04,1.238808778e-03,1.713117191e-03,-6.351407803e-05,1.649603113e-03,5.300514420e-04,7.206901046e-05,6.021204525e-04,1.491012124e-03,1.405918313e-04,1.631603955e-03,7.912668206e-04,6.964636481e-06,7.982314571e-04,2.125719600e-03,-9.877248928e-05,2.026947110e-03,1.033232992e-03,2.191726414e-05,1.055150257e-03,1.170948080e-03,-2.097823784e-04,9.611657012e-04,8.348962703e-05,1.346517857e-04,2.181414128e-04
-6.1,1.499312886e-03,7.405737247e-05,1.573370259e-03,1.217645308e-03,-3.188231525e-04,8.988221554e-04,1.324255036e-03,2.014043179e-05,1.344395468e-03,2.039867343e-03,6.014879162e-05,2.100016135e-03,1.626051159e-03,-1.407168544e-04,1.485334304e-03,7.124950183e-04,-2.679347394e-04,4.445602790e-04,2.354673485e-03,6.788114480e-05,2.422554630e-03,1.468930940e-03,-1.673558358e-04,1.301575104e-03,9.499233054e-04,-4.436282445e-05,9.055604810e-04,1.239537682e-03,-8.254031760e-05,1.156997365e-03,9.243918380e-04,-1.197289741e-04,8.046628639e-04,1.366553682e-03,-3.939676794e-04,9.725860024e-04,1.763497949e-03,-3.362090443e-05,1.729877045e-03,1.249830102e-03,-4.379528190e-04,8.118772833e-04,2.045753629e-03,-1.588321251e-04,1.886921504e-03,1.604466668e-03,2.257067158e-05,1.627037339e-03,2.097215549e-03,-2.331154269e-04,1.864100122e-03,1.135163738e-03,-6.686759825e-05,1.068296140e-03,9.026518233e-04,5.561456823e-04,1.458797506e-03,7.651941133e-04,-7.591849867e-05,6.892756146e-04,6.735408569e-04,-1.350630237e-05,6.600345545e-04,1.220946569e-03,-3.716857405e-05,1.183777995e-03,9.245428431e-05,-3.862671849e-04,-2.938129006e-04,1.501225450e-03,3.478040113e-05,1.536005851e-03,8.700066592e-04,7.897436944e-05,9.489810287e-04,1.080254979e-03,-3.556288214e-04,7.246261571e-04,1.844688037e-03,-3.486499519e-04,1.496038085e-03,1.541420581e-03,-3.143541406e-04,1.227066440e-03,1.700511080e-03,-6.793158504e-05,1.632579495e-03,5.125419932e-04,7.183044902e-05,5.843724422e-04,1.494112001e-03,1.381045108e-04,1.632216511e-03,8.248168644e-04,-8.324564097e-06,8.164923003e-04,2.076500096e-03,-8.656102532e-05,1.989939071e-03,9.862447920e-04,-8.777963375e-06,9.774668286e-04,1.137664863e-03,-2.175911496e-04,9.200737136e-04,5.502260896e-05,1.214929430e-04,1.765155520e-04
-6,1.488174005e-03,7.473168032e-05,1.562905685e-03,1.217448790e-03,-3.343749471e-04,8.830738430e-04,1.341355760e-03,1.722750274e-05,1.358583262e-03,2.068116414e-03,5.041400648e-05,2.118530420e-03,1.648100916e-03,-1.556955528e-04,1.492405363e-03,6.730976392e-04,-2.803760703e-04,3.927215689e-04,2.340560855e-03,6.875659247e-05,2.409317447e-03,1.397215690e-03,-1.649137380e-04,1.232301952e-03,9.615710725e-04,-4.705216302e-05,9.145189095e-04,1.195371202e-03,-7.973100150e-05,1.115640200e-03,9.195106525e-04,-1.259252085e-04,7.935854441e-04,1.362844358e-03,-4.023769437e-04,9.604674143e-04,1.755411586e-03,-5.061696728e-05,1.704794619e-03,1.242394666e-03,-4.464353785e-04,7.959592874e-04,2.047760700e-03,-1.792914824e-04,1.868469218e-03,1.609141951e-03,2.270226134e-06,1.611412177e-03,2.050321520e-03,-2.693732942e-04,1.780948226e-03,1.082570561e-03,-7.421247870e-05,1.008358083e-03,8.305982441e-04,5.722776875e-04,1.402875932e-03,7.154426164e-04,-8.208772505e-05,6.333548913e-04,6.773871786e-04,-1.754956507e-05,6.598376135e-04,1.221659580e-03,-3.630640565e-05,1.185353174e-03,8.208985217e-05,-3.924509021e-04,-3.103610499e-04,1.512209798e-03,3.624479148e-05,1.548454590e-03,8.654757466e-04,5.583958805e-05,9.213153346e-04,1.093955014e-03,-3.805347738e-04,7.134202402e-04,1.841717667e-03,-3.650155521e-04,1.476702115e-03,1.538388434e-03,-3.284057965e-04,1.209982638e-03,1.680652372e-03,-7.172030280e-05,1.608932070e-03,4.936747205e-04,7.134039891e-05,5.650151194e-04,1.490601263e-03,1.346899856e-04,1.625291249e-03,8.519417147e-04,-2.318807225e-05,8.287536424e-04,2.017932559e-03,-7.497186488e-05,1.942960695e-03,9.347602941e-04,-3.930892810e-05,8.954513660e-04,1.097181707e-03,-2.241875474e-04,8.729941600e-04,2.338515847e-05,1.086572154e-04,1.320423738e-04
-5.9,1.475114650e-03,7.568338566e-05,1.550798035e-03,1.211707142e-03,-3.490826903e-04,8.626244518e-04,1.355802833e-03,1.469389387e-05,1.370496727e-03,2.091708814e-03,4.123319569e-05,2.132942010e-03,1.665126074e-03,-1.695964608e-04,1.495529613e-03,6.282167786e-04,-2.924512878e-04,3.357654908e-04,2.319034023e-03,6.993606210e-05,2.388970085e-03,1.319575592e-03,-1.618910705e-04,1.157684521e-03,9.693170275e-04,-4.935106966e-05,9.199659579e-04,1.146761054e-03,-7.659465871e-05,1.070166395e-03,9.113611120e-04,-1.312617485e-04,7.800993635e-04,1.351092205e-03,-4.083109624e-04,9.427812430e-04,1.737756000e-03,-6.643191438e-05,1.671324086e-03,1.228923293e-03,-4.530399396e-04,7.758833538e-04,2.041142211e-03,-1.995867185e-04,1.841555493e-03,1.606858032e-03,-1.816112240e-05,1.588696909e-03,1.992303827e-03,-3.025720419e-04,1.689731785e-03,1.025456037e-03,-8.109810631e-05,9.443579312e-04,7.582790835e-04,5.831816372e-04,1.341460721e-03,6.619968754e-04,-8.813633641e-05,5.738605389e-04,6.788480591e-04,-2.120157888e-05,6.576464802e-04,1.218507459e-03,-3.502383814e-05,1.183483621e-03,6.832927994e-05,-3.978003808e-04,-3.294711008e-04,1.520361876e-03,3.842931441e-05,1.558791191e-03,8.564219375e-04,3.275333864e-05,8.891752762e-04,1.102644534e-03,-4.037289862e-04,6.989155477e-04,1.829638868e-03,-3.761232840e-04,1.453515584e-03,1.527802479e-03,-3.398967714e-04,1.187905708e-03,1.653822577e-03,-7.493569237e-05,1.578886885e-03,4.736730941e-04,7.056201251e-05,5.442351066e-04,1.480586761e-03,1.303523767e-04,1.610939138e-03,8.725959834e-04,-3.750163350e-05,8.350943499e-04,1.950620771e-03,-6.418690787e-05,1.886433864e-03,8.789084685e-04,-6.934759498e-05,8.095608735e-04,1.049942606e-03,-2.295117899e-04,8.204308165e-04,-1.118230525e-05,9.617959710e-05,8.499729185e-05
-5.8,1.459939315e-03,7.681703555e-05,1.536756351e-03,1.200434602e-03,-3.629258942e-04,8.375087077e-04,1.367426538e-03,1.245815954e-05,1.379884698e-03,2.110275088e-03,3.253156429e-05,2.142806652e-03,1.677104564e-03,-1.824228634e-04,1.494681701e-03,5.782841673e-04,-3.040663555e-04,2.742178119e-04,2.290021470e-03,7.135161415e-05,2.361373084e-03,1.236347420e-03,-1.583061721e-04,1.078041248e-03,9.732594648e-04,-5.125213373e-05,9.220073310e-04,1.093921463e-03,-7.315854629e-05,1.020762916e-03,9.000946702e-04,-1.357342630e-04,7.643604071e-04,1.331776192e-03,-4.118307118e-04,9.199454805e-04,1.710707807e-03,-8.084639073e-05,1.629861416e-03,1.209631845e-03,-4.577119031e-04,7.519199422e-04,2.026160266e-03,-2.196639418e-04,1.806496324e-03,1.597685387e-03,-3.861365520e-05,1.559071732e-03,1.923037113e-03,-3.316988264e-04,1.591338287e-03,9.641061100e-04,-8.739182849e-05,8.767142815e-04,6.865529207e-04,5.884366060e-04,1.274989527e-03,6.051808325e-04,-9.402559646e-05,5.111552360e-04,6.780301358e-04,-2.447154591e-05,6.535585898e-04,1.211407214e-03,-3.340987092e-05,1.177997343e-03,5.136509372e-05,-4.023403229e-04,-3.509752292e-04,1.525439772e-03,4.120565284e-05,1.566645425e-03,8.430510324e-04,9.731107527e-06,8.527821399e-04,1.106481429e-03,-4.251276700e-04,6.813537589e-04,1.809096062e-03,-3.821089158e-04,1.426987146e-03,1.510115215e-03,-3.489180604e-04,1.161197154e-03,1.620334022e-03,-7.764093456e-05,1.542693088e-03,4.527499238e-04,6.946304519e-05,5.222129690e-04,1.464211105e-03,1.251009002e-04,1.589312005e-03,8.867938470e-04,-5.114931893e-05,8.356445280e-04,1.875190331e-03,-5.434821988e-05,1.820842111e-03,8.188503442e-04,-9.857665259e-05,7.202736916e-04,9.964606598e-04,-2.335334241e-04,7.629272358e-04,-4.839171825e-05,8.406892370e-05,3.567720545e-05
-5.7,1.442415365e-03,7.802771976e-05,1.520443085e-03,1.183659555e-03,-3.758827797e-04,8.077767751e-04,1.376037280e-03,1.043118480e-05,1.386468464e-03,2.123415877e-03,2.422382532e-05,2.147639703e-03,1.684015826e-03,-1.941860791e-04,1.489829747e-03,5.237823767e-04,-3.151196868e-04,2.086626900e-04,2.253460200e-03,7.292636789e-05,2.326386567e-03,1.147896921e-03,-1.541788011e-04,9.937181195e-04,9.735143053e-04,-5.275070114e-05,9.207636041e-04,1.037079784e-03,-6.945127785e-05,9.676285059e-04,8.858703950e-04,-1.393444199e-04,7.465259751e-04,1.305412186e-03,-4.130212757e-04,8.923909103e-04,1.674492174e-03,-9.366129096e-05,1.580830883e-03,1.184749965e-03,-4.604070223e-04,7.243429430e-04,2.003111236e-03,-2.394660539e-04,1.763645182e-03,1.581735749e-03,-5.897478762e-05,1.522760962e-03,1.842492013e-03,-3.558111296e-04,1.486680884e-03,8.988356536e-04,-9.297208685e-05,8.058635667e-04,6.161784613e-04,5.877242668e-04,1.203902728e-03,5.453364360e-04,-9.971516037e-05,4.456212756e-04,6.750388393e-04,-2.737329209e-05,6.476655472e-04,1.200272129e-03,-3.155477597e-05,1.168717353e-03,3.139106844e-05,-4.061003895e-04,-3.747093211e-04,1.527171034e-03,4.443471884e-05,1.571605752e-03,8.256018167e-04,-1.322605505e-05,8.123757617e-04,1.105628240e-03,-4.446510535e-04,6.609771864e-04,1.780749537e-03,-3.831571737e-04,1.397592364e-03,1.485802308e-03,-3.555827170e-04,1.130219591e-03,1.580521315e-03,-7.990324128e-05,1.500618073e-03,4.311018597e-04,6.801726057e-05,4.991191203e-04,1.441649860e-03,1.189496830e-04,1.560599543e-03,8.946093578e-04,-6.402620471e-05,8.305831531e-04,1.792274279e-03,-4.556002340e-05,1.746714256e-03,7.547798998e-04,-1.266931636e-04,6.280867363e-04,9.373077663e-04,-2.362513052e-04,7.010564611e-04,-8.791104583e-05,7.230887835e-05,-1.560216748e-05
-5.6,1.422272667e-03,7.920137988e-05,1.501474047e-03,1.161423863e-03,-3.879301200e-04,7.734937427e-04,1.381424553e-03,8.517039968e-06,1.389941593e-03,2.130702086e-03,1.621517552e-05,2.146917262e-03,1.685837644e-03,-2.049049138e-04,1.480932730e-03,4.652409721e-04,-3.255024648e-04,1.397385073e-04,2.209293164e-03,7.457508388e-05,2.283868248e-03,1.054616078e-03,-1.495303642e-04,9.050857135e-04,9.702122143e-04,-5.384478348e-05,9.163674308e-04,9.764737733e-04,-6.550250943e-05,9.109712638e-04,8.688523632e-04,-1.420996496e-04,7.267527136e-04,1.272547454e-03,-4.119880889e-04,8.605593654e-04,1.629380050e-03,-1.047039454e-04,1.524676104e-03,1.154518289e-03,-4.610917153e-04,6.934265741e-04,1.972320920e-03,-2.589352607e-04,1.713385659e-03,1.559159490e-03,-7.912880197e-05,1.480030688e-03,1.750754079e-03,-3.740708777e-04,1.376683202e-03,8.299846854e-04,-9.773098932e-05,7.322536961e-04,5.478044631e-04,5.808339994e-04,1.128638463e-03,4.828209155e-04,-1.051629397e-04,3.776579758e-04,6.699762506e-04,-2.992495136e-05,6.400512992e-04,1.185012719e-03,-2.954861877e-05,1.155464100e-03,8.601646411e-06,-4.091140598e-04,-4.005124133e-04,1.525252976e-03,4.796801312e-05,1.573220989e-03,8.043394631e-04,-3.612813958e-05,7.682113235e-04,1.100248942e-03,-4.622238732e-04,6.380250685e-04,1.745257485e-03,-3.794935900e-04,1.365763895e-03,1.455354061e-03,-3.600250947e-04,1.095328966e-03,1.534735671e-03,-8.179021639e-05,1.452945454e-03,4.089058025e-04,6.620630621e-05,4.751121087e-04,1.413108475e-03,1.119189177e-04,1.525027393e-03,8.961765659e-04,-7.604090419e-05,8.201356617e-04,1.702498497e-03,-3.788846130e-05,1.664610035e-03,6.869218587e-04,-1.534088135e-04,5.335130452e-04,8.731042537e-04,-2.376923181e-04,6.354119356e-04,-1.293660521e-04,6.085792290e-05,-6.850812919e-05
-5.5,1.399204943e-03,8.021540144e-05,1.479420344e-03,1.133783743e-03,-3.990434122e-04,7.347403312e-04,1.383357487e-03,6.613995853e-06,1.389971482e-03,2.131677006e-03,8.402374767e-06,2.140079381e-03,1.682544845e-03,-2.146050928e-04,1.467939752e-03,4.032329152e-04,-3.350990544e-04,6.813386083e-05,2.157468209e-03,7.620498052e-05,2.233673189e-03,9.569212900e-04,-1.443846322e-04,8.125366578e-04,9.634964627e-04,-5.453507916e-05,9.089613836e-04,9.123502390e-04,-6.134260439e-05,8.510076346e-04,8.492085632e-04,-1.440128475e-04,7.051957157e-04,1.233759089e-03,-4.088526736e-04,8.249064157e-04,1.575689961e-03,-1.138352763e-04,1.461854684e-03,1.119188957e-03,-4.597431253e-04,6.594458319e-04,1.934140601e-03,-2.780146571e-04,1.656125944e-03,1.530143265e-03,-9.895673777e-05,1.431186527e-03,1.648045290e-03,-3.857797051e-04,1.262265585e-03,7.579162161e-04,-1.015771151e-04,6.563391009e-04,4.819588471e-04,5.676667811e-04,1.049625628e-03,4.180057847e-04,-1.103250620e-04,3.076807227e-04,6.629407667e-04,-3.214845335e-05,6.307923133e-04,1.165539689e-03,-2.747981489e-05,1.138059874e-03,-1.680670472e-05,-4.114174229e-04,-4.282241276e-04,1.519354829e-03,5.164905640e-05,1.571003885e-03,7.795501826e-04,-5.899139171e-05,7.205587909e-04,1.090509324e-03,-4.777758294e-04,6.127334948e-04,1.703265954e-03,-3.713807383e-04,1.331885216e-03,1.419272254e-03,-3.623998263e-04,1.056872428e-03,1.483342325e-03,-8.336668581e-05,1.399975639e-03,3.863178677e-04,6.402109646e-05,4.503389641e-04,1.378819823e-03,1.040368333e-04,1.482856656e-03,8.916896190e-04,-8.711782140e-05,8.045717976e-04,1.606470422e-03,-3.136113699e-05,1.575109285e-03,6.155285088e-04,-1.784495579e-04,4.370789509e-04,8.045090820e-04,-2.379084108e-04,5.666006713e-04,-1.723412008e-04,4.965000486e-05,-1.226911959e-04
-5.4,1.372872842e-03,8.093957085e-05,1.453812413e-03,1.100812081e-03,-4.091972769e-04,6.916148043e-04,1.381586850e-03,4.615708424e-06,1.386202559e-03,2.125860427e-03,6.749342907e-07,2.126535362e-03,1.674109823e-03,-2.233186856e-04,1.450791138e-03,3.383711265e-04,-3.437874847e-04,-5.416358203e-06,2.097938627e-03,7.771675345e-05,2.175655380e-03,8.552519858e-04,-1.387682190e-04,7.164837667e-04,9.535213614e-04,-5.482510538e-05,8.986962560e-04,8.449647884e-04,-5.700236210e-05,7.879624263e-04,8.271109041e-04,-1.451020429e-04,6.820088613e-04,1.189654033e-03,-4.037480111e-04,7.859060215e-04,1.513794423e-03,-1.209569070e-04,1.392837516e-03,1.079028221e-03,-4.563490888e-04,6.226791326e-04,1.888943414e-03,-2.966488106e-04,1.592294603e-03,1.494907977e-03,-1.183367054e-04,1.376571272e-03,1.534742709e-03,-3.904097350e-04,1.144332974e-03,6.830155529e-04,-1.044382863e-04,5.785772666e-04,4.190386708e-04,5.482392539e-04,9.672779246e-04,3.512771068e-04,-1.151562050e-04,2.361209018e-04,6.540280027e-04,-3.406898534e-05,6.199590173e-04,1.141768150e-03,-2.543382971e-05,1.116334320e-03,-4.463298858e-05,-4.130479714e-04,-4.576809600e-04,1.509121167e-03,5.531479800e-05,1.564435965e-03,7.515374008e-04,-8.183263306e-05,6.697047677e-04,1.076580227e-03,-4.912421352e-04,5.853380922e-04,1.655404360e-03,-3.591165187e-04,1.296287841e-03,1.378070404e-03,-3.628797006e-04,1.015190703e-03,1.426719458e-03,-8.469202413e-05,1.342027434e-03,3.634744058e-04,6.146180729e-05,4.249362130e-04,1.339042990e-03,9.534133572e-05,1.434384326e-03,8.814023261e-04,-9.719883698e-05,7.842034891e-04,1.504773871e-03,-2.596850707e-05,1.478805364e-03,5.408781112e-04,-2.015579144e-04,3.393201968e-04,7.322106275e-04,-2.369720429e-04,4.952385846e-04,-2.163815859e-04,3.859750327e-05,-1.777840827e-04
-5.3,1.342908231e-03,8.123746553e-05,1.424145697e-03,1.062601309e-03,-4.183658463e-04,6.442354623e-04,1.375847901e-03,2.412524325e-06,1.378260425e-03,2.112754229e-03,-7.083561161e-06,2.105670667e-03,1.660503964e-03,-2.310835053e-04,1.429420459e-03,2.713047608e-04,-3.514400735e-04,-8.013531272e-05,2.030664760e-03,7.900574080e-05,2.109670500e-03,7.500690269e-04,-1.327104159e-04,6.173586111e-04,9.404507456e-04,-5.472139098e-05,8.857293546e-04,7.745818578e-04,-5.251286929e-05,7.220689885e-04,8.027353627e-04,-1.453900849e-04,6.573452778e-04,1.140867642e-03,-3.968142253e-04,7.440534163e-04,1.444128399e-03,-1.260167897e-04,1.318111609e-03,1.034318978e-03,-4.509082443e-04,5.834107337e-04,1.837120238e-03,-3.147836500e-04,1.522336588e-03,1.453706938e-03,-1.371449657e-04,1.316561973e-03,1.411390892e-03,-3.876262188e-04,1.023764674e-03,6.056898488e-04,-1.062637653e-04,4.994260835e-04,3.593018783e-04,5.226900297e-04,8.819919080e-04,2.830358501e-04,-1.196102885e-04,1.634255616e-04,6.433317876e-04,-3.571451689e-05,6.076172707e-04,1.113621741e-03,-2.349201964e-05,1.090129722e-03,-7.466915741e-05,-4.140434116e-04,-4.887125690e-04,1.494175855e-03,5.879699687e-05,1.552972852e-03,7.206187934e-04,-1.046637139e-04,6.159550795e-04,1.058641582e-03,-5.025642744e-04,5.560773074e-04,1.602283080e-03,-3.430324362e-04,1.259250644e-03,1.332273435e-03,-3.616521126e-04,9.706213219e-04,1.365256668e-03,-8.581793670e-05,1.279438731e-03,3.404932540e-04,5.853671414e-05,3.990299682e-04,1.294063050e-03,8.588040737e-05,1.379943458e-03,8.656262984e-04,-1.062440962e-04,7.593822022e-04,1.397970754e-03,-2.166821588e-05,1.376302538e-03,4.632755060e-04,-2.224989547e-04,2.407765513e-04,6.569177978e-04,-2.349706820e-04,4.219471158e-04,-2.609973263e-04,2.759638790e-05,-2.334009384e-04
-5.2,1.308919099e-03,8.096822391e-05,1.389887323e-03,1.019265797e-03,-4.265229116e-04,5.927428856e-04,1.365863372e-03,-1.071845626e-07,1.365756187e-03,2.091848771e-03,-1.499398331e-05,2.076854788e-03,1.641698899e-03,-2.379424645e-04,1.403756435e-03,2.027147034e-04,-3.579242703e-04,-1.552095669e-04,1.955615955e-03,7.996319458e-05,2.035579149e-03,6.418525037e-04,-1.262423792e-04,5.156101245e-04,9.244560437e-04,-5.423363212e-05,8.702224116e-04,7.014742281e-04,-4.790542626e-05,6.535688019e-04,7.762613919e-04,-1.449043487e-04,6.313570432e-04,1.088058592e-03,-3.881949418e-04,6.998636506e-04,1.367195800e-03,-1.290122858e-04,1.238183514e-03,9.853614619e-04,-4.434303465e-04,5.419311155e-04,1.779074608e-03,-3.323657941e-04,1.446708814e-03,1.406824122e-03,-1.552580350e-04,1.251566087e-03,1.278706959e-03,-3.773001531e-04,9.014068055e-04,5.263665489e-04,-1.070255446e-04,4.193410043e-04,3.028616167e-04,4.912875509e-04,7.941491675e-04,2.136972796e-04,-1.236412671e-04,9.005601247e-05,6.309443196e-04,-3.711535472e-05,5.938289649e-04,1.081035559e-03,-2.173050007e-05,1.059305059e-03,-1.066983613e-04,-4.144404635e-04,-5.211388248e-04,1.474125957e-03,6.192363902e-05,1.536049596e-03,6.871232964e-04,-1.274872353e-04,5.596360612e-04,1.036884937e-03,-5.116908676e-04,5.251940690e-04,1.544490829e-03,-3.234915689e-04,1.220999260e-03,1.282413798e-03,-3.589145121e-04,9.234992857e-04,1.299351897e-03,-8.678685686e-05,1.212565040e-03,3.174735311e-04,5.526082723e-05,3.727343583e-04,1.244190684e-03,7.571118503e-05,1.319901869e-03,8.447271825e-04,-1.142318398e-04,7.304953427e-04,1.286608256e-03,-1.839259704e-05,1.268215659e-03,3.830533833e-04,-2.410680683e-04,1.419853149e-04,5.793507920e-04,-2.320008575e-04,3.473499344e-04,-3.056710943e-04,1.653307721e-05,-2.891380171e-04
-5.1,1.270494706e-03,7.998855925e-05,1.350483265e-03,9.709431460e-04,-4.336417618e-04,5.373013842e-04,1.351346249e-03,-3.055710082e-06,1.348290539e-03,2.062629670e-03,-2.318002522e-05,2.039449645e-03,1.617666955e-03,-2.439428703e-04,1.373724084e-03,1.333079902e-04,-3.631037272e-04,-2.297957370e-04,1.872772420e-03,8.047767390e-05,1.953250094e-03,5.310987989e-04,-1.193959286e-04,4.117028703e-04,9.057137484e-04,-5.337472304e-05,8.523390254e-04,6.259216605e-04,-4.321142906e-05,5.827102314e-04,7.478702313e-04,-1.436764170e-04,6.041938144e-04,1.031899608e-03,-3.780341954e-04,6.538654124e-04,1.283571635e-03,-1.299908391e-04,1.153580796e-03,9.324715577e-04,-4.339366578e-04,4.985348999e-04,1.715216414e-03,-3.493411584e-04,1.365875256e-03,1.354572351e-03,-1.725557727e-04,1.182016578e-03,1.137577088e-03,-3.595096885e-04,7.780673991e-04,4.454898568e-04,-1.067185963e-04,3.387712605e-04,2.496853918e-04,4.544356845e-04,7.041210763e-04,1.436889737e-04,-1.272038689e-04,1.648510479e-05,6.169551976e-04,-3.830370773e-05,5.786514899e-04,1.043957538e-03,-2.021900184e-05,1.023738537e-03,-1.404941751e-04,-4.142736274e-04,-5.547678025e-04,1.448565526e-03,6.452045766e-05,1.513085984e-03,6.513871064e-04,-1.502937283e-04,5.010933780e-04,1.011513124e-03,-5.185784331e-04,4.929346904e-04,1.482591265e-03,-3.008873212e-04,1.181703944e-03,1.229024069e-03,-3.548694601e-04,8.741546091e-04,1.229406798e-03,-8.763113721e-05,1.141775661e-03,2.944938033e-04,5.165489071e-05,3.461486940e-04,1.189760553e-03,6.489829301e-05,1.254658846e-03,8.191190215e-04,-1.211574122e-04,6.979616092e-04,1.171228632e-03,-1.605889861e-05,1.155169733e-03,3.005719048e-04,-2.570970700e-04,4.347483471e-05,5.002304442e-04,-2.281617805e-04,2.720686637e-04,-3.498683193e-04,5.292083070e-06,-3.445762362e-04
-5,1.227210894e-03,7.815496374e-05,1.305365858e-03,9.177944439e-04,-4.396948138e-04,4.780996301e-04,1.332002404e-03,-6.544677198e-06,1.325457727e-03,2.024584866e-03,-3.176635978e-05,1.992818507e-03,1.588380791e-03,-2.491356466e-04,1.339245145e-03,6.381110027e-05,-3.668395604e-04,-3.030284601e-04,1.782126892e-03,8.043661664e-05,1.862563509e-03,4.183170002e-04,-1.122023137e-04,3.061146865e-04,8.844023654e-04,-5.216064533e-05,8.322417201e-04,5.482087527e-04,-3.846213419e-05,5.097466185e-04,7.177422544e-04,-1.417417100e-04,5.760005444e-04,9.730648673e-04,-3.664736074e-04,6.065912598e-04,1.193900008e-03,-1.290489755e-04,1.064851032e-03,8.759772318e-04,-4.224602288e-04,4.535170030e-04,1.645954592e-03,-3.656526963e-04,1.280301896e-03,1.297290967e-03,-1.889248282e-04,1.108366139e-03,9.890416813e-04,-3.345291790e-04,6.545125023e-04,3.635149476e-04,-1.053600056e-04,2.581549420e-04,1.996015465e-04,4.126728513e-04,6.122743978e-04,7.344770365e-05,-1.302544132e-04,-5.680670958e-05,6.014496008e-04,-3.931331886e-05,5.621362820e-04,1.002348649e-03,-1.901984138e-05,9.833288075e-04,-1.758205292e-04,-4.135739060e-04,-5.893944352e-04,1.417079539e-03,6.641261062e-05,1.483492150e-03,6.137478948e-04,-1.730595403e-04,4.406883545e-04,9.827372373e-04,-5.231919950e-04,4.595452423e-04,1.417119424e-03,-2.756437924e-04,1.141475632e-03,1.172627985e-03,-3.497196997e-04,8.229082849e-04,1.155821270e-03,-8.837301072e-05,1.067448259e-03,2.716096898e-04,4.774464182e-05,3.193543317e-04,1.131127854e-03,5.351229481e-05,1.184640149e-03,7.892569449e-04,-1.270315472e-04,6.622253977e-04,1.052379281e-03,-1.458101547e-05,1.037798265e-03,2.162153863e-04,-2.704567277e-04,-5.424134146e-05,4.202658834e-04,-2.235488515e-04,1.967170318e-04,-3.930482877e-04,-6.237446922e-06,-3.992857347e-04
-4.9,1.178635740e-03,7.532617858e-05,1.253961919e-03,8.600040023e-04,-4.446531425e-04,4.153508598e-04,1.307533403e-03,-1.068359310e-05,1.296849810e-03,1.977212250e-03,-4.087656003e-05,1.936335690e-03,1.553812706e-03,-2.535744686e-04,1.300238238e-03,-5.037679706e-06,-3.689918314e-04,-3.740295112e-04,1.683686362e-03,7.972810476e-05,1.763414467e-03,3.040246179e-04,-1.046909721e-04,1.993336458e-04,8.606991085e-04,-5.061027781e-05,8.100888307e-04,4.686224791e-04,-3.368833947e-05,4.349341396e-04,6.860538496e-04,-1.391390930e-04,5.469147566e-04,9.122158186e-04,-3.536494793e-04,5.585663393e-04,1.098889525e-03,-1.263301021e-04,9.725594232e-04,8.162142363e-04,-4.090459208e-04,4.071683155e-04,1.571689642e-03,-3.812375872e-04,1.190452055e-03,1.235342410e-03,-2.042614515e-04,1.031080959e-03,8.342680855e-04,-3.028063049e-04,5.314617807e-04,2.809003768e-04,-1.029870570e-04,1.779133199e-04,1.523146483e-04,3.666621259e-04,5.189767742e-04,3.415696028e-06,-1.327518010e-04,-1.293361050e-04,5.845061972e-04,-4.017918399e-05,5.443270132e-04,9.561827317e-04,-1.818712505e-05,9.379956066e-04,-2.124317570e-04,-4.123674693e-04,-6.247992263e-04,1.379248491e-03,6.742658876e-05,1.446675080e-03,5.745377073e-04,-1.957450004e-04,3.787927068e-04,9.507723168e-04,-5.255056812e-04,4.252666356e-04,1.348578974e-03,-2.482168942e-04,1.100362080e-03,1.113731830e-03,-3.436633615e-04,7.700684682e-04,1.078988290e-03,-8.902518161e-05,9.899631080e-04,2.488521292e-04,4.356006091e-05,2.924121901e-04,1.068663211e-03,4.162907953e-05,1.110292291e-03,7.556286130e-04,-1.318781529e-04,6.237504602e-04,9.306219358e-04,-1.388066295e-05,9.167412729e-04,1.303867936e-04,-2.810567842e-04,-1.506699906e-04,3.401417393e-04,-2.182482712e-04,1.218934681e-04,-4.346740200e-04,-1.815796900e-05,-4.528319890e-04
-4.8,1.124335922e-03,7.136599758e-05,1.195701920e-03,7.977791335e-04,-4.484859618e-04,3.492931717e-04,1.277639981e-03,-1.557820669e-05,1.262061774e-03,1.920028248e-03,-5.063081078e-05,1.869397437e-03,1.513934295e-03,-2.573148263e-04,1.256619469e-03,-7.249643625e-05,-3.694213374e-04,-4.419177737e-04,1.577474383e-03,7.824275188e-05,1.655717135e-03,1.887425154e-04,-9.688786274e-05,9.185465268e-05,8.347767637e-04,-4.874521315e-05,7.860315506e-04,3.874500770e-04,-2.892005597e-05,3.585300210e-04,6.529745658e-04,-1.359105065e-04,5.170640593e-04,8.499878496e-04,-3.396895505e-04,5.102982991e-04,9.993076281e-04,-1.220213793e-04,8.772862488e-04,7.535225864e-04,-3.937501226e-04,3.597724638e-04,1.492807536e-03,-3.960246858e-04,1.096782850e-03,1.169107681e-03,-2.184729910e-04,9.506346900e-04,6.745155501e-04,-2.649320209e-04,4.095835292e-04,1.980999114e-04,-9.965461246e-05,9.844529892e-05,1.074311230e-04,3.171709588e-04,4.246020818e-04,-6.596322303e-05,-1.346583737e-04,-2.006215968e-04,5.661955321e-04,-4.093724068e-05,5.252582915e-04,9.054469281e-04,-1.776615972e-05,8.876807684e-04,-2.500720099e-04,-4.106742557e-04,-6.607462656e-04,1.334654275e-03,6.739242069e-05,1.402046696e-03,5.340764349e-04,-2.182933304e-04,3.157831045e-04,9.158335085e-04,-5.255033679e-04,3.903301406e-04,1.277441651e-03,-2.190942089e-04,1.058347442e-03,1.052817229e-03,-3.368891512e-04,7.159280775e-04,9.992904641e-04,-8.959195682e-05,9.096985072e-04,2.262272985e-04,3.913449307e-05,2.653617916e-04,1.002746894e-03,2.933043921e-05,1.032077333e-03,7.187454001e-04,-1.357321022e-04,5.830132980e-04,8.065403035e-04,-1.389611779e-05,7.926441857e-04,4.350210612e-05,-2.888459316e-04,-2.453438255e-04,2.605066397e-04,-2.123336864e-04,4.817295327e-05,-4.742198761e-04,-3.056232263e-05,-5.047821987e-04
-4.7,1.063884327e-03,6.614634153e-05,1.130030669e-03,7.313505437e-04,-4.511601319e-04,2.801904118e-04,1.242026650e-03,-2.132867442e-05,1.220697976e-03,1.852577848e-03,-6.114349336e-05,1.791434354e-03,1.468717234e-03,-2.604130634e-04,1.208304170e-03,-1.378279409e-04,-3.679917546e-04,-5.058196955e-04,1.463534570e-03,7.587561746e-05,1.539410188e-03,7.298979630e-05,-8.881344388e-05,-1.582364758e-05,8.068011721e-04,-4.658963471e-05,7.602115374e-04,3.049778958e-04,-2.418618913e-05,2.807917067e-04,6.186652539e-04,-1.321006147e-04,4.865646392e-04,7.869806926e-04,-3.247096502e-04,4.622710424e-04,8.959747217e-04,-1.163498340e-04,7.796248877e-04,6.882451992e-04,-3.766402001e-04,3.116049991e-04,1.409676671e-03,-4.099329897e-04,9.997436813e-04,1.098981332e-03,-2.314780997e-04,8.675032320e-04,5.111004800e-04,-2.216106832e-04,2.894897968e-04,1.155555086e-04,-9.543235878e-05,2.012314983e-05,6.449434145e-05,2.650408159e-04,3.295351573e-04,-1.342471237e-04,-1.359402293e-04,-2.701873530e-04,5.465796372e-04,-4.162387001e-05,5.049557672e-04,8.501435391e-04,-1.779298777e-05,8.323505513e-04,-2.884733978e-04,-4.085065406e-04,-6.969799384e-04,1.282887876e-03,6.614614244e-05,1.349034018e-03,4.926678595e-04,-2.406307997e-04,2.520370598e-04,8.781344475e-04,-5.231793366e-04,3.549551109e-04,1.204149547e-03,-1.887919191e-04,1.015357628e-03,9.903359856e-04,-3.295715264e-04,6.607644592e-04,9.170993719e-04,-9.007088808e-05,8.270284838e-04,2.037190450e-04,3.450342747e-05,2.382224725e-04,9.337639654e-04,1.670534046e-05,9.504693059e-04,6.791346554e-04,-1.386374674e-04,5.404971881e-04,6.807454440e-04,-1.458759065e-05,6.661578533e-04,-4.401373352e-05,-2.938129208e-04,-3.378266543e-04,1.819639957e-04,-2.058643302e-04,-2.390033457e-05,-5.111772601e-04,-4.353335616e-05,-5.547106162e-04
-4.6,9.968693122e-04,5.955045050e-05,1.056419763e-03,6.609738112e-04,-4.526398439e-04,2.083339674e-04,1.200407778e-03,-2.802755854e-05,1.172380220e-03,1.774446389e-03,-7.252071042e-05,1.701925678e-03,1.418135732e-03,-2.629254469e-04,1.155210285e-03,-2.003078243e-04,-3.645720740e-04,-5.648798983e-04,1.341935695e-03,7.252811054e-05,1.414463806e-03,-4.271976262e-05,-8.048139884e-05,-1.232011615e-04,7.769295282e-04,-4.417026387e-05,7.327592644e-04,2.214914201e-04,-1.951419606e-05,2.019772241e-04,5.832775257e-04,-1.277564357e-04,4.555210899e-04,7.237543748e-04,-3.088108819e-04,4.149434928e-04,7.897581200e-04,-1.095775628e-04,6.801805572e-04,6.207290124e-04,-3.577937427e-04,2.629352697e-04,1.322648438e-03,-4.228713149e-04,8.997771235e-04,1.025366824e-03,-2.432061642e-04,7.821606596e-04,3.453671168e-04,-1.736344037e-04,1.717327130e-04,3.369276319e-05,-9.040233889e-05,-5.670957569e-05,2.302372609e-05,2.111503025e-04,2.341740286e-04,-2.009987406e-04,-1.365670599e-04,-3.375658005e-04,5.257131528e-04,-4.227520647e-05,4.834379463e-04,7.902935357e-04,-1.829405640e-05,7.719994793e-04,-3.273527811e-04,-4.058675617e-04,-7.332203428e-04,1.223558896e-03,6.353239317e-05,1.287091289e-03,4.505990538e-04,-2.626679905e-04,1.879310633e-04,8.378891537e-04,-5.185390764e-04,3.193500773e-04,1.129119603e-03,-1.578485659e-04,9.712710372e-04,9.267076080e-04,-3.218663116e-04,6.048412964e-04,8.327776368e-04,-9.045483781e-05,7.423227990e-04,1.812940814e-04,2.970256448e-05,2.109966459e-04,8.621014057e-04,3.851085623e-06,8.659524913e-04,6.373338973e-04,-1.406462091e-04,4.966876882e-04,5.538782804e-04,-1.593838940e-05,5.379398910e-04,-1.317289961e-04,-2.959878791e-04,-4.277168752e-04,1.050654626e-04,-1.988836623e-04,-9.381819974e-05,-5.450592441e-04,-5.714327522e-05,-6.022025193e-04
-4.5,9.229056214e-04,5.147608117e-05,9.743817026e-04,5.869319534e-04,-4.528865882e-04,1.340453651e-04,1.152514975e-03,-3.575769235e-05,1.116757283e-03,1.685272958e-03,-8.485776360e-05,1.600415195e-03,1.362170554e-03,-2.649072828e-04,1.097263271e-03,-2.592326369e-04,-3.590392392e-04,-6.182718761e-04,1.212778227e-03,6.810990922e-05,1.280888136e-03,-1.578788174e-04,-7.189930772e-05,-2.297781252e-04,7.453092537e-04,-4.151635829e-05,7.037928954e-04,1.372760551e-04,-1.492971746e-05,1.223463376e-04,5.469541097e-04,-1.229269553e-04,4.240271544e-04,6.608298491e-04,-2.920779760e-04,3.687518730e-04,6.815650866e-04,-1.019958747e-04,5.795692119e-04,5.513272751e-04,-3.372976958e-04,2.140295793e-04,1.232060327e-03,-4.347389046e-04,7.973214226e-04,9.486727822e-04,-2.535966159e-04,6.950761663e-04,1.786640474e-04,-1.218603907e-04,5.680365673e-05,-4.708130121e-05,-8.465668069e-05,-1.317379819e-04,-1.744848673e-05,1.563766699e-04,1.389281831e-04,-2.657876985e-04,-1.365120191e-04,-4.022997176e-04,5.036454343e-04,-4.292642763e-05,4.607190067e-04,7.259410127e-04,-1.928611992e-05,7.066548928e-04,-3.664079689e-04,-4.027502885e-04,-7.691582574e-04,1.156306237e-03,5.940700227e-05,1.215713239e-03,4.081421708e-04,-2.843015812e-04,1.238405897e-04,7.953172678e-04,-5.116004661e-04,2.837168017e-04,1.052749988e-03,-1.268174734e-04,9.259325143e-04,8.623194451e-04,-3.139072331e-04,5.484122120e-04,7.466822320e-04,-9.073425680e-05,6.559479752e-04,1.589089694e-04,2.476514602e-05,1.836741155e-04,7.881471132e-04,-9.126409066e-06,7.790207041e-04,5.938868463e-04,-1.418171630e-04,4.520696832e-04,4.266088060e-04,-1.795117998e-05,4.086576260e-04,-2.192062069e-04,-2.954425204e-04,-5.146487273e-04,3.030729488e-05,-1.914184710e-04,-1.611111761e-04,-5.754048869e-04,-7.145268023e-05,-6.468575671e-04
-4.4,8.416464060e-04,4.183867529e-05,8.834850813e-04,5.095384031e-04,-4.518593700e-04,5.767903310e-05,1.098105158e-03,-4.458997411e-05,1.053515184e-03,1.584764728e-03,-9.823656723e-05,1.486528161e-03,1.300813782e-03,-2.664120566e-04,1.034401726e-03,-3.139281062e-04,-3.512809369e-04,-6.652090431e-04,1.076201648e-03,6.254092463e-05,1.138742573e-03,-2.719858808e-04,-6.307129533e-05,-3.350571761e-04,7.120769640e-04,-3.865971207e-05,6.734172519e-04,5.261787382e-05,-1.045623250e-05,4.216164131e-05,5.098291644e-04,-1.176627798e-04,3.921663846e-04,5.986912806e-04,-2.745792949e-04,3.241119857e-04,5.723341474e-04,-9.391869374e-05,4.784154537e-04,4.804009329e-04,-3.152475013e-04,1.651534316e-04,1.138239578e-03,-4.454266395e-04,6.928129382e-04,8.693101307e-04,-2.625986840e-04,6.067114467e-04,1.232417429e-05,-6.718852742e-05,-5.486435312e-05,-1.263795471e-04,-7.829520737e-05,-2.046747545e-04,-5.734430421e-05,1.015579337e-04,4.421362944e-05,-3.281930235e-04,-1.357519394e-04,-4.639449628e-04,4.804225706e-04,-4.361118192e-05,4.368113887e-04,6.571573847e-04,-2.077647178e-05,6.363809129e-04,-4.053144611e-04,-3.991363667e-04,-8.044508278e-04,1.080808938e-03,5.363953494e-05,1.134448472e-03,3.655564216e-04,-3.054159981e-04,6.014042348e-05,7.506503872e-04,-5.023953135e-04,2.482550737e-04,9.754290917e-04,-9.626060533e-05,8.791684864e-04,7.975279318e-04,-3.058034843e-04,4.917244475e-04,6.591671578e-04,-9.089940624e-05,5.682677516e-04,1.365171774e-04,1.971904531e-05,1.562362227e-04,7.122900304e-04,-2.211380313e-05,6.901762273e-04,5.493405191e-04,-1.422152935e-04,4.071252256e-04,2.996319102e-04,-2.064067388e-05,2.789912364e-04,-3.060026542e-04,-2.922892517e-04,-5.982919059e-04,-4.187084917e-05,-1.834788571e-04,-2.253497063e-04,-6.017846688e-04,-8.650896045e-05,-6.882936293e-04
-4.3,7.527955952e-04,3.057445724e-05,7.833700525e-04,4.291394345e-04,-4.495150456e-04,-2.037561106e-05,1.036968505e-03,-5.458117579e-05,9.823873291e-04,1.472711319e-03,-1.127229957e-04,1.359988324e-03,1.234073263e-03,-2.674905720e-04,9.665826905e-04,-3.637579553e-04,-3.411985396e-04,-7.049564949e-04,9.323917202e-04,5.575329761e-05,9.881450178e-04,-3.845448218e-04,-5.400151894e-05,-4.385463407e-04,6.773571566e-04,-3.563458413e-05,6.417225725e-04,-3.219636084e-05,-6.114757543e-06,-3.831111838e-05,4.720277130e-04,-1.120158725e-04,3.600118406e-04,5.377870448e-04,-2.563686805e-04,2.814183643e-04,4.630241346e-04,-8.567563669e-05,3.773484979e-04,4.083176790e-04,-2.917462944e-04,1.165713847e-04,1.041505992e-03,-4.548187701e-04,5.866872221e-04,7.876897167e-04,-2.701718426e-04,5.175178740e-04,-1.523550991e-04,-1.053827762e-05,-1.628933767e-04,-2.038365975e-04,-7.142282169e-05,-2.752594192e-04,-9.700942824e-05,4.745634643e-05,-4.955308181e-05,-3.878068359e-04,-1.342677355e-04,-5.220745715e-04,4.560884341e-04,-4.436114399e-05,4.117272901e-04,5.840444003e-04,-2.276351460e-05,5.612808857e-04,-4.437235270e-04,-3.949952049e-04,-8.387187319e-04,9.967964440e-04,4.611583883e-05,1.042912283e-03,3.230883354e-04,-3.258847010e-04,-2.796365570e-06,7.041364763e-04,-4.909708900e-04,2.131655863e-04,8.975460135e-04,-6.674458934e-05,8.308014241e-04,7.326586028e-04,-2.976381151e-04,4.350204877e-04,5.705843071e-04,-9.094227871e-05,4.796420284e-04,1.140747965e-04,1.458418402e-05,1.286589806e-04,6.349203944e-04,-3.499294773e-05,5.999274467e-04,5.042422073e-04,-1.419109450e-04,3.623312623e-04,1.736604816e-04,-2.402613475e-05,1.496343469e-04,-3.916708313e-04,-2.866796661e-04,-6.783504975e-04,-1.110858720e-04,-1.750590748e-04,-2.861449467e-04,-6.238087660e-04,-1.023431568e-04,-7.261519228e-04
-4.2,6.561201225e-04,1.764331952e-05,6.737634421e-04,3.461153981e-04,-4.458087068e-04,-9.969330866e-05,9.689358073e-04,-6.577183523e-05,9.031639721e-04,1.348998570e-03,-1.283641949e-04,1.220634375e-03,1.161976087e-03,-2.681900874e-04,8.937859995e-04,-4.081334292e-04,-3.287101827e-04,-7.368436119e-04,7.815871709e-04,4.769341421e-05,8.292805851e-04,-4.950658299e-04,-4.469727533e-05,-5.397631053e-04,6.412605263e-04,-3.247748282e-05,6.087830435e-04,-1.168801828e-04,-1.923541601e-06,-1.188037244e-04,4.336638696e-04,-1.060393494e-04,3.276245202e-04,4.785279316e-04,-2.374886892e-04,2.410392424e-04,3.546007796e-04,-7.760475393e-05,2.769960257e-04,3.354484793e-04,-2.669040917e-04,6.854438765e-05,9.421736849e-04,-4.627952849e-04,4.793784000e-04,7.042199824e-04,-2.762868445e-04,4.279331379e-04,-3.141332138e-04,4.717437201e-05,-2.669588418e-04,-2.791117354e-04,-6.414674388e-05,-3.432584792e-04,-1.366869790e-04,-5.273585485e-06,-1.419605645e-04,-4.442395743e-04,-1.320447294e-04,-5.762843037e-04,4.306844903e-04,-4.520560240e-05,3.854788879e-04,5.067356558e-04,-2.523758622e-05,4.814980696e-04,-4.812617916e-04,-3.902831758e-04,-8.715449674e-04,9.040581450e-04,3.674061586e-05,9.407987609e-04,2.809698876e-04,-3.455715987e-04,-6.460171117e-05,6.560404655e-04,-4.773910857e-04,1.786493798e-04,8.194977796e-04,-3.883645078e-05,7.806613288e-04,6.680034389e-04,-2.894670821e-04,3.785363567e-04,4.812820726e-04,-9.085797555e-05,3.904240970e-04,9.154418627e-05,9.370631854e-06,1.009148181e-04,5.564291077e-04,-4.764425207e-05,5.087848557e-04,4.591350071e-04,-1.409784594e-04,3.181565477e-04,4.941632525e-05,-2.812577656e-05,2.129054869e-05,-4.757597850e-04,-2.788019208e-04,-7.545617059e-04,-1.770109456e-04,-1.661389421e-04,-3.431498878e-04,-6.411382698e-04,-1.189652627e-04,-7.601035324e-04
-4.1,5.514619054e-04,3.031315339e-06,5.544932207e-04,2.608806494e-04,-4.406941244e-04,-1.798134750e-04,8.938851744e-04,-7.818424117e-05,8.157009332e-04,1.213621473e-03,-1.451859059e-04,1.068435567e-03,1.084571098e-03,-2.685534638e-04,8.160176338e-04,-4.465234380e-04,-3.137538741e-04,-7.602773121e-04,6.240856554e-04,3.832396307e-05,6.624096185e-04,-6.030682412e-04,-3.517108730e-05,-6.382393285e-04,6.038820621e-04,-2.922678368e-05,5.746552784e-04,-2.011492751e-04,2.102281827e-06,-1.990469932e-04,3.948380514e-04,-9.978728320e-05,2.950507682e-04,4.212824765e-04,-2.179742207e-04,2.033082557e-04,2.480212206e-04,-7.004474133e-05,1.779764792e-04,2.621624007e-04,-2.408369451e-04,2.132545553e-05,8.405520406e-04,-4.692347533e-04,3.713172873e-04,6.193043123e-04,-2.809269687e-04,3.383773436e-04,-4.718486336e-04,1.050592872e-04,-3.667893464e-04,-3.518925703e-04,-5.657369125e-05,-4.084662615e-04,-1.765004083e-04,-5.610823229e-05,-2.326086406e-04,-4.971263975e-04,-1.290729236e-04,-6.261993211e-04,4.042486700e-04,-4.617106812e-05,3.580776019e-04,4.253968558e-04,-2.818195567e-05,3.972149002e-04,-5.175320094e-04,-3.849429358e-04,-9.024749453e-04,8.024524481e-04,2.543998544e-05,8.278924335e-04,2.394150924e-04,-3.643331259e-04,-1.249180335e-04,6.066408510e-04,-4.617370199e-04,1.449038311e-04,7.416886177e-04,-1.309592565e-05,7.285926921e-04,6.038161576e-04,-2.813193072e-04,3.224968504e-04,3.916018330e-04,-9.064529674e-05,3.009565362e-04,6.889571126e-05,4.077522250e-06,7.297323351e-05,4.772056854e-04,-5.995020307e-05,4.172554823e-04,4.145510729e-04,-1.394938740e-04,2.750571990e-04,-7.238206338e-05,-3.295157868e-05,-1.053336421e-04,-5.578183714e-04,-2.688762489e-04,-8.266946203e-04,-2.393750547e-04,-1.566856068e-04,-3.960606615e-04,-6.534971886e-04,-1.363590653e-04,-7.898562539e-04
-4,4.387496299e-04,-1.324727283e-05,4.255023570e-04,1.738824333e-04,-4.341242639e-04,-2.602418305e-04,8.117483449e-04,-9.182046931e-05,7.199278756e-04,1.066696386e-03,-1.631898376e-04,9.035065479e-04,1.001930880e-03,-2.686183269e-04,7.333125528e-04,-4.784650461e-04,-2.962904947e-04,-7.747555408e-04,4.602491563e-04,2.762603234e-05,4.878751887e-04,-7.080849309e-04,-2.544155982e-05,-7.335264907e-04,5.652992795e-04,-2.592224075e-05,5.393770388e-04,-2.847237066e-04,5.951040590e-06,-2.787726660e-04,3.556337752e-04,-9.331449691e-05,2.623192783e-04,3.663705001e-04,-1.978556269e-04,1.685148733e-04,1.442170362e-04,-6.332643242e-05,8.089060381e-05,1.888211635e-04,-2.136661461e-04,-2.484498258e-05,7.369459938e-04,-4.740170355e-04,2.629289582e-04,5.333377795e-04,-2.840890799e-04,2.492486996e-04,-6.244402287e-04,1.622739716e-04,-4.621662570e-04,-4.218991278e-04,-4.880716037e-05,-4.707062882e-04,-2.164490982e-04,-1.046666253e-04,-3.211157236e-04,-5.461340120e-04,-1.253473920e-04,-6.714814041e-04,3.768139959e-04,-4.728096988e-05,3.295330261e-04,3.402255240e-04,-3.157391999e-05,3.086516040e-04,-5.521143836e-04,-3.789028847e-04,-9.310172683e-04,6.919159252e-04,1.216400263e-05,7.040799278e-04,1.986155528e-04,-3.820206045e-04,-1.834050517e-04,5.562232918e-04,-4.441070625e-04,1.121162293e-04,6.645213283e-04,9.936288956e-06,6.744576172e-04,5.403072103e-04,-2.731981794e-04,2.671090309e-04,3.018731712e-04,-9.030637050e-05,2.115668007e-04,4.610865239e-05,-1.307340852e-06,4.480131154e-05,3.976348272e-04,-7.179872507e-05,3.258361021e-04,3.710029403e-04,-1.375322208e-04,2.334707196e-04,-1.910358550e-04,-3.850222306e-05,-2.295380781e-04,-6.374004580e-04,-2.571490024e-04,-8.945494604e-04,-2.979616978e-04,-1.466557195e-04,-4.446174173e-04,-6.606824247e-04,-1.544776376e-04,-8.151600623e-04
-3.9,3.180103298e-04,-3.114812421e-05,2.868622056e-04,8.559920457e-05,-4.260518098e-04,-3.404526053e-04,7.225170269e-04,-1.066604311e-04,6.158565958e-04,9.084726955e-04,-1.823511313e-04,7.261215642e-04,9.141539504e-04,-2.684162386e-04,6.457377118e-04,-5.035738619e-04,-2.763066309e-04,-7.798804928e-04,2.905091966e-04,1.560115287e-05,3.061103495e-04,-8.096676711e-04,-1.553309818e-05,-8.252007693e-04,5.255710820e-04,-2.260450594e-05,5.029665761e-04,-3.673298513e-04,9.614769644e-06,-3.577150817e-04,3.161149012e-04,-8.667637409e-05,2.294385271e-04,3.140571256e-04,-1.771610706e-04,1.368960549e-04,4.407617068e-05,-5.776324184e-05,-1.368707116e-05,1.157750580e-04,-1.855175204e-04,-6.974246240e-05,6.316560120e-04,-4.770254116e-04,1.546306004e-04,4.467034099e-04,-2.857842853e-04,1.609191246e-04,-7.709654420e-04,2.180441605e-04,-5.529212815e-04,-4.888879726e-04,-4.094512831e-05,-5.298331009e-04,-2.564176104e-04,-1.507090467e-04,-4.071266571e-04,-5.909670739e-04,-1.208687754e-04,-7.118358492e-04,3.484078561e-04,-4.855541996e-05,2.998524362e-04,2.514511467e-04,-3.538586093e-05,2.160652858e-04,-5.845676043e-04,-3.720767679e-04,-9.566443722e-04,5.724730962e-04,-3.110847117e-06,5.693622491e-04,1.587356476e-04,-3.984822990e-04,-2.397466513e-04,5.050729521e-04,-4.246161619e-04,8.045679021e-05,5.883850024e-04,2.975223863e-05,6.181372411e-04,4.776397239e-04,-2.650839163e-04,2.125558076e-04,2.124093471e-04,-8.984530107e-05,1.225640461e-04,2.317255589e-05,-6.807350982e-06,1.636520491e-05,3.180918932e-04,-8.308584340e-05,2.350060498e-04,3.289744794e-04,-1.351653083e-04,1.938091711e-04,-3.058842193e-04,-4.475496773e-05,-3.506391870e-04,-7.140709736e-04,-2.438864320e-04,-9.579574056e-04,-3.526055902e-04,-1.359985405e-04,-4.886041307e-04,-6.625697053e-04,-1.732402982e-04,-8.358100036e-04
-3.8,1.893807525e-04,-5.059519188e-05,1.387855606e-04,-3.461019915e-06,-4.164296312e-04,-4.198906511e-04,6.262497401e-04,-1.226599507e-04,5.035897895e-04,7.393441950e-04,-2.026160240e-04,5.367281710e-04,8.213679546e-04,-2.679719125e-04,5.533960421e-04,-5.215537034e-04,-2.538172656e-04,-7.753709690e-04,1.153723169e-04,2.273167012e-06,1.176454839e-04,-9.073925143e-04,-5.474926978e-06,-9.128674413e-04,4.847377993e-04,-1.931474556e-05,4.654230537e-04,-4.487012241e-04,1.308930942e-05,-4.356119147e-04,2.763242946e-04,-7.992869527e-05,1.963955994e-04,2.645507031e-04,-1.559187068e-04,1.086319963e-04,-5.157547425e-05,-5.364044360e-05,-1.052159179e-04,4.336179638e-05,-1.565206837e-04,-1.131588873e-04,5.249789652e-04,-4.781483211e-04,4.683064403e-05,3.597687382e-04,-2.860381687e-04,7.373056947e-05,-9.106119133e-04,2.716805428e-04,-6.389313705e-04,-5.526556454e-04,-3.307843617e-05,-5.857340815e-04,-2.961968022e-04,-1.941218207e-04,-4.903186228e-04,-6.313732986e-04,-1.156436821e-04,-7.470169807e-04,3.190528525e-04,-5.001089557e-05,2.690419569e-04,1.593367888e-04,-3.958606038e-05,1.197507284e-04,-6.144287870e-04,-3.643634359e-04,-9.787922229e-04,4.442472759e-04,-2.037914730e-05,4.238681286e-04,1.199093666e-04,-4.135657703e-04,-2.936564037e-04,4.534678669e-04,-4.033943445e-04,5.007352234e-05,5.136441313e-04,4.588948182e-05,5.595336131e-04,4.159273746e-04,-2.569355106e-04,1.589918640e-04,1.235048308e-04,-8.926608687e-05,3.423874391e-05,8.971206424e-08,-1.245635398e-05,-1.236664191e-05,2.389378544e-04,-9.371696297e-05,1.452208914e-04,2.889135079e-04,-1.324605648e-04,1.564529431e-04,-4.163199798e-04,-5.165984952e-05,-4.679798294e-04,-7.874113966e-04,-2.293689452e-04,-1.016780342e-03,-4.031865740e-04,-1.246603320e-04,-5.278469060e-04,-6.591142614e-04,-1.925319486e-04,-8.516462100e-04
-3.7,5.311858170e-05,-7.147919262e-05,-1.836061091e-05,-9.276172358e-05,-4.052112570e-04,-4.979729806e-04,5.230795573e-04,-1.397489263e-04,3.833306310e-04,5.598603150e-04,-2.238998796e-04,3.359604354e-04,7.237345567e-04,-2.673025434e-04,4.564320133e-04,-5.322049157e-04,-2.288682985e-04,-7.610732143e-04,-6.457385603e-05,-1.231013547e-05,-7.688399149e-05,-1.000864009e-03,4.699938354e-06,-9.961640709e-04,4.428227801e-04,-1.609437498e-05,4.267284051e-04,-5.285777279e-04,1.637429514e-05,-5.122034328e-04,2.362846288e-04,-7.312746273e-05,1.631571661e-04,2.180077059e-04,-1.341593978e-04,8.384830811e-05,-1.419908460e-04,-5.120390753e-05,-1.931947535e-04,-2.809080276e-05,-1.268080692e-04,-1.548988720e-04,4.172109260e-04,-4.772809267e-04,-6.007000069e-05,2.728837153e-04,-2.848906129e-04,-1.200689754e-05,-1.042701973e-03,3.225892625e-04,-7.201127102e-04,-6.130404420e-04,-2.528979305e-05,-6.383302350e-04,-3.355115894e-04,-2.348922885e-04,-5.704038779e-04,-6.671465747e-04,-1.096848481e-04,-7.768314228e-04,2.887698162e-04,-5.165970379e-05,2.371101124e-04,6.418284992e-05,-4.413920641e-05,2.004364351e-05,-6.412119072e-04,-3.556468123e-04,-9.968587195e-04,3.074725112e-04,-3.960412747e-05,2.678683837e-04,8.224149164e-05,-4.271219041e-04,-3.448804124e-04,4.016755413e-04,-3.805843984e-04,2.109114297e-05,4.406327509e-04,5.794117085e-05,4.985739217e-04,3.552358244e-04,-2.486918207e-04,1.065440037e-04,3.543614565e-05,-8.857043199e-05,-5.313428634e-05,-2.312132067e-05,-1.829708852e-05,-4.141840919e-05,1.605149484e-04,-1.036068505e-04,5.690809784e-05,2.512273791e-04,-1.294809739e-04,1.217464052e-04,-5.217999596e-04,-5.913847495e-05,-5.809384345e-04,-8.570238621e-04,-2.138857867e-04,-1.070909649e-03,-4.496213068e-04,-1.125893692e-04,-5.622106760e-04,-6.503462134e-04,-2.122050128e-04,-8.625512262e-04
-3.6,-9.038656860e-05,-9.365644973e-05,-1.840430183e-04,-1.817382215e-04,-3.923515470e-04,-5.740897684e-04,4.132227382e-04,-1.578296362e-04,2.553931020e-04,3.707369902e-04,-2.460857305e-04,1.246512597e-04,6.214561300e-04,-2.664173123e-04,3.550388178e-04,-5.354309909e-04,-2.015387862e-04,-7.369697771e-04,-2.486540801e-04,-2.807563073e-05,-2.767297108e-04,-1.089717425e-03,1.495515615e-05,-1.074762269e-03,3.998354268e-04,-1.298488087e-05,3.868505459e-04,-6.067035049e-04,1.947308966e-05,-5.872304153e-04,1.960012775e-04,-6.632866730e-05,1.296726102e-04,1.745443176e-04,-1.119198779e-04,6.262443971e-05,-2.265149386e-04,-5.064945885e-05,-2.771643975e-04,-9.825902971e-05,-9.651374691e-05,-1.947727766e-04,3.086513964e-04,-4.743261921e-04,-1.656747957e-04,1.863803928e-04,-2.823951282e-04,-9.601473541e-05,-1.166694112e-03,3.702776078e-04,-7.964165043e-04,-6.699218180e-04,-1.765316416e-05,-6.875749822e-04,-3.740497156e-04,-2.730805469e-04,-6.471302626e-04,-6.981280855e-04,-1.030111399e-04,-8.011392254e-04,2.575826838e-04,-5.350930799e-05,2.040733758e-04,-3.366735379e-05,-4.900677747e-05,-8.267413126e-05,-6.644052637e-04,-3.457961615e-04,-1.010201425e-03,1.625059492e-04,-6.071551443e-05,1.017904348e-04,4.581399790e-05,-4.390108800e-04,-3.931968821e-04,3.499536725e-04,-3.563390039e-04,-6.385331315e-06,3.696539394e-04,6.556412103e-05,4.352180604e-04,2.955889429e-04,-2.402725728e-04,5.531637002e-05,-5.153444689e-05,-8.775622036e-05,-1.392906672e-04,-4.642206581e-05,-2.437881769e-05,-7.080088350e-05,8.314439424e-05,-1.126795472e-04,-2.953515292e-05,2.162813577e-04,-1.262857971e-04,8.999556065e-05,-6.218514539e-04,-6.708677036e-05,-6.889382243e-04,-9.225333882e-04,-1.977304678e-04,-1.120263856e-03,-4.918544390e-04,-9.974047185e-05,-5.915949108e-04,-6.363626380e-04,-2.320824279e-04,-8.684450660e-04
-3.5,-2.406030392e-04,-1.169482403e-04,-3.575512794e-04,-2.697978739e-04,-3.778076500e-04,-6.476055240e-04,2.969875734e-04,-1.767752542e-04,1.202123193e-04,1.728662487e-04,-2.690233988e-04,-9.615715013e-05,5.147833740e-04,-2.653170790e-04,2.494662950e-04,-5.312435656e-04,-1.719428145e-04,-7.031863801e-04,-4.360993044e-04,-4.492376591e-05,-4.810230703e-04,-1.173619257e-03,2.525078607e-05,-1.148368471e-03,3.557750487e-04,-1.002766654e-05,3.457473822e-04,-6.828243463e-04,2.239265637e-05,-6.604316899e-04,1.554663261e-04,-5.958799642e-05,9.587832969e-05,1.342502076e-04,-8.924533147e-05,4.500487613e-05,-3.045941134e-04,-5.211386173e-05,-3.567079752e-04,-1.668168081e-04,-6.577232987e-05,-2.325891379e-04,1.996072141e-04,-4.691952593e-04,-2.695880452e-04,1.005736490e-04,-2.786175552e-04,-1.780439062e-04,-1.282185173e-03,4.143578839e-04,-8.678272894e-04,-7.232175062e-04,-1.023348916e-05,-7.334509953e-04,-4.114892306e-04,-3.087918805e-04,-7.202811112e-04,-7.242064207e-04,-9.564765530e-05,-8.198540760e-04,2.255239186e-04,-5.556175381e-05,1.699621647e-04,-1.338215583e-04,-5.414756444e-05,-1.879691227e-04,-6.834693704e-04,-3.346667247e-04,-1.018136095e-03,9.839354362e-06,-8.360780971e-05,-7.376845535e-05,1.069548787e-05,-4.491086311e-04,-4.384131432e-04,2.985536044e-04,-3.308177468e-04,-3.226414247e-05,3.009808986e-04,6.848777462e-05,3.694686733e-04,2.369791269e-04,-2.315804159e-04,5.398711046e-06,-1.371546411e-04,-8.681709412e-05,-2.239717352e-04,-6.975174351e-05,-3.075449467e-05,-1.005062382e-04,7.126375472e-06,-1.208694531e-04,-1.137430776e-04,1.843985111e-04,-1.229317663e-04,6.146674481e-05,-7.160773069e-04,-7.537952731e-05,-7.914568342e-04,-9.835875791e-04,-1.811984397e-04,-1.164786019e-03,-5.298511355e-04,-8.607847971e-05,-6.159296152e-04,-6.173190075e-04,-2.519596501e-04,-8.692786576e-04
-3.4,-3.968491417e-04,-1.411407214e-04,-5.379898631e-04,-3.563213273e-04,-3.615401997e-04,-7.178615270e-04,1.747822882e-04,-1.964286826e-04,-2.164639447e-05,-3.267691798e-05,-2.925292333e-04,-3.252061513e-04,4.040222988e-04,-2.639942347e-04,1.400280641e-04,-5.197661377e-04,-1.402310007e-04,-6.599971384e-04,-6.260420358e-04,-6.272784895e-05,-6.887698848e-04,-1.252267303e-03,3.554279480e-05,-1.216724508e-03,3.106348066e-04,-7.263825779e-06,3.033709808e-04,-7.566858401e-04,2.514334320e-05,-7.315424969e-04,1.146623921e-04,-5.296051154e-05,6.170188051e-05,9.719877335e-05,-6.619042406e-05,3.100834929e-05,-3.757831977e-04,-5.566803529e-05,-4.314512330e-04,-2.334312250e-04,-3.471828423e-05,-2.681495092e-04,9.039482043e-05,-4.618075720e-04,-3.714127515e-04,1.576160306e-05,-2.736341501e-04,-2.578725471e-04,-1.388912039e-03,4.545491055e-04,-9.343629331e-04,-7.728793887e-04,-3.086813755e-06,-7.759662025e-04,-4.475240525e-04,-3.421512463e-04,-7.896752988e-04,-7.453180181e-04,-8.762609253e-05,-8.329441106e-04,1.926388970e-04,-5.781335260e-05,1.348255444e-04,-2.358337069e-04,-5.951837028e-05,-2.953520772e-04,-6.978367086e-04,-3.221007370e-04,-1.019937446e-03,-1.498915528e-04,-1.081390118e-04,-2.580305646e-04,-2.304984995e-05,-4.573120907e-04,-4.803619406e-04,2.477236551e-04,-3.041844467e-04,-5.646079160e-05,2.348549548e-04,6.652620446e-05,3.013811592e-04,1.793792453e-04,-2.225047540e-04,-4.312550864e-05,-2.211795949e-04,-8.574310299e-05,-3.069226979e-04,-9.302729416e-05,-3.747792331e-05,-1.305052175e-04,-6.725898596e-05,-1.281235959e-04,-1.953825818e-04,1.558597234e-04,-1.194743848e-04,3.638533861e-05,-8.041603452e-04,-8.387483461e-05,-8.880351798e-04,-1.039853957e-03,-1.645880208e-04,-1.204441978e-03,-5.635922057e-04,-7.158062547e-05,-6.351728312e-04,-5.934206388e-04,-2.716059679e-04,-8.650266067e-04
