Time,S1D1HbO,S1D1HbR,S1D1HbT,S2D2HbO,S2D2HbR,S2D2HbT,S3D3HbO,S3D3HbR,S3D3HbT,S4D4HbO,S4D4HbR,S4D4HbT,S5D5HbO,S5D5HbR,S5D5HbT,S6D6HbO,S6D6HbR,S6D6HbT,S7D7HbO,S7D7HbR,S7D7HbT,S8D8HbO,S8D8HbR,S8D8HbT,S9D9HbO,S9D9HbR,S9D9HbT,S10D10HbO,S10D10HbR,S10D10HbT,S11D11HbO,S11D11HbR,S11D11HbT,S12D12HbO,S12D12HbR,S12D12HbT,S13D13HbO,S13D13HbR,S13D13HbT,S14D14HbO,S14D14HbR,S14D14HbT,S15D15HbO,S15D15HbR,S15D15HbT,S16D16HbO,S16D16HbR,S16D16HbT,S17D17HbO,S17D17HbR,S17D17HbT,S18D18HbO,S18D18HbR,S18D18HbT,S19D19HbO,S19D19HbR,S19D19HbT,S20D20HbO,S20D20HbR,S20D20HbT,S21D21HbO,S21D21HbR,S21D21HbT,S22D22HbO,S22D22HbR,S22D22HbT,S23D23HbO,S23D23HbR,S23D23HbT,S24D24HbO,S24D24HbR,S24D24HbT,S25D25HbO,S25D25HbR,S25D25HbT,S26D26HbO,S26D26HbR,S26D26HbT,S27D27HbO,S27D27HbR,S27D27HbT,S28D28HbO,S28D28HbR,S28D28HbT,S29D29HbO,S29D29HbR,S29D29HbT,S30D30HbO,S30D30HbR,S30D30HbT,S31D31HbO,S31D31HbR,S31D31HbT,S32D32HbO,S32D32HbR,S32D32HbT,S33D33HbO,S33D33HbR,S33D33HbT,S34D34HbO,S34D34HbR,S34D34HbT,S35D35HbO,S35D35HbR,S35D35HbT,S36D36HbO,S36D36HbR,S36D36HbT,
-10,-9.519080379e-04,3.485737663e-04,-6.033342716e-04,-1.341242314e-03,5.827588967e-05,-1.282966424e-03,-6.830894559e-04,-7.527788647e-05,-7.583673424e-04,-3.236443486e-04,3.751450371e-05,-2.861298449e-04,-5.469502104e-04,1.641403778e-04,-3.828098326e-04,-1.002125528e-03,1.761126843e-04,-8.260128437e-04,-1.220568676e-03,4.826651554e-05,-1.172302160e-03,-1.131166278e-03,5.051732291e-04,-6.259930490e-04,-8.246402299e-04,1.483124600e-05,-8.098089839e-04,-1.109428571e-03,3.300305890e-04,-7.793979822e-04,-6.821806224e-04,2.047393315e-04,-4.774412909e-04,-1.451305320e-03,6.061187311e-04,-8.451865886e-04,-1.173475660e-03,3.669585803e-05,-1.136779802e-03,-1.555534492e-03,3.922864541e-04,-1.163248038e-03,-2.540687696e-03,9.597029035e-04,-1.580984792e-03,-1.354475351e-03,2.932350838e-04,-1.061240268e-03,-8.859112708e-04,-5.033158398e-05,-9.362428548e-04,-1.688166945e-03,2.765718166e-04,-1.411595128e-03,-8.106779759e-04,1.649740965e-04,-6.457038794e-04,-1.410815922e-03,3.125150918e-04,-1.098300830e-03,-7.477807478e-04,-3.883913038e-05,-7.866198782e-04,-9.983556328e-04,7.465893655e-05,-9.236966963e-04,-8.625012247e-04,-1.302640351e-04,-9.927652599e-04,-1.022583392e-03,2.871363877e-04,-7.354470047e-04,-1.446449741e-03,4.720942499e-04,-9.743554912e-04,-1.761443323e-03,5.836818246e-04,-1.177761499e-03,-1.914488969e-03,2.901620343e-04,-1.624326935e-03,-2.596464893e-03,5.817687235e-04,-2.014696170e-03,-1.927324323e-03,1.623093336e-04,-1.765014989e-03,-1.322799083e-03,2.948827039e-04,-1.027916379e-03,-8.597241990e-04,-1.087223367e-04,-9.684465357e-04,-1.101936466e-03,1.704775510e-04,-9.314589146e-04,4.493020257e-04,-4.786476965e-04,-2.934567079e-05,-3.896651806e-04,3.890358430e-04,-6.293375804e-07,-1.368334194e-04,-5.669315513e-04,-7.037649707e-04,-4.084477808e-04,-1.265070779e-04,-5.349548587e-04
-9.9,-9.272166653e-04,3.540120969e-04,-5.732045684e-04,-1.310787854e-03,6.517939586e-05,-1.245608458e-03,-6.705023219e-04,-6.890100880e-05,-7.394033307e-04,-3.006535686e-04,4.161844782e-05,-2.590351207e-04,-5.058124565e-04,1.671546652e-04,-3.386577913e-04,-9.732832980e-04,2.036340143e-04,-7.696492838e-04,-1.145977112e-03,6.041410798e-05,-1.085563004e-03,-1.072569569e-03,5.181521152e-04,-5.544174541e-04,-7.620413667e-04,2.431851244e-05,-7.377228542e-04,-1.042473942e-03,3.303507231e-04,-7.121232192e-04,-6.553857705e-04,2.089317060e-04,-4.464540645e-04,-1.408917547e-03,5.835682472e-04,-8.253492995e-04,-1.169157844e-03,2.728762100e-05,-1.141870223e-03,-1.486300508e-03,3.763365766e-04,-1.109963931e-03,-2.459211000e-03,9.383341220e-04,-1.520876878e-03,-1.303975772e-03,3.012651287e-04,-1.002710644e-03,-8.579918041e-04,-2.303315585e-05,-8.810249600e-04,-1.650899744e-03,2.934327140e-04,-1.357467030e-03,-7.483063623e-04,1.640653500e-04,-5.842410123e-04,-1.347141547e-03,3.192674785e-04,-1.027874068e-03,-7.253785239e-04,-3.462127869e-05,-7.599998026e-04,-9.717772065e-04,7.585129738e-05,-8.959259091e-04,-8.558960382e-04,-1.283086024e-04,-9.842046406e-04,-9.972340143e-04,2.783368173e-04,-7.188971970e-04,-1.400343616e-03,4.665798383e-04,-9.337637776e-04,-1.722276252e-03,5.784500952e-04,-1.143826156e-03,-1.860332673e-03,2.974871885e-04,-1.562845485e-03,-2.526162610e-03,5.761713682e-04,-1.949991242e-03,-1.853437688e-03,1.631398798e-04,-1.690297809e-03,-1.294416458e-03,3.059020206e-04,-9.885144370e-04,-7.751786821e-04,-1.212908432e-04,-8.964695253e-04,-1.047391885e-03,1.715034523e-04,-8.758884324e-04,4.832347924e-04,-4.480753094e-04,3.515948301e-05,-3.403841073e-04,3.863451077e-04,4.596100042e-05,-1.124345665e-04,-5.296552952e-04,-6.420898617e-04,-3.368234840e-04,-1.208940035e-04,-4.577174874e-04
-9.8,-9.011468336e-04,3.579994317e-04,-5.431474019e-04,-1.279249300e-03,7.128050780e-05,-1.207968793e-03,-6.578008604e-04,-6.285821369e-05,-7.206590741e-04,-2.784639856e-04,4.557585231e-05,-2.328881333e-04,-4.657592016e-04,1.697709343e-04,-2.959882673e-04,-9.448182954e-04,2.311285227e-04,-7.136897727e-04,-1.072490937e-03,7.264229307e-05,-9.998486437e-04,-1.012589346e-03,5.301749185e-04,-4.824144276e-04,-7.001267052e-04,3.365893616e-05,-6.664677690e-04,-9.753388075e-04,3.304149495e-04,-6.449238580e-04,-6.285181339e-04,2.126146629e-04,-4.159034710e-04,-1.368835433e-03,5.612649991e-04,-8.075704336e-04,-1.169818969e-03,2.689968342e-05,-1.142919285e-03,-1.418289344e-03,3.603240422e-04,-1.057965302e-03,-2.377514120e-03,9.156348431e-04,-1.461879277e-03,-1.252839167e-03,3.080578484e-04,-9.447813182e-04,-8.300581666e-04,4.094241820e-06,-8.259639248e-04,-1.611555676e-03,3.083751574e-04,-1.303180519e-03,-6.863290854e-04,1.629521807e-04,-5.233769047e-04,-1.282276974e-03,3.250477701e-04,-9.572292035e-04,-7.030832433e-04,-3.068247105e-05,-7.337657144e-04,-9.447234911e-04,7.649438004e-05,-8.682291110e-04,-8.483479223e-04,-1.264138849e-04,-9.747618072e-04,-9.702365161e-04,2.684861064e-04,-7.017504097e-04,-1.354984372e-03,4.613748534e-04,-8.936095183e-04,-1.682303158e-03,5.718301311e-04,-1.110473027e-03,-1.804563571e-03,3.046361299e-04,-1.499927441e-03,-2.454061648e-03,5.691997773e-04,-1.884861871e-03,-1.778755736e-03,1.637993371e-04,-1.614956399e-03,-1.264070512e-03,3.155610148e-04,-9.485094973e-04,-6.910643004e-04,-1.340955187e-04,-8.251598192e-04,-9.924339097e-04,1.720109949e-04,-8.204229147e-04,5.156064099e-04,-4.167892414e-04,9.881716844e-05,-2.942567282e-04,3.839162833e-04,8.965955515e-05,-8.897167523e-05,-4.928528923e-04,-5.818245675e-04,-2.669462243e-04,-1.144527621e-04,-3.813989864e-04
-9.7,-8.738097884e-04,3.605111257e-04,-5.132986627e-04,-1.246681972e-03,7.655336836e-05,-1.170128604e-03,-6.450254333e-04,-5.715592055e-05,-7.021813539e-04,-2.571289330e-04,4.938800285e-05,-2.077409302e-04,-4.268798130e-04,1.719874972e-04,-2.548923158e-04,-9.166846956e-04,2.583719242e-04,-6.583127714e-04,-1.000265882e-03,8.491688056e-05,-9.153490012e-04,-9.512624844e-04,5.410958662e-04,-4.101666182e-04,-6.390041021e-04,4.281371906e-05,-5.961903831e-04,-9.081216867e-04,3.302070223e-04,-5.779146645e-04,-6.016061649e-04,2.157734876e-04,-3.858326773e-04,-1.331252727e-03,5.394432991e-04,-7.918094275e-04,-1.175394700e-03,3.595803757e-05,-1.139436662e-03,-1.351612426e-03,3.443350937e-04,-1.007277332e-03,-2.295874755e-03,8.917748130e-04,-1.404099942e-03,-1.201069186e-03,3.134944819e-04,-8.875747040e-04,-8.022522663e-04,3.110950739e-05,-7.711427589e-04,-1.570169209e-03,3.213858150e-04,-1.248783394e-03,-6.249112836e-04,1.615802256e-04,-4.633310581e-04,-1.216295873e-03,3.297909970e-04,-8.865048755e-04,-6.809110460e-04,-2.702006397e-05,-7.079311100e-04,-9.172581768e-04,7.660550703e-05,-8.406526698e-04,-8.398689731e-04,-1.245685993e-04,-9.644375724e-04,-9.417748158e-04,2.576846955e-04,-6.840901203e-04,-1.310447241e-03,4.565844951e-04,-8.538627461e-04,-1.641682193e-03,5.639410010e-04,-1.077741192e-03,-1.747542458e-03,3.120167744e-04,-1.435525684e-03,-2.380345017e-03,5.608896752e-04,-1.819455342e-03,-1.703469582e-03,1.642195955e-04,-1.539249986e-03,-1.231802123e-03,3.237768553e-04,-9.080252678e-04,-6.075565216e-04,-1.470675087e-04,-7.546240303e-04,-9.372109914e-04,1.719995725e-04,-7.652114189e-04,5.461794942e-04,-3.849962059e-04,1.611832883e-04,-2.516067308e-04,3.819518013e-04,1.303450704e-04,-6.647547439e-05,-4.566902650e-04,-5.231657394e-04,-1.992426872e-04,-1.070714597e-04,-3.063141470e-04
-9.6,-8.453223352e-04,3.615348726e-04,-4.837874626e-04,-1.213148154e-03,8.098158224e-05,-1.132166572e-03,-6.322077320e-04,-5.179836386e-05,-6.840060959e-04,-2.366952123e-04,5.305758235e-05,-1.836376300e-04,-3.892539090e-04,1.738048458e-04,-2.154490633e-04,-8.888300917e-04,2.851282639e-04,-6.037018279e-04,-9.294538845e-04,9.720064487e-05,-8.322532396e-04,-8.886435213e-04,5.507743718e-04,-3.378691495e-04,-5.787811734e-04,5.174549726e-05,-5.270356761e-04,-8.409249691e-04,3.297109498e-04,-5.112140192e-04,-5.746753814e-04,2.183965529e-04,-3.562788285e-04,-1.296326031e-03,5.183262503e-04,-7.779997807e-04,-1.185756350e-03,5.470709788e-05,-1.131049252e-03,-1.286364338e-03,3.284462763e-04,-9.579180620e-04,-2.214582263e-03,8.669355576e-04,-1.347646705e-03,-1.148683065e-03,3.174792642e-04,-8.312038007e-04,-7.747657420e-04,5.814077856e-05,-7.166249635e-04,-1.526805011e-03,3.324911324e-04,-1.194313878e-03,-5.641972516e-04,1.598867950e-04,-4.043104566e-04,-1.149290600e-03,3.334440495e-04,-8.158465502e-04,-6.588700954e-04,-2.362985878e-05,-6.824999542e-04,-8.894403880e-04,7.620545246e-05,-8.132349355e-04,-8.304651565e-04,-1.227613352e-04,-9.532264917e-04,-9.120305089e-04,2.460399322e-04,-6.659905767e-04,-1.266786927e-03,4.523036378e-04,-8.144832890e-04,-1.600563576e-03,5.549078456e-04,-1.045655730e-03,-1.689637294e-03,3.200434411e-04,-1.369593853e-03,-2.305203877e-03,5.512869502e-04,-1.753916927e-03,-1.627754988e-03,1.643341150e-04,-1.463420873e-03,-1.197667931e-03,3.304783173e-04,-8.671896136e-04,-5.247761680e-04,-1.601826282e-04,-6.849587962e-04,-8.818804342e-04,1.714712447e-04,-7.104091895e-04,5.747359878e-04,-3.529258103e-04,2.218101775e-04,-2.126664804e-04,3.806007577e-04,1.679342773e-04,-4.493362105e-05,-4.213617071e-04,-4.662953281e-04,-1.340970158e-04,-9.870013241e-05,-2.327971482e-04
-9.5,-8.158063978e-04,3.610706716e-04,-4.547357262e-04,-1.178717250e-03,8.455798286e-05,-1.094159267e-03,-6.193710941e-04,-4.678757374e-05,-6.661586679e-04,-2.172035536e-04,5.658862460e-05,-1.606149290e-04,-3.529512559e-04,1.752254444e-04,-1.777258114e-04,-8.612025775e-04,3.111572577e-04,-5.500453198e-04,-8.602027759e-04,1.094535673e-04,-7.507492086e-04,-8.248050879e-04,5.590775385e-04,-2.657275494e-04,-5.195652696e-04,6.041866294e-05,-4.591466066e-04,-7.738550816e-04,3.289110939e-04,-4.449439877e-04,-5.477489590e-04,2.204753944e-04,-3.272735646e-04,-1.264173372e-03,4.981223539e-04,-7.660510184e-04,-1.200690541e-03,8.319010185e-05,-1.117500440e-03,-1.222624710e-03,3.127253998e-04,-9.098993097e-04,-2.133943265e-03,8.413150919e-04,-1.292628173e-03,-1.095714631e-03,3.199389315e-04,-7.757756998e-04,-7.478372689e-04,8.537942232e-05,-6.624578466e-04,-1.481558963e-03,3.417534763e-04,-1.139805486e-03,-5.043158260e-04,1.578035233e-04,-3.465123026e-04,-1.081372539e-03,3.359675945e-04,-7.454049442e-04,-6.369610906e-04,-2.050614090e-05,-6.574672315e-04,-8.613240846e-04,7.531794930e-05,-7.860061353e-04,-8.201366679e-04,-1.209807058e-04,-9.411173737e-04,-8.811812216e-04,2.336645245e-04,-6.475166971e-04,-1.224037593e-03,4.486159696e-04,-7.754216234e-04,-1.559087674e-03,5.448593899e-04,-1.014228284e-03,-1.631217309e-03,3.291265507e-04,-1.302090758e-03,-2.228838057e-03,5.404478572e-04,-1.688390200e-03,-1.551770882e-03,1.640779770e-04,-1.387692905e-03,-1.161740022e-03,3.356065448e-04,-8.261334768e-04,-4.427908357e-04,-1.734605590e-04,-6.162513947e-04,-8.266073268e-04,1.704304711e-04,-6.561768557e-04,6.010765472e-04,-3.208217215e-04,2.802548257e-04,-1.775711925e-04,3.799576610e-04,2.023864685e-04,-2.429645714e-05,-3.870792640e-04,-4.113757211e-04,-7.184084295e-05,-8.935374544e-05,-1.611945884e-04
-9.4,-7.853878189e-04,3.591306194e-04,-4.262571995e-04,-1.143464481e-03,8.728390485e-05,-1.056180576e-03,-6.065300776e-04,-4.212338045e-05,-6.486534580e-04,-1.986881509e-04,5.998617083e-05,-1.387019801e-04,-3.180306642e-04,1.762535141e-04,-1.417771501e-04,-8.337569058e-04,3.362216194e-04,-4.975352864e-04,-7.926552443e-04,1.216331223e-04,-6.710221219e-04,-7.598378651e-04,5.658830083e-04,-1.939548568e-04,-4.614616480e-04,6.879958169e-05,-3.926620664e-04,-7.070209556e-04,3.277923038e-04,-3.792286519e-04,-5.208468285e-04,2.220047438e-04,-2.988420847e-04,-1.234872064e-03,4.790208266e-04,-7.558512376e-04,-1.219881375e-03,1.212411162e-04,-1.098640259e-03,-1.160457435e-03,2.972328503e-04,-8.632245850e-04,-2.054282192e-03,8.151294370e-04,-1.239152755e-03,-1.042213986e-03,3.208207856e-04,-7.213932004e-04,-7.217469272e-04,1.130715460e-04,-6.086753812e-04,-1.434555942e-03,3.492652164e-04,-1.085290725e-03,-4.453834722e-04,1.552591190e-04,-2.901243532e-04,-1.012669876e-03,3.373378214e-04,-6.753320547e-04,-6.151758046e-04,-1.764170392e-05,-6.328175085e-04,-8.329559544e-04,7.396920693e-05,-7.589867474e-04,-8.088778666e-04,-1.192154902e-04,-9.280933568e-04,-8.493982551e-04,2.206748892e-04,-6.287233660e-04,-1.182212560e-03,4.455930305e-04,-7.366195293e-04,-1.517382472e-03,5.339253237e-04,-9.834571483e-04,-1.572647909e-03,3.396635956e-04,-1.232984314e-03,-2.151454002e-03,5.284382284e-04,-1.623015773e-03,-1.475656373e-03,1.633885555e-04,-1.312267817e-03,-1.124103236e-03,3.391154294e-04,-7.849878067e-04,-3.616186903e-04,-1.869612451e-04,-5.485799354e-04,-7.715612699e-04,1.688838463e-04,-6.026774236e-04,6.250211797e-04,-2.889315505e-04,3.360896292e-04,-1.463544500e-04,3.800611648e-04,2.337067148e-04,-4.482867770e-06,-3.540600319e-04,-3.585428997e-04,-1.274638171e-05,-7.910802067e-05,-9.185440239e-05
-9.3,-7.541942377e-04,3.557385058e-04,-3.984557319e-04,-1.107468313e-03,8.916825014e-05,-1.018300063e-03,-5.936893449e-04,-3.780344373e-05,-6.314927886e-04,-1.811752210e-04,6.325570253e-05,-1.179195185e-04,-2.845379540e-04,1.768947843e-04,-1.076431697e-04,-8.064583395e-04,3.600931452e-04,-4.463651943e-04,-7.269470323e-04,1.336945613e-04,-5.932524710e-04,-6.938499174e-04,5.710816404e-04,-1.227682770e-04,-4.045703456e-04,7.685663169e-05,-3.277137139e-04,-6.405312087e-04,3.263399823e-04,-3.141912264e-04,-4.939835423e-04,2.229824197e-04,-2.710011227e-04,-1.208455191e-03,4.611853255e-04,-7.472698651e-04,-1.242900286e-03,1.684885489e-04,-1.074411738e-03,-1.099908481e-03,2.820233374e-04,-8.178851435e-04,-1.975935259e-03,7.886095990e-04,-1.187325660e-03,-9.882441006e-04,3.200901375e-04,-6.681539631e-04,-6.968081383e-04,1.415083957e-04,-5.552997427e-04,-1.385944098e-03,3.551408937e-04,-1.030803204e-03,-3.875039592e-04,1.521820285e-04,-2.353219307e-04,-9.433235447e-04,3.375476283e-04,-6.057759163e-04,-5.934945047e-04,-1.502788945e-05,-6.085223941e-04,-8.043725302e-04,7.218739965e-05,-7.321851305e-04,-7.966770336e-04,-1.174547904e-04,-9.141318240e-04,-8.168438507e-04,2.071894345e-04,-6.096544162e-04,-1.141303298e-03,4.432928317e-04,-6.980104661e-04,-1.475560939e-03,5.222340850e-04,-9.533268536e-04,-1.514283378e-03,3.520287999e-04,-1.162254578e-03,-2.073260543e-03,5.153319002e-04,-1.557928643e-03,-1.399527346e-03,1.622068384e-04,-1.237320508e-03,-1.084851329e-03,3.409717914e-04,-7.438795380e-04,-2.812334949e-04,-2.007785543e-04,-4.820120492e-04,-7.169115244e-04,1.668396622e-04,-5.500718622e-04,6.464110634e-04,-2.574970839e-04,3.889139796e-04,-1.189473182e-04,3.808941597e-04,2.619468415e-04,1.461525145e-05,-3.225144904e-04,-3.078992389e-04,4.297450421e-05,-6.808841989e-05,-2.511391568e-05
-9.2,-7.223525144e-04,3.509292501e-04,-3.714232643e-04,-1.070807578e-03,9.022665647e-05,-9.805809211e-04,-5.808424770e-04,-3.382334087e-05,-6.146658179e-04,-1.646811464e-04,6.640246976e-05,-9.827867668e-05,-2.525038437e-04,1.771561854e-04,-7.534765830e-05,-7.792842962e-04,3.825574338e-04,-3.967268623e-04,-6.632048573e-04,1.455911566e-04,-5.176137007e-04,-6.269656117e-04,5.745795799e-04,-5.238603179e-05,-3.489831720e-04,8.456009486e-05,-2.644230771e-04,-5.744913712e-04,3.245400550e-04,-2.499513162e-04,-4.671661094e-04,2.234090753e-04,-2.437570342e-04,-1.184907817e-03,4.447471162e-04,-7.401607005e-04,-1.269206721e-03,2.243688208e-04,-1.044837901e-03,-1.041004477e-03,2.671477921e-04,-7.738566850e-04,-1.899239440e-03,7.619946082e-04,-1.137244832e-03,-9.338760575e-04,3.177275687e-04,-6.161484888e-04,-6.733572939e-04,1.710147596e-04,-5.023425343e-04,-1.335887206e-03,3.595087230e-04,-9.763784828e-04,-3.307658862e-04,1.485027003e-04,-1.822631859e-04,-8.734829677e-04,3.366068493e-04,-5.368761185e-04,-5.718840034e-04,-1.265462379e-05,-5.845386272e-04,-7.755980103e-04,7.000217669e-05,-7.055958336e-04,-7.835164385e-04,-1.156882029e-04,-8.992046414e-04,-7.836687944e-04,1.933268303e-04,-5.903419640e-04,-1.101278149e-03,4.417580959e-04,-6.595200534e-04,-1.433719049e-03,5.099112746e-04,-9.238077745e-04,-1.456455652e-03,3.665597005e-04,-1.089895952e-03,-1.994464124e-03,5.012088524e-04,-1.493255271e-03,-1.323474672e-03,1.604790742e-04,-1.162995598e-03,-1.044083919e-03,3.411555669e-04,-7.029283518e-04,-2.015721788e-04,-2.150312045e-04,-4.166033833e-04,-6.628222853e-04,1.643073720e-04,-4.985149133e-04,6.651106551e-04,-2.267461666e-04,4.383644885e-04,-9.518300761e-05,3.823866416e-04,2.872036340e-04,3.312903942e-05,-2.926373924e-04,-2.595083530e-04,9.516448863e-05,-5.645483612e-05,3.870965251e-05
-9.1,-6.899864503e-04,3.447482056e-04,-3.452382446e-04,-1.033559260e-03,9.048086659e-05,-9.430783930e-04,-5.679714354e-04,-3.017674212e-05,-5.981481776e-04,-1.492110280e-04,6.943083815e-05,-7.978018990e-05,-2.219427714e-04,1.770454784e-04,-4.489729303e-05,-7.522249549e-04,4.034179001e-04,-3.488070548e-04,-6.015447112e-04,1.572744382e-04,-4.442702730e-04,-5.593247599e-04,5.762998427e-04,1.697508281e-05,-2.947821027e-04,9.188202533e-05,-2.029000774e-04,-5.090024344e-04,3.223789387e-04,-1.866234957e-04,-4.403930282e-04,2.232879049e-04,-2.171051233e-04,-1.164164942e-03,4.297994500e-04,-7.343654921e-04,-1.298155688e-03,2.881464874e-04,-1.010009201e-03,-9.837536667e-04,2.526549967e-04,-7.310986700e-04,-1.824519805e-03,7.355226117e-04,-1.088997193e-03,-8.791852362e-04,3.137262616e-04,-5.654589746e-04,-6.517410442e-04,2.019329849e-04,-4.498080593e-04,-1.284557271e-03,3.625026246e-04,-9.220546460e-04,-2.752406718e-04,1.441553325e-04,-1.310853394e-04,-8.033032408e-04,3.345415468e-04,-4.687616939e-04,-5.502976585e-04,-1.051046768e-05,-5.608081262e-04,-7.466438720e-04,6.744423006e-05,-6.791996420e-04,-7.693730805e-04,-1.139060114e-04,-8.832790919e-04,-7.500109264e-04,1.792042655e-04,-5.708066609e-04,-1.062081544e-03,4.410142894e-04,-6.210672551e-04,-1.391934972e-03,4.970785558e-04,-8.948564162e-04,-1.399461141e-03,3.835419314e-04,-1.015919209e-03,-1.915265083e-03,4.861535202e-04,-1.429111563e-03,-1.247565488e-03,1.581581945e-04,-1.089407294e-03,-1.001905280e-03,3.396599100e-04,-6.622453696e-04,-1.225485264e-04,-2.298508822e-04,-3.523994085e-04,-6.094496915e-04,1.612973059e-04,-4.481523855e-04,6.810088637e-04,-1.968868195e-04,4.841220441e-04,-7.480767700e-05,3.844219649e-04,3.096142879e-04,5.120720000e-05,-2.646004920e-04,-2.133932920e-04,1.437106354e-04,-4.438561332e-05,9.932502207e-05
-9,-6.572153502e-04,3.372503494e-04,-3.199650008e-04,-9.957975244e-04,8.995824370e-05,-9.058392807e-04,-5.550470818e-04,-2.685564475e-05,-5.819027266e-04,-1.347582406e-04,7.234374602e-05,-6.241449457e-05,-1.928532004e-04,1.765708826e-04,-1.628231777e-05,-7.252834266e-04,4.224991322e-04,-3.027842944e-04,-5.420709881e-04,1.686945019e-04,-3.733764863e-04,-4.910824662e-04,5.761836873e-04,8.510122112e-05,-2.420394928e-04,9.879620412e-05,-1.432432887e-04,-4.441612185e-04,3.198436205e-04,-1.243175980e-04,-4.136550653e-04,2.226244074e-04,-1.910306580e-04,-1.146112469e-03,4.163942494e-04,-7.297182199e-04,-1.329005409e-03,3.589359109e-04,-9.700694985e-04,-9.281492574e-04,2.385925369e-04,-6.895567205e-04,-1.752078034e-03,7.094220165e-04,-1.042656017e-03,-8.242501299e-04,3.080899113e-04,-5.161602187e-04,-6.323025282e-04,2.346016322e-04,-3.977008959e-04,-1.232128769e-03,3.642552774e-04,-8.678734912e-04,-2.209834754e-04,1.390795926e-04,-8.190388283e-05,-7.329443632e-04,3.313926760e-04,-4.015516872e-04,-5.286775208e-04,-8.582763932e-06,-5.372602847e-04,-7.175103891e-04,6.454485958e-05,-6.529655295e-04,-7.542201707e-04,-1.120993990e-04,-8.663195698e-04,-7.159947071e-04,1.649356987e-04,-5.510590084e-04,-1.023634471e-03,4.410676817e-04,-5.825667889e-04,-1.350269428e-03,4.838527158e-04,-8.664167121e-04,-1.343549093e-03,4.031947514e-04,-9.403543418e-04,-1.835855653e-03,4.702534198e-04,-1.365602233e-03,-1.171847831e-03,1.552048197e-04,-1.016643012e-03,-9.584248547e-04,3.364910316e-04,-6.219338231e-04,-4.407431928e-05,-2.453682737e-04,-2.894425929e-04,-5.569411615e-04,1.578209538e-04,-3.991202076e-04,6.940186444e-04,-1.681038097e-04,5.259148346e-04,-5.749656430e-05,3.868462115e-04,3.293496472e-04,6.900857063e-05,-2.385465081e-04,-1.695379375e-04,1.885338254e-04,-3.206427516e-05,1.564695502e-04
-8.9,-6.241535621e-04,3.284994107e-04,-2.956541514e-04,-9.575940342e-04,8.869140201e-05,-8.689026321e-04,-5.420307522e-04,-2.385059352e-05,-5.658813458e-04,-1.213051093e-04,7.514230039e-05,-4.616280892e-05,-1.652193644e-04,1.757407802e-04,1.052141583e-05,-6.984752224e-04,4.396488671e-04,-2.588263552e-04,-4.848765381e-04,1.798004227e-04,-3.050761154e-04,-4.224097563e-04,5.741919032e-04,1.517821468e-04,-1.908197204e-04,1.052781915e-04,-8.554152893e-05,-3.800622303e-04,3.169218594e-04,-6.314037085e-05,-3.869375616e-04,2.214262167e-04,-1.655113450e-04,-1.130591344e-03,4.045412199e-04,-7.260501240e-04,-1.360923538e-03,4.357222502e-04,-9.252012876e-04,-8.741741368e-04,2.250067548e-04,-6.491673820e-04,-1.682183636e-03,6.839043839e-04,-9.982792520e-04,-7.691541115e-04,3.008320243e-04,-4.683220872e-04,-6.153682325e-04,2.693303267e-04,-3.460379058e-04,-1.178774979e-03,3.648924990e-04,-8.138824797e-04,-1.680382300e-04,1.332229593e-04,-3.481527076e-05,-6.625719544e-04,3.272144221e-04,-3.353575324e-04,-5.069579628e-04,-6.857927925e-06,-5.138158907e-04,-6.881894237e-04,6.133547516e-05,-6.268539486e-04,-7.380291741e-04,-1.102606392e-04,-8.482898133e-04,-6.817316666e-04,1.506302055e-04,-5.311014611e-04,-9.858367193e-04,4.419038356e-04,-5.439328837e-04,-1.308766850e-03,4.703447020e-04,-8.384221480e-04,-1.288912982e-03,4.256583319e-04,-8.632546497e-04,-1.756419545e-03,4.535980313e-04,-1.302821514e-03,-1.096357887e-03,1.515881319e-04,-9.447697554e-04,-9.137588455e-04,3.316678739e-04,-5.820909716e-04,3.391545500e-05,-2.616984836e-04,-2.277830286e-04,-5.054366335e-04,1.538918082e-04,-3.515448253e-04,7.040752780e-04,-1.405576963e-04,5.635175817e-04,-4.287372010e-05,3.894796242e-04,3.466059041e-04,8.669477765e-05,-2.145859690e-04,-1.278911913e-04,2.295800924e-04,-1.967054463e-05,2.099095478e-04
-8.8,-5.909107737e-04,3.185670513e-04,-2.723437224e-04,-9.190191838e-04,8.671796339e-05,-8.323012204e-04,-5.288765244e-04,-2.115083902e-05,-5.500273635e-04,-1.088243986e-04,7.782548907e-05,-3.099890957e-05,-1.390139004e-04,1.745635286e-04,3.554962816e-05,-6.718267889e-04,4.547380981e-04,-2.170886908e-04,-4.300433835e-04,1.905407092e-04,-2.395026743e-04,-3.534948068e-04,5.703060880e-04,2.168112813e-04,-1.411813301e-04,1.113054270e-04,-2.987590311e-05,-3.168000802e-04,3.136024431e-04,-3.197637060e-06,-3.602234755e-04,2.197029680e-04,-1.405205075e-04,-1.117404201e-03,3.942094875e-04,-7.231947140e-04,-1.392997210e-03,5.173842341e-04,-8.756129757e-04,-8.218054956e-04,2.119417630e-04,-6.098637327e-04,-1.615068887e-03,6.591607349e-04,-9.559081524e-04,-7.139891093e-04,2.919772330e-04,-4.220118763e-04,-6.012338201e-04,3.063730754e-04,-2.948607447e-04,-1.124666118e-03,3.645291523e-04,-7.601369656e-04,-1.164459260e-04,1.265437415e-04,1.009781550e-05,-5.923582629e-04,3.220724561e-04,-2.702858067e-04,-4.850696368e-04,-5.321780702e-06,-4.903914175e-04,-6.586675152e-04,5.784711274e-05,-6.008204025e-04,-7.207720545e-04,-1.083832063e-04,-8.291552608e-04,-6.473213393e-04,1.363905758e-04,-5.109307635e-04,-9.485707907e-04,4.434869247e-04,-5.050838661e-04,-1.267456940e-03,4.566587477e-04,-8.107981922e-04,-1.235684435e-03,4.509824911e-04,-7.847019441e-04,-1.677132547e-03,4.362778952e-04,-1.240854652e-03,-1.021128139e-03,1.472869625e-04,-8.738411760e-04,-8.680321436e-04,3.252219185e-04,-5.428102252e-04,1.114380619e-04,-2.789265263e-04,-1.674884644e-04,-4.550706622e-04,1.495264506e-04,-3.055442116e-04,7.111343665e-04,-1.143859643e-04,5.967484023e-04,-3.053397932e-05,3.921292280e-04,3.615952487e-04,1.044251654e-04,-1.927989422e-04,-8.837377685e-05,2.668133545e-04,-7.374174102e-06,2.594391804e-04
-8.7,-5.575925497e-04,3.075321730e-04,-2.500603767e-04,-8.801435326e-04,8.408039261e-05,-7.960631400e-04,-5.155335372e-04,-1.874445591e-05,-5.342779932e-04,-9.728102046e-05,8.038996496e-05,-1.689105550e-05,-1.142004751e-04,1.730473441e-04,5.884686904e-05,-6.453730305e-04,4.676593672e-04,-1.777136633e-04,-3.776435539e-04,2.008637073e-04,-1.767798466e-04,-2.845441943e-04,5.645297510e-04,2.799855567e-04,-9.317852224e-05,1.168573352e-04,2.367881300e-05,-2.544712749e-04,3.098754330e-04,5.540415809e-05,-3.334960484e-04,2.174661744e-04,-1.160298740e-04,-1.106323008e-03,3.853321072e-04,-7.209909008e-04,-1.424251141e-03,6.027210717e-04,-8.215300696e-04,-7.710179223e-04,1.994380490e-04,-5.715798733e-04,-1.550927059e-03,6.353617150e-04,-9.155653438e-04,-6.588595726e-04,2.815645943e-04,-3.772949783e-04,-5.901449312e-04,3.459015952e-04,-2.442433360e-04,-1.069968183e-03,3.632663964e-04,-7.067017867e-04,-6.625349803e-05,1.190142465e-04,5.276074851e-05,-5.224821899e-04,3.160422677e-04,-2.064399222e-04,-4.629424558e-04,-3.959761095e-06,-4.669022169e-04,-6.289282293e-04,5.411012557e-05,-5.748181037e-04,-7.024232859e-04,-1.064617809e-04,-8.088850668e-04,-6.128521004e-04,1.223122263e-04,-4.905398741e-04,-9.117065169e-04,4.457599594e-04,-4.659465574e-04,-1.226356287e-03,4.428918586e-04,-7.834644287e-04,-1.183929574e-03,4.791173456e-04,-7.048122289e-04,-1.598163023e-03,4.183838927e-04,-1.179779130e-03,-9.461942138e-04,1.422912988e-04,-8.039029150e-04,-8.213796647e-04,3.171972692e-04,-5.041823955e-04,1.884426372e-04,-2.970931922e-04,-1.086505550e-04,-4.059740264e-04,1.447454702e-04,-2.612285562e-04,7.151708394e-04,-8.970553743e-05,6.254653019e-04,-2.006585537e-05,3.946021362e-04,3.745362809e-04,1.223536496e-04,-1.732406633e-04,-5.088701369e-05,3.002082777e-04,4.671260913e-06,3.048795386e-04
-8.6,-5.243004314e-04,2.954802817e-04,-2.288201497e-04,-8.410385464e-04,8.082578142e-05,-7.602127650e-04,-5.019476715e-04,-1.661848661e-05,-5.185661581e-04,-8.663332846e-05,8.282986843e-05,-3.803460027e-06,-9.073550520e-05,1.712001978e-04,8.046469257e-05,-6.191534876e-04,4.783235089e-04,-1.408299786e-04,-3.277394254e-04,2.107179212e-04,-1.170215042e-04,-2.157833045e-04,5.568888157e-04,3.411055112e-04,-4.686115813e-05,1.219154117e-04,7.505425354e-05,-1.931745100e-04,3.057323702e-04,1.125578602e-04,-3.067401676e-04,2.147291037e-04,-9.201106392e-05,-1.097095538e-03,3.778129786e-04,-7.192825591e-04,-1.453671293e-03,6.904806473e-04,-7.631906456e-04,-7.217839543e-04,1.875311670e-04,-5.342527872e-04,-1.489911601e-03,6.126599875e-04,-8.772516139e-04,-6.038853323e-04,2.696519688e-04,-3.342333635e-04,-5.822720585e-04,3.879801389e-04,-1.942919196e-04,-1.014841068e-03,3.611900774e-04,-6.536509906e-04,-1.752040638e-05,1.106235074e-04,9.310310100e-05,-4.531276184e-04,3.092076053e-04,-1.439200131e-04,-4.405067681e-04,-2.756979297e-06,-4.432637474e-04,-5.989531251e-04,5.015409875e-05,-5.487990264e-04,-6.829613032e-04,-1.044922003e-04,-7.874535034e-04,-5.784014397e-04,1.084823760e-04,-4.699190637e-04,-8.751052065e-04,4.486456554e-04,-4.264595511e-04,-1.185469740e-03,4.291337359e-04,-7.563360043e-04,-1.133648030e-03,5.099071059e-04,-6.237409246e-04,-1.519671041e-03,4.000067005e-04,-1.119664341e-03,-8.715990558e-04,1.366041646e-04,-7.349948912e-04,-7.739463182e-04,3.076508970e-04,-4.662954212e-04,2.647975070e-04,-3.161829417e-04,-5.138543471e-05,-3.582737209e-04,1.395739226e-04,-2.186997983e-04,7.161798080e-04,-6.661613462e-05,6.495636734e-04,-1.107257908e-05,3.967179570e-04,3.856453779e-04,1.406255931e-04,-1.559477932e-04,-1.532220018e-05,3.297436629e-04,1.633548439e-05,3.460791473e-04
-8.5,-4.911311847e-04,2.825027589e-04,-2.086284258e-04,-8.017761411e-04,7.700546792e-05,-7.247706732e-04,-4.880622904e-04,-1.475915330e-05,-5.028214437e-04,-7.683370374e-05,8.513670319e-05,8.302999454e-06,-6.856864064e-05,1.690296961e-04,1.004610555e-04,-5.932071735e-04,4.866554321e-04,-1.065517414e-04,-2.803832882e-04,2.200522948e-04,-6.033099342e-05,-1.474553157e-04,5.474311712e-04,3.999758555e-04,-2.273397037e-06,1.264632555e-04,1.241898585e-04,-1.330095198e-04,3.011664340e-04,1.681569142e-04,-2.799423274e-04,2.115066295e-04,-6.843569790e-05,-1.089448889e-03,3.715344488e-04,-7.179144405e-04,-1.480230042e-03,7.793844912e-04,-7.008455507e-04,-6.740723152e-04,1.762506249e-04,-4.978216904e-04,-1.432134551e-03,5.911924649e-04,-8.409420866e-04,-5.492025613e-04,2.563199172e-04,-2.928826441e-04,-5.776836473e-04,4.325449080e-04,-1.451387392e-04,-9.594355672e-04,3.583704086e-04,-6.010651586e-04,2.967815034e-05,1.013794559e-04,1.310576062e-04,-3.844804541e-04,3.016588690e-04,-8.282158502e-05,-4.176930499e-04,-1.698263312e-06,-4.193913132e-04,-5.687215955e-04,4.600784094e-05,-5.227137546e-04,-6.623694355e-04,-1.024714349e-04,-7.648408704e-04,-5.440357670e-04,9.497942274e-05,-4.490563443e-04,-8.386226212e-04,4.520475206e-04,-3.865751006e-04,-1.144791387e-03,4.154668743e-04,-7.293245125e-04,-1.084774168e-03,5.430873983e-04,-5.416867697e-04,-1.441805700e-03,3.812364807e-04,-1.060569220e-03,-7.973946675e-04,1.302432966e-04,-6.671513709e-04,-7.258856057e-04,2.966527365e-04,-4.292328692e-04,3.402879771e-04,-3.361162674e-04,4.171709694e-06,-3.120912265e-04,1.340412923e-04,-1.780499342e-04,7.141792084e-04,-4.520436564e-05,6.689748427e-04,-3.188731583e-06,3.983181398e-04,3.951294082e-04,1.593738783e-04,-1.409430963e-04,1.843078206e-05,3.553976159e-04,2.751824518e-05,3.829158611e-04
-8.4,-4.581754467e-04,2.686959680e-04,-1.894794788e-04,-7.624274121e-04,7.267452617e-05,-6.897528860e-04,-4.738184403e-04,-1.315213101e-05,-4.869705714e-04,-6.782870281e-05,8.729932330e-05,1.947062049e-05,-4.764258160e-05,1.665429575e-04,1.189003759e-04,-5.675673277e-04,4.925901677e-04,-7.497716000e-05,-2.356164747e-04,2.288165109e-04,-6.799963775e-06,-7.981871278e-05,5.362251005e-04,4.564063877e-04,4.054794458e-05,1.304865127e-04,1.710344572e-04,-7.407551319e-05,2.961725332e-04,2.220970200e-04,-2.530900495e-04,2.078150195e-04,-4.527502995e-05,-1.083089837e-03,3.663637581e-04,-7.167260789e-04,-1.502912926e-03,8.681495832e-04,-6.347633425e-04,-6.278456558e-04,1.656189129e-04,-4.622267429e-04,-1.377665115e-03,5.710808730e-04,-8.065842416e-04,-4.949628665e-04,2.416738534e-04,-2.532890131e-04,-5.763233549e-04,4.793920411e-04,-9.693131376e-05,-9.038907482e-04,3.548631152e-04,-5.490276330e-04,7.524994703e-05,9.131087213e-05,1.665608192e-04,-3.167256255e-04,2.934911315e-04,-2.323449399e-05,-3.944314601e-04,-7.683787469e-07,-3.951998388e-04,-5.382106534e-04,4.169927729e-05,-4.965113761e-04,-6.406367021e-04,-1.003976252e-04,-7.410343273e-04,-5.098103732e-04,8.187251026e-05,-4.279378630e-04,-8.021109522e-04,4.558508675e-04,-3.462600847e-04,-1.104305439e-03,4.019665468e-04,-7.023388918e-04,-1.037179645e-03,5.782861047e-04,-4.588935408e-04,-1.364701678e-03,3.621628407e-04,-1.002538837e-03,-7.236429430e-04,1.232417226e-04,-6.004012203e-04,-6.773576348e-04,2.842852941e-04,-3.930723407e-04,4.146234811e-04,-3.567477571e-04,5.787572392e-05,-2.675401689e-04,1.281811263e-04,-1.393590426e-04,7.092132844e-04,-2.554849267e-05,6.836647917e-04,3.907456995e-06,3.992716700e-04,4.031791270e-04,1.787143442e-04,-1.282381649e-04,5.047617928e-05,3.771449269e-04,3.815405054e-05,4.152989774e-04
-8.3,-4.255165292e-04,2.541602410e-04,-1.713562883e-04,-7.230615924e-04,6.789131129e-05,-6.551702811e-04,-4.591553315e-04,-1.178285484e-05,-4.709381863e-04,-5.955937989e-05,8.930405975e-05,2.974467986e-05,-2.789328590e-05,1.637465026e-04,1.358532167e-04,-5.422580837e-04,4.960705694e-04,-4.618751427e-05,-1.934687340e-04,2.369613221e-04,4.349258816e-05,-1.314372901e-05,5.233565245e-04,5.102127954e-04,8.157403464e-05,1.339727381e-04,2.155467727e-04,-1.647044308e-05,2.907473297e-04,2.742768866e-04,-2.261719307e-04,2.036716565e-04,-2.250027425e-05,-1.077703592e-03,3.621575292e-04,-7.155460633e-04,-1.520749591e-03,9.555113313e-04,-5.652382593e-04,-5.830599695e-04,1.556506446e-04,-4.274093249e-04,-1.326530271e-03,5.524303857e-04,-7.740998852e-04,-4.413310788e-04,2.258441623e-04,-2.154869165e-04,-5.779948431e-04,5.281752453e-04,-4.981959783e-05,-8.483335722e-04,3.507115869e-04,-4.976219853e-04,1.190842924e-04,8.046916473e-05,1.995534571e-04,-2.500453618e-04,2.848016273e-04,3.475626545e-05,-3.706526764e-04,4.757688541e-08,-3.706050995e-04,-5.073958018e-04,3.725523100e-05,-4.701405708e-04,-6.177588817e-04,-9.827015562e-05,-7.160290373e-04,-4.757701873e-04,6.922128008e-05,-4.065489072e-04,-7.654206955e-04,4.599238676e-04,-3.054968279e-04,-1.063987568e-03,3.887006491e-04,-6.752869191e-04,-9.906770377e-04,6.150282074e-04,-3.756488303e-04,-1.288476757e-03,3.428749887e-04,-9.456017679e-04,-6.504170269e-04,1.156467353e-04,-5.347702916e-04,-6.285276451e-04,2.706427296e-04,-3.578849155e-04,4.874496902e-04,-3.778685371e-04,1.095811530e-04,-2.247247177e-04,1.220304651e-04,-1.026942525e-04,7.013554611e-04,-7.723212595e-06,6.936322485e-04,1.048490554e-05,3.994779389e-04,4.099628444e-04,1.987404240e-04,-1.178345103e-04,8.090591370e-05,3.949564202e-04,4.821384098e-05,4.431702611e-04
-8.2,-3.932300561e-04,2.389988159e-04,-1.542312402e-04,-6.837461214e-04,6.271721687e-05,-6.210289046e-04,-4.440117243e-04,-1.063683840e-05,-4.546485627e-04,-5.196229650e-05,9.113495189e-05,3.917265539e-05,-9.251324616e-06,1.606461834e-04,1.513948588e-04,-5.172941708e-04,4.970471094e-04,-2.024706138e-05,-1.539583690e-04,2.444388966e-04,9.048052764e-05,5.229156911e-05,5.089252576e-04,5.612168267e-04,1.207830197e-04,1.369112586e-04,2.576942783e-04,3.970822160e-05,2.848892540e-04,3.245974756e-04,-1.991790346e-04,1.990947456e-04,-8.428895560e-08,-1.072953075e-03,3.587644590e-04,-7.141886157e-04,-1.532849590e-03,1.040250798e-03,-4.925987922e-04,-5.396665013e-04,1.463516537e-04,-3.933148475e-04,-1.278717857e-03,5.353269793e-04,-7.433908776e-04,-3.884821025e-04,2.089844045e-04,-1.794976980e-04,-5.823546884e-04,5.784106749e-04,-3.944013427e-06,-7.928811380e-04,3.459489635e-04,-4.469321745e-04,1.610497059e-04,6.892946971e-05,2.299791756e-04,-1.846194908e-04,2.756869311e-04,9.106744033e-05,-3.462906898e-04,7.637621485e-07,-3.455269277e-04,-4.762534922e-04,3.270121794e-05,-4.435522742e-04,-5.937400406e-04,-9.608973362e-05,-6.898297742e-04,-4.419515875e-04,5.707577588e-05,-3.848758116e-04,-7.284034137e-04,4.641189822e-04,-2.642844315e-04,-1.023807022e-03,3.757295154e-04,-6.480775071e-04,-9.450245734e-04,6.527446630e-04,-2.922799104e-04,-1.213231553e-03,3.234619330e-04,-8.897696196e-04,-5.778036767e-04,1.075173794e-04,-4.702862973e-04,-5.795658867e-04,2.558297691e-04,-3.237361177e-04,5.583611314e-04,-3.992095509e-04,1.591515805e-04,-1.837393209e-04,1.156291065e-04,-6.811021437e-05,6.907094551e-04,8.196562228e-06,6.989060173e-04,1.675293067e-05,3.988680490e-04,4.156209797e-04,2.195167979e-04,-1.097233195e-04,1.097934784e-04,4.087999291e-04,5.770336637e-05,4.665032955e-04
-8.1,-3.613846488e-04,2.233167362e-04,-1.380679126e-04,-6.445480003e-04,5.721660834e-05,-5.873313919e-04,-4.283283586e-04,-9.699968593e-06,-4.380283272e-04,-4.497140320e-05,9.277404439e-05,4.780264118e-05,8.355508913e-06,1.572471742e-04,1.656026831e-04,-4.926832525e-04,4.954790972e-04,2.795844623e-06,-1.170932579e-04,2.512031915e-04,1.341099336e-04,1.162048067e-04,4.930409060e-04,6.092457127e-04,1.581575401e-04,1.392931353e-04,2.974506754e-04,9.436135649e-05,2.785985780e-04,3.729599344e-04,-1.721076256e-04,1.941030879e-04,2.199546221e-05,-1.068479918e-03,3.560267946e-04,-7.124531230e-04,-1.538439177e-03,1.121223991e-03,-4.172151867e-04,-4.976152957e-04,1.377178067e-04,-3.598974890e-04,-1.234181437e-03,5.198346576e-04,-7.143467795e-04,-3.365970405e-04,1.912676202e-04,-1.453294203e-04,-5.889145094e-04,6.294873542e-04,4.057284481e-05,-7.376448985e-04,3.405995353e-04,-3.970453632e-04,2.009911964e-04,5.679056445e-05,2.577817609e-04,-1.206274085e-04,2.662401164e-04,1.456127079e-04,-3.212872661e-04,1.393268312e-06,-3.198939978e-04,-4.447648719e-04,2.806134526e-05,-4.167035266e-04,-5.685944238e-04,-9.385846291e-05,-6.624528867e-04,-4.083850995e-04,4.547646615e-05,-3.629086333e-04,-6.909157810e-04,4.682748743e-04,-2.226409068e-04,-9.837294261e-04,3.631057419e-04,-6.206236842e-04,-8.999327132e-04,6.907853952e-04,-2.091473180e-04,-1.139051513e-03,3.040125628e-04,-8.350389498e-04,-5.059062271e-04,9.892096914e-05,-4.069852579e-04,-5.306488892e-04,2.399608292e-04,-2.906880600e-04,6.269117444e-04,-4.204434199e-04,2.064683246e-04,-1.446697052e-04,1.090189168e-04,-3.565078847e-05,6.774084955e-04,2.213344399e-05,6.995419395e-04,2.285678826e-05,3.974060191e-04,4.202628074e-04,2.410723797e-04,-1.038834952e-04,1.371888845e-04,4.186426484e-04,6.665889560e-05,4.853015440e-04
-8,-3.300434018e-04,2.072196900e-04,-1.228237118e-04,-6.055359079e-04,5.145671087e-05,-5.540791970e-04,-4.120511195e-04,-8.958715188e-06,-4.210098347e-04,-3.852062700e-05,9.420175245e-05,5.568112545e-05,2.499878604e-05,1.535540590e-04,1.785528450e-04,-4.684296820e-04,4.913364648e-04,2.290678280e-05,-8.287257100e-05,2.572103963e-04,1.743378253e-04,1.783121141e-04,4.758191914e-04,6.541313056e-04,1.936815677e-04,1.411112454e-04,3.347928131e-04,1.473854585e-04,2.718775189e-04,4.192629774e-04,-1.449626039e-04,1.887159452e-04,4.375334122e-05,-1.063907396e-03,3.537814515e-04,-7.101259445e-04,-1.536893112e-03,1.197388231e-03,-3.395048802e-04,-4.568588047e-04,1.297335413e-04,-3.271252634e-04,-1.192845837e-03,5.059935800e-04,-6.868522566e-04,-2.858591448e-04,1.728808711e-04,-1.129782737e-04,-5.970540160e-04,6.806830022e-04,8.362898625e-05,-6.827365104e-04,3.346800522e-04,-3.480564582e-04,2.387281426e-04,4.417338103e-05,2.829015236e-04,-5.825038036e-05,2.565480566e-04,1.982976763e-04,-2.955969930e-04,1.947865615e-06,-2.936491274e-04,-4.129198911e-04,2.335830717e-05,-3.895615840e-04,-5.423484042e-04,-9.157988941e-05,-6.339282936e-04,-3.750985030e-04,3.445441251e-05,-3.406440905e-04,-6.528246250e-04,4.722187770e-04,-1.806058481e-04,-9.437199174e-04,3.508739734e-04,-5.928459440e-04,-8.550747311e-04,7.284381456e-04,-1.266365856e-04,-1.066010350e-03,2.846155464e-04,-7.813948033e-04,-4.348472052e-04,8.992938071e-05,-3.449178245e-04,-4.819611208e-04,2.231594062e-04,-2.588017146e-04,6.926236533e-04,-4.411872911e-04,2.514363622e-04,-1.075947684e-04,1.022435242e-04,-5.351244247e-06,6.616133508e-04,3.400667384e-05,6.956200246e-04,2.887603785e-05,3.950904948e-04,4.239665327e-04,2.633932043e-04,-1.002769720e-04,1.631162324e-04,4.244550586e-04,7.514099892e-05,4.995960575e-04
-7.9,-2.992655956e-04,1.908128153e-04,-1.084527803e-04,-5.667821390e-04,4.550716792e-05,-5.212749711e-04,-3.951343298e-04,-8.400211059e-06,-4.035345409e-04,-3.254667843e-05,9.539730230e-05,6.285062387e-05,4.074602521e-05,1.495710356e-04,1.903170608e-04,-4.445382363e-04,4.846016536e-04,4.006341733e-05,-5.128873969e-05,2.624194504e-04,2.111307107e-04,2.383305587e-04,4.573790434e-04,6.957096022e-04,2.273377446e-04,1.423604041e-04,3.696981487e-04,1.986705076e-04,2.647302801e-04,4.634007877e-04,-1.177605554e-04,1.829529555e-04,6.519240015e-05,-1.058844993e-03,3.518617485e-04,-7.069832445e-04,-1.527757454e-03,1.267822337e-03,-2.599351170e-04,-4.173541063e-04,1.223705251e-04,-2.949835813e-04,-1.154611442e-03,4.938190600e-04,-6.607923821e-04,-2.364501843e-04,1.540186620e-04,-8.243152227e-05,-6.060444235e-04,7.311843446e-04,1.251399212e-04,-6.282747513e-04,3.282018895e-04,-3.000728618e-04,2.740542707e-04,3.121794407e-05,3.052722148e-04,2.327340543e-06,2.466890947e-04,2.490164352e-04,-2.691914392e-04,2.437801869e-06,-2.667536373e-04,-3.807205631e-04,1.861346581e-05,-3.621070973e-04,-5.150420605e-04,-8.925897409e-05,-6.043010346e-04,-3.421196639e-04,2.403165641e-05,-3.180880075e-04,-6.140123658e-04,4.757694685e-04,-1.382428973e-04,-9.037460541e-04,3.390706258e-04,-5.646754283e-04,-8.101027915e-04,7.649543885e-04,-4.514840294e-05,-9.941737247e-04,2.653591147e-04,-7.288146100e-04,-3.647692146e-04,8.061587336e-05,-2.841533412e-04,-4.336955226e-04,2.055575279e-04,-2.281379947e-04,7.549963656e-04,-4.610107809e-04,2.939855847e-04,-7.258848483e-05,9.534835056e-05,2.275986573e-05,6.435098619e-04,4.373245355e-05,6.872423154e-04,3.482642858e-05,3.919561846e-04,4.267826132e-04,2.864161219e-04,-9.884131770e-05,1.875748042e-04,4.262171723e-04,8.322668170e-05,5.094438540e-04
-7.8,-2.691080302e-04,1.741995631e-04,-9.490846706e-05,-5.283634016e-04,3.943908197e-05,-4.889243196e-04,-3.775434343e-04,-8.012238926e-06,-3.855556733e-04,-2.699141972e-05,9.633921573e-05,6.934779600e-05,5.565814618e-05,1.453022012e-04,2.009603474e-04,-4.210164903e-04,4.752714856e-04,5.425499528e-05,-2.232906974e-05,2.667925631e-04,2.444634933e-04,2.959807245e-04,4.378403793e-04,7.338211037e-04,2.591062741e-04,1.430374447e-04,4.021437188e-04,2.480994621e-04,2.571629651e-04,5.052624272e-04,-9.053136111e-05,1.768340488e-04,8.630268771e-05,-1.052894106e-03,3.501001853e-04,-7.027939209e-04,-1.510761476e-03,1.331739176e-03,-1.790223003e-04,-3.790628675e-04,1.155869496e-04,-2.634759179e-04,-1.119354892e-03,4.833000829e-04,-6.360548093e-04,-1.885474708e-04,1.348766176e-04,-5.367085324e-05,-6.150795868e-04,7.801114931e-04,1.650319063e-04,-5.743913501e-04,3.211739829e-04,-2.532173672e-04,3.067413791e-04,1.807864913e-05,3.248200282e-04,6.091950943e-05,2.367313549e-04,2.976508643e-04,-2.420612048e-04,2.871713711e-06,-2.391894911e-04,-3.481824315e-04,1.384705635e-05,-3.343353751e-04,-4.867299954e-04,-8.690195439e-05,-5.736319497e-04,-3.094784122e-04,1.422183124e-05,-2.952565810e-04,-5.743821405e-04,4.787409943e-04,-9.564114619e-05,-8.637798346e-04,3.277235187e-04,-5.360563160e-04,-7.646673348e-04,7.995798512e-04,3.491251644e-05,-9.236018916e-04,2.463307544e-04,-6.772711372e-04,-2.958329077e-04,7.105281916e-05,-2.247800885e-04,-3.860518266e-04,1.872950607e-04,-1.987567659e-04,8.135176067e-04,-4.794491927e-04,3.340684140e-04,-3.972055459e-05,8.838049138e-05,4.865993679e-05,6.233060793e-04,5.122584891e-05,6.745319282e-04,4.066540767e-05,3.880736499e-04,4.287390576e-04,3.100244805e-04,-9.948164011e-05,2.105428404e-04,4.239279189e-04,9.100002346e-05,5.149279423e-04
-7.7,-2.396255509e-04,1.574806759e-04,-8.214487500e-05,-4.903599597e-04,3.332354223e-05,-4.570364175e-04,-3.592565717e-04,-7.783227930e-06,-3.670397997e-04,-2.180328234e-05,9.700578085e-05,7.520249851e-05,6.978830972e-05,1.407518150e-04,2.105401247e-04,-3.978751654e-04,4.633590846e-04,6.548391914e-05,4.023461218e-06,2.702956510e-04,2.743191122e-04,3.509895508e-04,4.173225463e-04,7.683120971e-04,2.889655712e-04,1.431412300e-04,4.321068012e-04,2.955495948e-04,2.491834139e-04,5.447330087e-04,-6.331801744e-05,1.703793589e-04,1.070613415e-04,-1.045654242e-03,3.483317769e-04,-6.973224650e-04,-1.485818009e-03,1.388489904e-03,-9.732810494e-05,-3.419493016e-04,1.093277983e-04,-2.326215033e-04,-1.086925271e-03,4.743963349e-04,-6.125289363e-04,-1.423214797e-04,1.156468580e-04,-2.667462170e-05,-6.233121795e-04,8.265480152e-04,2.032358357e-04,-5.212327209e-04,3.136052352e-04,-2.076274856e-04,3.365475654e-04,4.918208736e-06,3.414657742e-04,1.173409686e-04,2.267316778e-04,3.440726464e-04,-2.142156784e-04,3.256673342e-06,-2.109590050e-04,-3.153341690e-04,9.078508652e-06,-3.062556604e-04,-4.574812852e-04,-8.451612006e-05,-5.419974052e-04,-2.772072221e-04,5.030890996e-06,-2.721763311e-04,-5.338618474e-04,4.809469149e-04,-5.291493251e-05,-8.237983755e-04,3.168513494e-04,-5.069470260e-04,-7.184354129e-04,8.315851982e-04,1.131497852e-04,-8.543503783e-04,2.276166262e-04,-6.267337521e-04,-2.282123135e-04,6.131024572e-05,-1.669020678e-04,-3.392327352e-04,1.685187142e-04,-1.707140210e-04,8.676749364e-04,-4.960182776e-04,3.716566588e-04,-9.055225149e-06,8.138813311e-05,7.233290796e-05,6.012284750e-04,5.640490857e-05,6.576333836e-04,4.630133712e-05,3.835461874e-04,4.298475245e-04,3.340463656e-04,-1.020646494e-04,2.319817162e-04,4.176171586e-04,9.854212800e-05,5.161592866e-04
-7.6,-2.108707763e-04,1.407532359e-04,-7.011754036e-05,-4.528534063e-04,2.722980499e-05,-4.256236013e-04,-3.402651198e-04,-7.702330222e-06,-3.479674500e-04,-1.693771679e-05,9.737547040e-05,8.043775361e-05,8.318189524e-05,1.359244493e-04,2.191063445e-04,-3.751268600e-04,4.488957900e-04,7.376893004e-05,2.779017703e-05,2.728986947e-04,3.006888717e-04,4.030931787e-04,3.959433650e-04,7.990365436e-04,3.168937868e-04,1.426726129e-04,4.595663998e-04,3.408948012e-04,2.408010441e-04,5.816958452e-04,-3.617530653e-05,1.636091354e-04,1.274338289e-04,-1.036729339e-03,3.463969918e-04,-6.903323474e-04,-1.453014841e-03,1.437561926e-03,-1.545291568e-05,-3.059776695e-04,1.035260974e-04,-2.024515722e-04,-1.057137918e-03,4.670346740e-04,-5.901032437e-04,-9.793400025e-05,9.651537147e-05,-1.418628774e-06,-6.298919130e-04,8.695766718e-04,2.396847588e-04,-4.689565857e-04,3.055051433e-04,-1.634514425e-04,3.632287860e-04,-8.098919474e-06,3.551298665e-04,1.714117225e-04,2.167348752e-04,3.881465977e-04,-1.856815383e-04,3.598243608e-06,-1.820832947e-04,-2.822162132e-04,4.326741763e-06,-2.778894714e-04,-4.273788524e-04,-8.210958617e-05,-5.094884386e-04,-2.453411356e-04,-3.542160979e-06,-2.488832966e-04,-4.924066879e-04,4.822045734e-04,-1.020211451e-05,-7.837832756e-04,3.064629535e-04,-4.773203221e-04,-6.711056578e-04,8.602935472e-04,1.891878893e-04,-7.864688285e-04,2.093004974e-04,-5.771683311e-04,-1.620894868e-04,5.145495721e-05,-1.106345296e-04,-2.934391813e-04,1.493806097e-04,-1.440585716e-04,9.169671152e-04,-5.102274350e-04,4.067396802e-04,1.935092340e-05,7.441970196e-05,9.377062536e-05,5.775170251e-04,5.919700527e-05,6.367140304e-04,5.160534199e-05,3.785041812e-04,4.301095232e-04,3.582549200e-04,-1.064165668e-04,2.518383532e-04,4.073573664e-04,1.059218881e-04,5.132792545e-04
-7.5,-1.828935302e-04,1.241097319e-04,-5.878379831e-05,-4.159240617e-04,2.122339541e-05,-3.947006663e-04,-3.205738477e-04,-7.759545910e-06,-3.283333937e-04,-1.235720261e-05,9.742734050e-05,8.507013789e-05,9.587674670e-05,1.308250305e-04,2.267017772e-04,-3.527844056e-04,4.319329723e-04,7.914856668e-05,4.899693942e-05,2.745760869e-04,3.235730263e-04,4.520395939e-04,3.738184063e-04,8.258580002e-04,3.428699338e-04,1.416343677e-04,4.845043015e-04,3.840076150e-04,2.320267271e-04,6.160343421e-04,-9.168414966e-06,1.565436347e-04,1.473752197e-04,-1.025734338e-03,3.441435244e-04,-6.815908132e-04,-1.412603505e-03,1.478575747e-03,6.597224112e-05,-2.711111466e-04,9.810483847e-05,-1.730063081e-04,-1.029769110e-03,4.611066558e-04,-5.686624542e-04,-5.553707662e-05,7.766060446e-05,2.212352784e-05,-6.340018679e-04,9.083161322e-04,2.743142643e-04,-4.177257669e-04,2.968828272e-04,-1.208429397e-04,3.865508812e-04,-2.081269308e-05,3.657381881e-04,2.229604050e-04,2.067731440e-04,4.297335490e-04,-1.565014330e-04,3.900379133e-06,-1.526010538e-04,-2.488796351e-04,-3.897406331e-07,-2.492693758e-04,-3.965187190e-04,-7.969112311e-05,-4.762098421e-04,-2.139177143e-04,-1.150455240e-05,-2.254222667e-04,-4.500005446e-04,4.823389906e-04,3.233844604e-05,-7.437192335e-04,2.965563986e-04,-4.471628349e-04,-6.224201535e-04,8.851021885e-04,2.626820350e-04,-7.199992400e-04,1.914621944e-04,-5.285370456e-04,-9.765074336e-05,4.155026186e-05,-5.610048149e-05,-2.488661309e-04,1.300363432e-04,-1.188297877e-04,9.609155986e-04,-5.215918889e-04,4.393237098e-04,4.545080282e-05,6.752307095e-05,1.129738738e-04,5.524199402e-04,5.954601874e-05,6.119659589e-04,5.642205788e-05,3.730996037e-04,4.295216616e-04,3.823700147e-04,-1.123245753e-04,2.700454394e-04,3.932710645e-04,1.131884540e-04,5.064595186e-04
-7.4,-1.557406638e-04,1.076371920e-04,-4.810347180e-05,-3.796490977e-04,1.536443675e-05,-3.642846609e-04,-3.002013575e-04,-7.945811361e-06,-3.081471689e-04,-8.031485422e-06,9.714149284e-05,8.911000742e-05,1.079028673e-04,1.254588425e-04,2.333617098e-04,-3.308601032e-04,4.125439556e-04,8.168385232e-05,6.767411587e-05,2.753070041e-04,3.429811199e-04,4.975908985e-04,3.510601867e-04,8.486510853e-04,3.668738603e-04,1.400311110e-04,5.069049713e-04,4.247601626e-04,2.228726599e-04,6.476328225e-04,1.762772318e-05,1.492029677e-04,1.668306909e-04,-1.012302525e-03,3.414269487e-04,-6.708755766e-04,-1.364989967e-03,1.511283698e-03,1.462937314e-04,-2.373129175e-04,9.297914330e-05,-1.443337742e-04,-1.004553091e-03,4.564673030e-04,-5.480857882e-04,-1.527290739e-05,5.925232358e-05,4.397941620e-05,-6.348902282e-04,9.419530534e-04,3.070628252e-04,-3.677024749e-04,2.877458559e-04,-7.995661895e-05,4.062995178e-04,-3.307281282e-05,3.732267050e-04,2.718260064e-04,1.968657799e-04,4.686917864e-04,-1.267337300e-04,4.165179637e-06,-1.225685504e-04,-2.153859613e-04,-5.052973251e-06,-2.204389345e-04,-3.650094563e-04,-7.727002545e-05,-4.422794818e-04,-1.829775454e-04,-1.886895457e-05,-2.018465000e-04,-4.066570485e-04,4.811863327e-04,7.452928423e-05,-7.035927414e-04,2.871181279e-04,-4.164746136e-04,-5.721733489e-04,9.054962247e-04,3.333228758e-04,-6.549749156e-04,1.741757109e-04,-4.807992047e-04,-3.508536553e-05,3.165641729e-05,-3.428948236e-06,-2.056997161e-04,1.106426008e-04,-9.505711534e-05,9.990765348e-04,-5.296466713e-04,4.694298635e-04,6.920724866e-05,6.074493847e-05,1.299521871e-04,5.261887202e-04,5.741859803e-05,5.836073182e-04,6.057654900e-05,3.675022381e-04,4.280787871e-04,4.060612062e-04,-1.195405959e-04,2.865206103e-04,3.755323794e-04,1.203648381e-04,4.958972175e-04
-7.3,-1.294566880e-04,9.141648290e-05,-3.804020512e-05,-3.441019492e-04,9.706416204e-06,-3.343955330e-04,-2.791810830e-04,-8.253005517e-06,-2.874340885e-04,-3.938356581e-06,9.649962555e-05,9.256126897e-05,1.192813092e-04,1.198315439e-04,2.391128531e-04,-3.093661281e-04,3.908260608e-04,8.145993269e-05,8.385607638e-05,2.750757657e-04,3.589318420e-04,5.395249082e-04,3.277774385e-04,8.673023467e-04,3.888851075e-04,1.378692454e-04,5.267543528e-04,4.630240643e-04,2.133522132e-04,6.763762775e-04,4.412820862e-05,1.416069363e-04,1.857351449e-04,-9.960942217e-04,3.381112291e-04,-6.579829926e-04,-1.310725332e-03,1.535567292e-03,2.248419595e-04,-2.045491656e-04,8.805845894e-05,-1.164907067e-04,-9.811814486e-04,4.529345202e-04,-5.282469284e-04,2.272598921e-05,4.144990316e-05,6.417589237e-05,-6.318976864e-04,9.697677507e-04,3.378700644e-04,-3.190447105e-04,2.780999294e-04,-4.094478107e-05,4.222873828e-04,-4.474336624e-05,3.775440165e-04,3.178577909e-04,1.870194043e-04,5.048771952e-04,-9.645338417e-05,4.392667484e-06,-9.206071669e-05,-1.818079620e-04,-9.645727609e-06,-1.914536896e-04,-3.329718554e-04,-7.485596307e-05,-4.078278184e-04,-1.525653492e-04,-2.565256702e-05,-1.782179162e-04,-3.624210077e-04,4.785971000e-04,1.161760923e-04,-6.633915174e-04,2.781224664e-04,-3.852690510e-04,-5.202177546e-04,9.210545779e-04,4.008368233e-04,-5.914206135e-04,1.575070505e-04,-4.339135629e-04,2.541428193e-05,2.183137123e-05,4.724565316e-05,-1.641156021e-04,9.135445815e-05,-7.276114396e-05,1.031051468e-03,-5.339634023e-04,4.970880654e-04,9.059203295e-05,5.413028329e-05,1.447223162e-04,4.990728938e-04,5.280921181e-05,5.518821056e-04,6.387915914e-05,3.618955080e-04,4.257746671e-04,4.289526190e-04,-1.277868386e-04,3.011657805e-04,3.543643404e-04,1.274419253e-04,4.818062657e-04
-7.2,-1.040851233e-04,7.552180058e-05,-2.856332268e-05,-3.093528410e-04,4.295434373e-06,-3.050574066e-04,-2.575626261e-04,-8.673888156e-06,-2.662365143e-04,-6.479801652e-08,9.548559250e-05,9.542079448e-05,1.300225828e-04,1.139492181e-04,2.439718009e-04,-2.883153350e-04,3.669020580e-04,7.858672298e-05,9.758036818e-05,2.738721517e-04,3.714525199e-04,5.776358290e-04,3.040749059e-04,8.817107349e-04,4.088812996e-04,1.351569764e-04,5.440382760e-04,4.986698892e-04,2.034798142e-04,7.021497034e-04,7.023751419e-05,1.337749407e-04,2.040124549e-04,-9.768063442e-04,3.340700719e-04,-6.427362723e-04,-1.250492347e-03,1.551428260e-03,3.009359133e-04,-1.727927838e-04,8.324889139e-05,-8.954389245e-05,-9.593053627e-04,4.502895732e-04,-5.090157895e-04,5.833747806e-05,2.439969272e-05,8.273717078e-05,-6.244816564e-04,9.911544439e-04,3.666727874e-04,-2.719045082e-04,2.679495587e-04,-3.954949520e-06,4.343592740e-04,-5.570681533e-05,3.786524587e-04,3.609143228e-04,1.772288400e-04,5.381431628e-04,-6.575318970e-05,4.580737767e-06,-6.117245193e-05,-1.482307911e-04,-1.415163328e-05,-1.623824244e-04,-3.005385733e-04,-7.245879221e-05,-3.729973655e-04,-1.227313085e-04,-3.187610666e-05,-1.546074152e-04,-3.173701920e-04,4.744391631e-04,1.570689711e-04,-6.231049085e-04,2.695316807e-04,-3.535732278e-04,-4.664677309e-04,9.314521820e-04,4.649844511e-04,-5.293536984e-04,1.415119498e-04,-3.878417486e-04,8.365343600e-05,1.213084485e-05,9.578428086e-05,-1.242778005e-04,7.232249349e-05,-5.195530697e-05,1.056494836e-03,-5.341677537e-04,5.223270821e-04,1.095843882e-04,4.772179243e-05,1.573061807e-04,4.713132694e-04,4.574532882e-05,5.170585983e-04,6.613075865e-05,3.564692104e-04,4.225999691e-04,4.506302970e-04,-1.367630949e-04,3.138672021e-04,3.300343722e-04,1.343734354e-04,4.644078077e-04
-7.1,-7.967000298e-05,6.002029568e-05,-1.964970730e-05,-2.754697218e-04,-8.301011022e-07,-2.762998229e-04,-2.354128586e-04,-9.201991355e-06,-2.446148500e-04,3.592015489e-06,9.408586701e-05,9.767788250e-05,1.401252823e-04,1.078184763e-04,2.479437586e-04,-2.677218063e-04,3.409205304e-04,7.319872414e-05,1.088869488e-04,2.716916966e-04,3.805786455e-04,6.117342468e-04,2.800539352e-04,8.917881820e-04,4.268370605e-04,1.319044344e-04,5.587414950e-04,5.315671017e-04,1.932709336e-04,7.248380352e-04,9.584923157e-05,1.257260125e-04,2.215752441e-04,-9.541810675e-04,3.291892405e-04,-6.249918270e-04,-1.185087232e-03,1.558973080e-03,3.738858483e-04,-1.420262236e-04,7.845583422e-05,-6.357038939e-05,-9.385412506e-04,4.482796801e-04,-4.902615706e-04,9.145213078e-05,8.232141318e-06,9.968427210e-05,-6.122358971e-04,1.005636077e-03,3.934001798e-04,-2.264269297e-04,2.572995753e-04,3.087264567e-05,4.423959153e-04,-6.586686565e-05,3.765290497e-04,4.008629962e-04,1.674786896e-04,5.683416859e-04,-3.474414789e-05,4.725277103e-06,-3.001887078e-05,-1.147524284e-04,-1.855518508e-05,-1.333076135e-04,-2.678533554e-04,-7.008834658e-05,-3.379417020e-04,-9.353196436e-05,-3.756281692e-05,-1.310947813e-04,-2.716167480e-04,4.686005749e-04,1.969838269e-04,-5.827249966e-04,2.612965687e-04,-3.214284279e-04,-4.109034900e-04,9.364622050e-04,5.255587150e-04,-4.687858636e-04,1.262339400e-04,-3.425519236e-04,1.394382237e-04,2.607118386e-06,1.420453421e-04,-8.633680084e-05,5.368985758e-05,-3.264694326e-05,1.075120073e-03,-5.299553107e-04,5.451647627e-04,1.261702785e-04,4.155935488e-05,1.677296334e-04,4.431339151e-04,3.629377389e-05,4.794276889e-04,6.712796693e-05,3.514091922e-04,4.185371591e-04,4.706519268e-04,-1.461548642e-04,3.244970626e-04,3.028494749e-04,1.410729072e-04,4.439223821e-04
-7,-5.625677469e-05,4.497178016e-05,-1.128499453e-05,-2.425187321e-04,-5.639396913e-06,-2.481581290e-04,-2.128160916e-04,-9.831464545e-06,-2.226475562e-04,7.024443755e-06,9.228987285e-05,9.931431660e-05,1.495757227e-04,1.014466357e-04,2.510223584e-04,-2.476014955e-04,3.130557927e-04,6.545429717e-05,1.178179509e-04,2.685359649e-04,3.863539158e-04,6.416471296e-04,2.558137563e-04,8.974608859e-04,4.427243477e-04,1.281238490e-04,5.708481967e-04,5.615853673e-04,1.827421492e-04,7.443275165e-04,1.208471060e-04,1.174789229e-04,2.383260289e-04,-9.280116332e-04,3.233691330e-04,-6.046425002e-04,-1.115398715e-03,1.558394504e-03,4.429957884e-04,-1.122423261e-04,7.358692761e-05,-3.865539844e-05,-9.184786288e-04,4.466226799e-04,-4.718559490e-04,1.219776638e-04,-6.940393670e-06,1.150372702e-04,-5.949023043e-04,1.012872475e-03,4.179701710e-04,-1.827483205e-04,2.461570454e-04,6.340872494e-05,4.463173141e-04,-7.514973622e-05,3.711675779e-04,4.375811815e-04,1.577454980e-04,5.953266795e-04,-3.553892957e-06,4.820353203e-06,1.266460245e-06,-8.148254765e-05,-2.284169814e-05,-1.043242458e-04,-2.350695005e-04,-6.775422704e-05,-3.028237276e-04,-6.503008015e-05,-4.273760249e-05,-1.077676826e-04,-2.253072064e-04,4.609918976e-04,2.356846912e-04,-5.422475992e-04,2.533574120e-04,-2.888901872e-04,-3.535753728e-04,9.359588898e-04,5.823835170e-04,-4.097245594e-04,1.117032483e-04,-2.980213110e-04,1.925816719e-04,-6.693220944e-06,1.858884510e-04,-5.042631443e-05,3.558952267e-05,-1.483679175e-05,1.086707749e-03,-5.211045219e-04,5.656032273e-04,1.403431743e-04,3.567981227e-05,1.760229865e-04,4.147349050e-04,2.456735043e-05,4.393022555e-04,6.666819575e-05,3.468857106e-04,4.135539064e-04,4.885582526e-04,-1.556402801e-04,3.329179725e-04,2.731523238e-04,1.474127537e-04,4.205650776e-04
-6.9,-3.389212127e-05,3.042855137e-05,-3.463569904e-06,-2.105636063e-04,-1.010892444e-05,-2.206725308e-04,-1.898728786e-04,-1.055688476e-05,-2.004297634e-04,1.021519708e-05,9.009019380e-05,1.003053909e-04,1.583490306e-04,9.484195016e-05,2.531909807e-04,-2.279736077e-04,2.835082324e-04,5.553462471e-05,1.244182854e-04,2.644127369e-04,3.888310223e-04,6.672184127e-04,2.314531208e-04,8.986715335e-04,4.565143571e-04,1.238296610e-04,5.803440181e-04,5.885974013e-04,1.719111851e-04,7.605085864e-04,1.451076217e-04,1.090522541e-04,2.541598758e-04,-8.981448923e-04,3.165267423e-04,-5.816181500e-04,-1.042383995e-03,1.549952758e-03,5.075687629e-04,-8.344320742e-05,6.855524478e-05,-1.488796264e-05,-8.986880917e-04,4.450127704e-04,-4.536753213e-04,1.498454172e-04,-2.102503892e-05,1.288203783e-04,-5.723744825e-04,1.012662088e-03,4.402876052e-04,-1.409925562e-04,2.345326642e-04,9.354010795e-05,4.460862353e-04,-8.350386659e-05,3.625823687e-04,4.709589814e-04,1.480001852e-04,6.189591666e-04,2.767671828e-05,4.858444304e-06,3.253516258e-05,-4.853987308e-05,-2.699726175e-05,-7.553713483e-05,-2.023475836e-04,-6.546559354e-05,-2.678131772e-04,-3.729345200e-05,-4.742630175e-05,-8.471975375e-05,-1.786203946e-04,4.515478238e-04,2.729274292e-04,-5.016723228e-04,2.456451257e-04,-2.560271971e-04,-2.946059682e-04,9.299184162e-04,6.353124480e-04,-3.521729402e-04,9.793648368e-05,-2.542364565e-04,2.429105441e-04,-1.573151686e-05,2.271790273e-04,-1.665915120e-05,1.814199157e-05,1.482840374e-06,1.091114478e-03,-5.074842666e-04,5.836302118e-04,1.521062464e-04,3.011699395e-05,1.822232403e-04,3.862878395e-04,1.072933719e-05,3.970171767e-04,6.455685874e-05,3.430420010e-04,4.075988598e-04,5.038853756e-04,-1.648944685e-04,3.389909070e-04,2.413191924e-04,1.532247713e-04,3.945439637e-04
-6.8,-1.262285829e-05,1.643540347e-05,3.812545177e-06,-1.796640538e-04,-1.422199691e-05,-1.938860507e-04,-1.666976665e-04,-1.137307698e-05,-1.780707434e-04,1.313910137e-05,8.748265619e-05,1.006217576e-04,1.664113359e-04,8.801380458e-05,2.544251405e-04,-2.088625519e-04,2.525049792e-04,4.364242727e-05,1.287369416e-04,2.593360080e-04,3.880729496e-04,6.883102293e-04,2.070719068e-04,8.953821361e-04,4.681801598e-04,1.190385023e-04,5.872186620e-04,6.124825619e-04,1.607968690e-04,7.732794309e-04,1.685034658e-04,1.004643749e-04,2.689678407e-04,-8.644821888e-04,3.085965332e-04,-5.558856556e-04,-9.670402866e-04,1.533957257e-03,5.669169703e-04,-5.563837944e-05,6.328241735e-05,7.644037910e-06,-8.787289720e-04,4.431270751e-04,-4.356018969e-04,1.750170426e-04,-3.394933507e-05,1.410677075e-04,-5.446971300e-04,1.004939658e-03,4.602425277e-04,-1.012657110e-04,2.224409499e-04,1.211752388e-04,4.417113970e-04,-9.089858493e-05,3.508128121e-04,5.009022452e-04,1.382104992e-04,6.391127444e-04,5.879752697e-05,4.830785098e-06,6.362831207e-05,-1.604909357e-05,-3.100867711e-05,-4.705777068e-05,-1.698528257e-04,-6.323097021e-05,-2.330837959e-04,-1.039329578e-05,-5.165505342e-05,-6.204834920e-05,-1.317634821e-04,4.402281194e-04,3.084646373e-04,-4.610017285e-04,2.380825935e-04,-2.229191350e-04,-2.341874505e-04,9.184144557e-04,6.842270052e-04,-2.961280909e-04,8.493652895e-05,-2.111915619e-04,2.902703056e-04,-2.447806091e-05,2.657922447e-04,1.487623278e-05,1.453649992e-06,1.632988277e-05,1.088276263e-03,-4.890523507e-04,5.992239126e-04,1.614751305e-04,2.490186858e-05,1.863769991e-04,3.579343452e-04,-5.006282103e-06,3.529280631e-04,6.061853999e-05,3.399840116e-04,4.006025516e-04,5.161777755e-04,-1.735925696e-04,3.425852059e-04,2.077584046e-04,1.583026756e-04,3.660610801e-04
-6.7,7.505433080e-06,3.029822257e-06,1.053525534e-05,-1.498737425e-04,-1.796848152e-05,-1.678422240e-04,-1.434160529e-04,-1.227497823e-05,-1.556910311e-04,1.576522325e-05,8.446626368e-05,1.002314869e-04,1.737221075e-04,8.097279776e-05,2.546949052e-04,-1.902999091e-04,2.203002355e-04,3.000032646e-05,1.308284309e-04,2.533257971e-04,3.841542280e-04,7.048045853e-04,1.827723879e-04,8.875769732e-04,4.776988168e-04,1.137690823e-04,5.914678992e-04,6.331299458e-04,1.494190313e-04,7.825489771e-04,1.909067109e-04,9.173337433e-05,2.826400853e-04,-8.269805966e-04,2.995300419e-04,-5.274505546e-04,-8.903734122e-04,1.510749433e-03,6.203760209e-04,-2.884350567e-05,5.770135502e-05,2.885784935e-05,-8.581581428e-04,4.406339962e-04,-4.175241466e-04,1.974883535e-04,-4.566175320e-05,1.518266003e-04,-5.120652464e-04,9.897719057e-04,4.777066594e-04,-6.365145967e-05,2.098993799e-04,1.462479202e-04,4.332490766e-04,-9.732229371e-05,3.359267829e-04,5.273341250e-04,1.283433771e-04,6.556775022e-04,8.965203316e-05,4.727843961e-06,9.437987713e-05,1.586145365e-05,-3.486337291e-05,-1.900191926e-05,-1.377526158e-04,-6.105808871e-05,-1.988107045e-04,1.559703422e-05,-5.544974232e-05,-3.985270810e-05,-8.496717082e-05,4.270180694e-04,3.420508986e-04,-4.202405867e-04,2.305862499e-04,-1.896543368e-04,-1.725732655e-04,9.016070855e-04,7.290338200e-04,-2.415790168e-04,7.269228640e-05,-1.688867304e-04,3.345269986e-04,-3.291159880e-05,3.016153998e-04,4.411722022e-05,-1.438434482e-05,2.973287539e-05,1.078202086e-03,-4.658438031e-04,6.123582830e-04,1.684801659e-04,2.006256392e-05,1.885427298e-04,3.297864466e-04,-2.237951377e-05,3.074069329e-04,5.471102040e-05,3.377715945e-04,3.924826149e-04,5.250021875e-04,-1.814141848e-04,3.435880027e-04,1.729061318e-04,1.624084840e-04,3.353146158e-04
-6.6,2.644935294e-05,-9.757690105e-06,1.669166284e-05,-1.212385689e-04,-2.134476833e-05,-1.425833372e-04,-1.201624075e-04,-1.325751371e-05,-1.334199212e-04,1.805868817e-05,8.104301761e-05,9.910170579e-05,1.802357788e-04,7.373073038e-05,2.539665092e-04,-1.723262573e-04,1.871746943e-04,1.484843697e-05,1.307537915e-04,2.464078642e-04,3.771616557e-04,7.166053531e-04,1.586599705e-04,8.752653236e-04,4.850521665e-04,1.080420640e-04,5.930942305e-04,6.504401403e-04,1.377983848e-04,7.882385250e-04,2.121908563e-04,8.287703003e-05,2.950678863e-04,-7.856549261e-04,2.892941095e-04,-4.963608166e-04,-8.133679655e-04,1.480687579e-03,6.673196134e-04,-3.080624531e-06,5.175834135e-05,4.867771682e-05,-8.365409682e-04,4.372038914e-04,-3.993370769e-04,2.172884870e-04,-5.613160599e-05,1.611568810e-04,-4.748231161e-04,9.673518928e-04,4.925287767e-04,-2.820916068e-05,1.969267605e-04,1.687175999e-04,4.208017335e-04,-1.027802282e-04,3.180215053e-04,5.501943540e-04,1.183670784e-04,6.685614324e-04,1.200787504e-04,4.539781326e-06,1.246185317e-04,4.706077399e-05,-3.854937080e-05,8.511403191e-06,-1.062145150e-04,-5.895378305e-05,-1.651682980e-04,4.060260106e-05,-5.883550764e-05,-1.823290658e-05,-3.848106908e-05,4.119285341e-04,3.734474650e-04,-3.793959919e-04,2.230677638e-04,-1.563282281e-04,-1.100657555e-04,8.797275259e-04,7.696617704e-04,-1.885063824e-04,6.117854972e-05,-1.273278327e-04,3.755668665e-04,-4.101810349e-05,3.345487630e-04,7.102628766e-05,-2.929693140e-05,4.172935625e-05,1.060960325e-03,-4.379527168e-04,6.230076083e-04,1.731673646e-04,1.562405472e-05,1.887914193e-04,3.019278204e-04,-4.109313417e-05,2.608346862e-04,4.673859798e-05,3.364112802e-04,3.831498781e-04,5.299614738e-04,-1.880506899e-04,3.419107839e-04,1.372176787e-04,1.652834573e-04,3.025011360e-04
-6.5,4.416785276e-05,-2.190316742e-05,2.226468534e-05,-9.379564108e-05,-2.435397457e-05,-1.181496157e-04,-9.707820235e-05,-1.431541433e-05,-1.113936167e-04,1.998178324e-05,7.721772782e-05,9.719951106e-05,1.859023846e-04,6.630058822e-05,2.522029728e-04,-1.549925881e-04,1.534331435e-04,-1.559444546e-06,1.285808668e-04,2.386134262e-04,3.671942931e-04,7.236404456e-04,1.348432243e-04,8.584836699e-04,4.902262605e-04,1.018799751e-04,5.921062356e-04,6.643255576e-04,1.259563901e-04,7.902819477e-04,2.322315484e-04,7.391283234e-05,3.061443807e-04,-7.405797532e-04,2.778685470e-04,-4.627112062e-04,-7.369636989e-04,1.444134719e-03,7.071710205e-04,2.162024955e-05,4.541433380e-05,6.703458335e-05,-8.134639181e-04,4.325211559e-04,-3.809427621e-04,2.344746379e-04,-6.534814100e-05,1.691264969e-04,-4.334600943e-04,9.379920601e-04,5.045319658e-04,5.025257039e-06,1.835409611e-04,1.885662181e-04,4.045128673e-04,-1.072912797e-04,2.972215876e-04,5.694365134e-04,1.082530195e-04,6.776895329e-04,1.499111602e-04,4.256749365e-06,1.541679096e-04,7.741505877e-05,-4.205537799e-05,3.535968078e-05,-7.540479235e-05,-5.692391030e-05,-1.323287027e-04,6.454669590e-05,-6.183621474e-05,2.710481154e-06,7.430317471e-06,3.949955597e-04,4.024258772e-04,-3.384783283e-04,2.154355577e-04,-1.230427706e-04,-4.700333052e-05,8.530638513e-04,8.060605208e-04,-1.368847905e-04,5.035644104e-05,-8.652834949e-05,4.132947791e-04,-4.878929303e-05,3.645054861e-04,9.558851745e-05,-4.322587767e-05,5.236263979e-05,1.036663880e-03,-4.055134034e-04,6.311504770e-04,1.755979813e-04,1.160747852e-05,1.872054598e-04,2.744153320e-04,-6.082381989e-05,2.135915121e-04,3.665962702e-05,3.358519633e-04,3.725115903e-04,5.307069547e-04,-1.932149459e-04,3.374920088e-04,1.011553332e-04,1.666620247e-04,2.678173579e-04
-6.4,6.062168477e-05,-3.338859501e-05,2.723308976e-05,-6.757317642e-05,-2.700619642e-05,-9.457937284e-05,-7.431095256e-05,-1.544294538e-05,-8.975389794e-05,2.149431821e-05,7.299791019e-05,9.449222840e-05,1.906674737e-04,5.869658410e-05,2.493640578e-04,-1.383606125e-04,1.193991897e-04,-1.896142275e-05,1.243839354e-04,2.299788820e-04,3.543628174e-04,7.258638058e-04,1.114331313e-04,8.372969371e-04,4.932100566e-04,9.530716461e-05,5.885172213e-04,6.747099121e-04,1.139151110e-04,7.886250231e-04,2.509064199e-04,6.485804477e-05,3.157644647e-04,-6.918910023e-04,2.652449621e-04,-4.266460402e-04,-6.620400354e-04,1.401450580e-03,7.394105444e-04,4.521912200e-05,3.864534247e-05,8.386446447e-05,-7.885474146e-04,4.262960578e-04,-3.622513568e-04,2.491236077e-04,-7.331869269e-05,1.758049150e-04,-3.885995231e-04,9.021143548e-04,5.135148318e-04,3.603618270e-05,1.697567627e-04,2.057929454e-04,3.845586173e-04,-1.108836601e-04,2.736749572e-04,5.850242693e-04,9.797749358e-05,6.830017629e-04,1.789769816e-04,3.869096300e-06,1.828460779e-04,1.067870253e-04,-4.537096180e-05,6.141606345e-05,-4.548729045e-05,-5.497324233e-05,-1.004605328e-04,8.735018982e-05,-6.447379116e-05,2.287639866e-05,5.249118228e-05,3.762793762e-04,4.287705585e-04,-2.975027602e-04,2.075961044e-04,-8.990665579e-05,1.624977632e-05,8.219509358e-04,8.382007121e-04,-8.668696009e-05,4.017451510e-05,-4.651244499e-05,4.476318268e-04,-5.622046805e-05,3.914113588e-04,1.178082280e-04,-5.613022429e-05,6.167800375e-05,1.005458719e-03,-3.686851776e-04,6.367735413e-04,1.758472033e-04,8.029124517e-06,1.838763279e-04,2.472801574e-04,-8.123354675e-05,1.660466106e-04,2.448449917e-05,3.359855486e-04,3.604700478e-04,5.269485533e-04,-1.966523499e-04,3.302962035e-04,6.517518893e-05,1.662863577e-04,2.314615466e-04
-6.3,7.577254078e-05,-4.420122911e-05,3.157131168e-05,-4.259117836e-05,-2.931855334e-05,-7.190973170e-05,-5.201331281e-05,-1.663358715e-05,-6.864689996e-05,2.255358205e-05,6.839378081e-05,9.094736286e-05,1.944719334e-04,5.093425095e-05,2.454061843e-04,-1.225016031e-04,8.540717679e-05,-3.709442627e-05,1.182430895e-04,2.205455046e-04,3.387885941e-04,7.232568420e-04,8.854173255e-05,8.117985745e-04,4.939943545e-04,8.834981084e-05,5.823441653e-04,6.815277843e-04,1.016971114e-04,7.832248956e-04,2.680948910e-04,5.572981463e-05,3.238247056e-04,-6.397867072e-04,2.514278387e-04,-3.883588685e-04,-5.894063097e-04,1.352988039e-03,7.635817289e-04,6.766509912e-05,3.144203857e-05,9.910713769e-05,-7.614566727e-04,4.182747791e-04,-3.431818936e-04,2.613218818e-04,-8.006607932e-05,1.812558025e-04,-3.409774857e-04,8.602346078e-04,5.192571221e-04,6.482357576e-05,1.555851066e-04,2.204086824e-04,3.611382572e-04,-1.135902644e-04,2.475479928e-04,5.969281882e-04,8.752341435e-05,6.844516025e-04,2.070978379e-04,3.367658464e-06,2.104654963e-04,1.350356821e-04,-4.848665029e-05,8.654903178e-05,-1.662221217e-05,-5.310529096e-05,-6.972750313e-05,1.089310806e-04,-6.676750737e-05,4.216357321e-05,9.641817048e-05,3.558626404e-04,4.522808109e-04,-2.564908902e-04,1.994551306e-04,-5.703575952e-05,7.931117094e-05,7.867631576e-04,8.660743286e-04,-3.788856367e-05,3.057042645e-05,-7.318137224e-06,4.785130032e-04,-6.330751059e-05,4.152054926e-04,1.377059520e-04,-6.798625733e-05,6.971969464e-05,9.675194797e-04,-3.276436468e-04,6.398758329e-04,1.740029961e-04,4.899119087e-06,1.789021152e-04,2.205280304e-04,-1.019795484e-04,1.185484820e-04,1.026575266e-05,3.366524390e-04,3.469181917e-04,5.184633340e-04,-1.981520244e-04,3.203113096e-04,2.971490469e-05,1.639201694e-04,1.936350741e-04
-6.2,8.958252627e-05,-5.433291117e-05,3.524961510e-05,-1.886227177e-05,-3.131487760e-05,-5.017714937e-05,-3.034166738e-05,-1.787973645e-05,-4.822140383e-05,2.311446632e-05,6.341831156e-05,8.653277788e-05,1.972525493e-04,4.303053968e-05,2.402830890e-04,-1.074939919e-04,5.179291474e-05,-5.570107714e-05,1.102439355e-04,2.103590733e-04,3.206030088e-04,7.158293961e-04,6.628046146e-05,7.821098575e-04,4.925720172e-04,8.103597325e-05,5.736079905e-04,6.847252665e-04,8.932547276e-05,7.740507393e-04,2.836789080e-04,4.654535806e-05,3.302242661e-04,-5.845258860e-04,2.364372792e-04,-3.480886067e-04,-5.197916758e-04,1.299093007e-03,7.793013313e-04,8.889792106e-05,2.380897050e-05,1.127068916e-04,-7.319083375e-04,4.082469390e-04,-3.236613985e-04,2.711565412e-04,-8.562566783e-05,1.855308733e-04,-2.914112019e-04,8.129413303e-04,5.215301284e-04,9.139806234e-05,1.410343271e-04,2.324323894e-04,3.344664916e-04,-1.154450901e-04,2.190214015e-04,6.051249345e-04,7.688187606e-05,6.820068106e-04,2.340905407e-04,2.744218965e-06,2.368347597e-04,1.620174967e-04,-5.139385913e-05,1.106236376e-04,1.103563906e-05,-5.132208270e-05,-4.028644364e-05,1.292050791e-04,-6.873344681e-05,6.047163225e-05,1.389249106e-04,3.338479974e-04,4.727729081e-04,-2.154720781e-04,1.909189007e-04,-2.455317749e-05,1.417871535e-04,7.479065540e-04,8.896937075e-04,9.527527988e-06,2.147308507e-05,3.100061306e-05,5.058868593e-04,-7.004390975e-05,4.358429496e-04,1.553170103e-04,-7.878694624e-05,7.653006402e-05,9.230554915e-04,-2.825806144e-04,6.404748772e-04,1.701661033e-04,2.219912859e-06,1.723860161e-04,1.941391174e-04,-1.227222012e-04,7.141691615e-05,-5.912596741e-06,3.376485714e-04,3.317359746e-04,5.051030236e-04,-1.975563496e-04,3.075466741e-04,-4.816585083e-06,1.593612419e-04,1.545446569e-04
-6.1,1.020146298e-04,-6.377947448e-05,3.823515530e-05,3.608002340e-06,-3.302499736e-05,-2.941699502e-05,-9.453631506e-06,-1.917247384e-05,-2.862610535e-05,2.313031492e-05,5.808734033e-05,8.121765525e-05,1.989439475e-04,3.500387938e-05,2.339478268e-04,-9.342006955e-05,1.888515782e-05,-7.453491173e-05,1.004780656e-04,1.994694435e-04,2.999475091e-04,7.036207309e-04,4.475826976e-05,7.483790007e-04,4.889399671e-04,7.339561646e-05,5.623355835e-04,6.842621950e-04,7.682393557e-05,7.610861306e-04,2.975452087e-04,3.732217956e-05,3.348673882e-04,-5.264239830e-04,2.203115589e-04,-3.061124241e-04,-4.538283718e-04,1.240105620e-03,7.862772482e-04,1.088522877e-04,1.576365973e-05,1.246159475e-04,-6.996726613e-04,3.960511117e-04,-3.036215495e-04,2.787088740e-04,-9.004231471e-05,1.886665593e-04,-2.407619719e-04,7.608735191e-04,5.201115472e-04,1.157776902e-04,1.261129907e-04,2.418906810e-04,3.047695964e-04,-1.164813670e-04,1.882882294e-04,6.095996343e-04,6.605307988e-05,6.756527142e-04,2.597706073e-04,1.992031630e-06,2.617626389e-04,1.875894194e-04,-5.408471854e-05,1.335047009e-04,3.733940700e-05,-4.962393892e-05,-1.228453192e-05,1.480877053e-04,-7.038434589e-05,7.770335940e-05,1.797277046e-04,3.103553368e-04,4.900830414e-04,-1.744839399e-04,1.818958571e-04,7.411917274e-06,2.032794239e-04,7.058096240e-04,9.090890479e-04,5.556870174e-05,1.280518245e-05,6.837388419e-05,5.297181862e-04,-7.641884941e-05,4.532993368e-04,1.706920214e-04,-8.854089391e-05,8.215112751e-05,8.723276505e-04,-2.337135761e-04,6.386140744e-04,1.644514064e-04,-1.515185262e-08,1.644362545e-04,1.680689170e-04,-1.431314629e-04,2.493745411e-05,-2.393986269e-05,3.387307636e-04,3.147909009e-04,4.868003564e-04,-1.947669199e-04,2.920334365e-04,-3.804693621e-05,1.524519024e-04,1.144049662e-04
-6,1.130344462e-04,-7.254030803e-05,4.049413815e-05,2.482151523e-05,-3.448353660e-05,-9.662021367e-06,1.049561640e-05,-2.050141542e-05,-1.000579902e-05,2.255471270e-05,5.241973675e-05,7.497444944e-05,1.994818968e-04,2.687417020e-05,2.263560670e-04,-8.036219594e-05,-1.300129431e-05,-9.336349025e-05,8.904431349e-05,1.879300468e-04,2.769743603e-04,6.867008769e-04,2.407950797e-05,7.107803849e-04,4.831023962e-04,6.546049684e-05,5.485628931e-04,6.801155036e-04,6.421706859e-05,7.443325722e-04,3.095888090e-04,2.807821553e-05,3.376670245e-04,-4.658439922e-04,2.031077410e-04,-2.627362512e-04,-3.920259550e-04,1.176360643e-03,7.843346878e-04,1.274636639e-04,7.335633139e-06,1.347992971e-04,-6.645730595e-04,3.815788908e-04,-2.829941688e-04,2.840510162e-04,-9.336720964e-05,1.906838066e-04,-1.898995005e-04,7.047018645e-04,5.148023639e-04,1.379866392e-04,1.108336706e-04,2.488203098e-04,2.722854534e-04,-1.167310967e-04,1.555543568e-04,6.103504863e-04,5.504620993e-05,6.653966962e-04,2.839573057e-04,1.106252515e-06,2.850635582e-04,2.116131639e-04,-5.655195506e-05,1.550612089e-04,6.215326876e-05,-4.800930843e-05,1.414396034e-05,1.654975627e-04,-7.172979859e-05,9.376776414e-05,2.185521496e-04,2.855192709e-04,5.040714205e-04,-1.335720576e-04,1.722989263e-04,3.872686868e-05,2.633907950e-04,6.609145466e-04,9.243053417e-04,1.002321434e-04,4.485929763e-06,1.047180732e-04,5.499924202e-04,-8.241658461e-05,4.675758356e-04,1.838982893e-04,-9.727093185e-05,8.662735742e-05,8.156703625e-04,-1.813031160e-04,6.343672465e-04,1.569896948e-04,-1.822867170e-06,1.551668276e-04,1.422515823e-04,-1.628932654e-04,-2.064168314e-05,-4.367685307e-05,3.396204554e-04,2.959436023e-04,4.635737776e-04,-1.897462483e-04,2.738275293e-04,-6.964536862e-05,1.430859825e-04,7.344061387e-05
-5.9,1.226127194e-04,-8.061809013e-05,4.199462926e-05,4.478784840e-05,-3.572818422e-05,9.059664179e-06,2.935758749e-05,-2.185466521e-05,7.502922279e-06,2.134387713e-05,4.643757517e-05,6.778145229e-05,1.988071522e-04,1.866268829e-05,2.174698405e-04,-6.839889535e-05,-4.357144981e-05,-1.119703452e-04,7.605032714e-05,1.757972940e-04,2.518476211e-04,6.651721560e-04,4.341623806e-06,6.695137798e-04,4.750738968e-04,5.726387640e-05,5.323377732e-04,6.722825182e-04,5.153036156e-05,7.238128797e-04,3.197166586e-04,1.883182761e-05,3.385484862e-04,-4.031844837e-04,1.849001793e-04,-2.182843044e-04,-3.347399026e-04,1.108185572e-03,7.734456689e-04,1.446733581e-04,-1.434667624e-06,1.432386904e-04,-6.264851787e-04,3.647770093e-04,-2.617081694e-04,2.872448580e-04,-9.565498195e-05,1.915898761e-04,-1.396720710e-04,6.451142499e-04,5.054421789e-04,1.580547465e-04,9.521682694e-05,2.532715734e-04,2.372656155e-04,-1.162253682e-04,1.210402473e-04,6.073938022e-04,4.387816965e-05,6.512719719e-04,3.064785988e-04,8.422424051e-08,3.065628230e-04,2.339594037e-04,-5.878888214e-05,1.751705216e-04,8.535544858e-05,-4.647466351e-05,3.888078507e-05,1.813599016e-04,-7.277673021e-05,1.085831714e-04,2.551397354e-04,2.594871904e-04,5.146269258e-04,-9.278957638e-05,1.620485054e-04,6.925892898e-05,3.217294553e-04,6.136698929e-04,9.353993482e-04,1.435056538e-04,-3.566071597e-06,1.399395822e-04,5.667191089e-04,-8.801668014e-05,4.787024288e-04,1.950204068e-04,-1.050124834e-04,9.000792334e-05,7.535081718e-04,-1.256721553e-04,6.278360165e-04,1.479283199e-04,-3.230566866e-06,1.446977531e-04,1.166058100e-04,-1.817166852e-04,-6.511087527e-05,-6.495179177e-05,3.400086320e-04,2.750568402e-04,4.355296033e-04,-1.825156768e-04,2.530139265e-04,-9.932494456e-05,1.312117465e-04,3.188680197e-05
-5.8,1.307278703e-04,-8.801866519e-05,4.270920514e-05,6.352381297e-05,-3.679758062e-05,2.672623234e-05,4.699444420e-05,-2.321887972e-05,2.377556448e-05,1.945900162e-05,4.016622731e-05,5.962522893e-05,1.968687587e-04,1.039190630e-05,2.072606650e-04,-5.760091609e-05,-7.255595695e-05,-1.301568730e-04,6.161382974e-05,1.631298788e-04,2.247437086e-04,6.391704051e-04,-1.436717077e-05,6.248032344e-04,4.648813735e-04,4.884015628e-05,5.137215298e-04,6.607831117e-04,3.879022247e-05,6.995733342e-04,3.278503695e-04,9.601693230e-06,3.374520628e-04,-3.388678770e-04,1.657782018e-04,-1.730896752e-04,-2.821426284e-04,1.035896632e-03,7.537540032e-04,1.604313723e-04,-1.049718115e-05,1.499341912e-04,-5.853365447e-04,3.456468624e-04,-2.396896823e-04,2.883422217e-04,-9.696160854e-05,1.913806132e-04,-9.088413601e-05,5.828042344e-04,4.919200984e-04,1.760168375e-04,7.929376667e-05,2.553106041e-04,1.999771177e-04,-1.149951936e-04,8.498192416e-05,6.007679339e-04,3.257159343e-05,6.333395273e-04,3.271745963e-04,-1.074325287e-06,3.261002710e-04,2.545107424e-04,-6.078943685e-05,1.937213055e-04,1.068406237e-04,-4.501445199e-05,6.182617169e-05,1.956096356e-04,-7.353006921e-05,1.220795664e-04,2.892533410e-04,2.324177341e-04,5.216710751e-04,-5.219743537e-05,1.510757022e-04,9.887826683e-05,3.779127612e-04,5.645233980e-04,9.424361592e-04,1.853685022e-04,-1.143000094e-05,1.739385013e-04,5.799326902e-04,-9.319479849e-05,4.867378917e-04,2.041590235e-04,-1.118117168e-04,9.234730669e-05,6.863594050e-04,-6.721956965e-05,6.191398354e-04,1.374297655e-04,-4.275865954e-06,1.331538995e-04,9.104161191e-05,-1.993409078e-04,-1.082992959e-04,-8.755893428e-05,3.395647833e-04,2.520058490e-04,4.028599067e-04,-1.731499636e-04,2.297099430e-04,-1.268437165e-04,1.168320698e-04,-1.001164665e-05
-5.7,1.373678495e-04,-9.475101136e-05,4.261683810e-05,8.105201859e-05,-3.772916281e-05,4.332285579e-05,6.328205433e-05,-2.457942143e-05,3.870263290e-05,1.686805578e-05,3.363431252e-05,5.050236829e-05,1.936261642e-04,2.085275439e-06,1.957114396e-04,-4.802730515e-05,-9.971709930e-05,-1.477444044e-04,4.586313720e-05,1.499880577e-04,1.958511949e-04,6.088656724e-04,-3.197024707e-05,5.768954253e-04,4.525643313e-04,4.022456683e-05,4.927888981e-04,6.456602910e-04,2.602393133e-05,6.716842223e-04,3.339274538e-04,4.067116366e-07,3.343341655e-04,-2.733323341e-04,1.458442420e-04,-1.274880921e-04,-2.342064232e-04,9.597963509e-04,7.255899277e-04,1.746968831e-04,-1.979375100e-05,1.549031321e-04,-5.411066133e-04,3.242413496e-04,-2.168652637e-04,2.873854961e-04,-9.734320689e-05,1.900422892e-04,-4.428086378e-05,5.184606573e-04,4.741797935e-04,1.919115945e-04,6.310786800e-05,2.550194625e-04,1.607029003e-04,-1.130731432e-04,4.762975710e-05,5.905353309e-04,2.115273843e-05,6.116880693e-04,3.458990908e-04,-2.367126053e-06,3.435319648e-04,2.731630859e-04,-6.254821453e-05,2.106148714e-04,1.265215383e-04,-4.362110441e-05,8.290043385e-05,2.081933778e-04,-7.399354902e-05,1.341998288e-04,3.206812402e-04,2.044790218e-04,5.251602620e-04,-1.186539982e-05,1.393251640e-04,1.274597642e-04,4.315720619e-04,5.139124518e-04,9.454845137e-04,2.257917925e-04,-1.918049275e-05,2.066112998e-04,5.896906800e-04,-9.792418350e-05,4.917664965e-04,2.114277388e-04,-1.177234628e-04,9.370427594e-05,6.148269926e-04,-6.425020881e-06,6.084019717e-04,1.256682988e-04,-5.005873830e-06,1.206624249e-04,6.546562418e-05,-2.155399445e-04,-1.500743203e-04,-1.112623429e-04,3.379509545e-04,2.266886116e-04,3.658352124e-04,-1.617693730e-04,2.040658394e-04,-1.520061341e-04,1.000027992e-04,-5.200333494e-05
-5.6,1.425310716e-04,-1.008272184e-04,4.170385327e-05,9.739888530e-05,-3.855726493e-05,5.884162037e-05,7.811199765e-05,-2.592053201e-05,5.219146564e-05,1.354693607e-05,2.687350834e-05,4.042044442e-05,1.890501206e-04,-6.232954077e-06,1.828171665e-04,-3.972187253e-05,-1.248541439e-04,-1.645760164e-04,2.893685862e-05,1.364329903e-04,1.653698489e-04,5.744624782e-04,-4.840495860e-05,5.260575196e-04,4.381738554e-04,3.145297734e-05,4.696268327e-04,6.269794753e-04,1.325959282e-05,6.402390681e-04,3.379011725e-04,-8.734005676e-06,3.291671668e-04,-2.070284263e-04,1.252129924e-04,-8.181543392e-05,-1.907050656e-04,8.801778067e-04,6.894727411e-04,1.874371698e-04,-2.925981524e-05,1.581773546e-04,-4.938262203e-04,3.006591687e-04,-1.931670516e-04,2.844084066e-04,-9.685533585e-05,1.875530708e-04,-5.377516573e-07,4.527565788e-04,4.522188272e-04,2.057800954e-04,4.671393147e-05,2.524940269e-04,1.197407273e-04,-1.104958907e-04,9.244836569e-06,5.767828462e-04,9.649581598e-06,5.864324278e-04,3.625196505e-04,-3.789297811e-06,3.587303527e-04,2.898257791e-04,-6.406051800e-05,2.257652611e-04,1.443299662e-04,-4.228508750e-05,1.020448787e-04,2.190705273e-04,-7.417052402e-05,1.449000033e-04,3.492398397e-04,1.758461389e-04,5.250859787e-04,2.812656258e-05,1.267569993e-04,1.548835619e-04,4.823593869e-04,4.622518201e-04,9.446112070e-04,2.647385260e-04,-2.688621843e-05,2.378523076e-04,5.960703420e-04,-1.021779348e-04,4.938924072e-04,2.169488291e-04,-1.228089267e-04,9.413990244e-05,5.395818354e-04,5.615302958e-05,5.957348649e-04,1.128256191e-04,-5.476120255e-06,1.073494989e-04,3.978423824e-05,-2.301243099e-04,-1.903400717e-04,-1.358047090e-04,3.348397135e-04,1.990350045e-04,3.247938972e-04,-1.485312683e-04,1.762626289e-04,-1.746639037e-04,8.082826355e-05,-9.383564019e-05
-5.5,1.462265551e-04,-1.062623791e-04,3.996417595e-05,1.125926490e-04,-3.931155511e-05,7.328109388e-05,9.139278228e-05,-2.722545395e-05,6.416732833e-05,9.480165638e-06,1.991825998e-05,2.939842562e-05,1.831228279e-04,-1.453781380e-05,1.685850141e-04,-3.271038472e-05,-1.478070357e-04,-1.805174205e-04,1.098305202e-05,1.225261527e-04,1.335092047e-04,5.361997040e-04,-6.362496580e-05,4.725747382e-04,4.217711230e-04,2.256179147e-05,4.443329145e-04,6.048272529e-04,5.260845708e-07,6.053533375e-04,3.397396793e-04,-1.780107996e-05,3.219385993e-04,-1.404186816e-04,1.040113421e-04,-3.640733950e-05,-1.512345852e-04,7.973358641e-04,6.461012789e-04,1.986262277e-04,-3.882607008e-05,1.598001576e-04,-4.435752588e-04,2.750369733e-04,-1.685382855e-04,2.794372072e-04,-9.555251575e-05,1.838846914e-04,3.974649276e-05,3.863372547e-04,4.260837475e-04,2.176644655e-04,3.017615408e-05,2.478406196e-04,7.740065095e-05,-1.073069824e-04,-2.990633142e-05,5.596211237e-04,-1.909791343e-06,5.577113323e-04,3.769172781e-04,-5.333396614e-06,3.715838815e-04,3.044213568e-04,-6.532241638e-05,2.390989404e-04,1.602173615e-04,-4.099496410e-05,1.192223974e-04,2.282138712e-04,-7.406468605e-05,1.541491851e-04,3.747754479e-04,1.466980420e-04,5.214734899e-04,6.768723833e-05,1.133476976e-04,1.810349359e-04,5.299558446e-04,4.099207099e-04,9.398765544e-04,3.021636711e-04,-3.460919151e-05,2.675544796e-04,5.991649891e-04,-1.059315024e-04,4.932334867e-04,2.208489915e-04,-1.271332725e-04,9.371571901e-05,4.613437542e-04,1.198830451e-04,5.812267993e-04,9.908646597e-05,-5.749244995e-06,9.333722098e-05,1.390604075e-05,-2.429408913e-04,-2.290348505e-04,-1.609189754e-04,3.299332150e-04,1.690142396e-04,2.801319797e-04,-1.336232953e-04,1.465086844e-04,-1.947140597e-04,5.945296337e-05,-1.352610964e-04
-5.4,1.484736859e-04,-1.110743386e-04,3.739934731e-05,1.266619067e-04,-4.001578976e-05,8.664611695e-05,1.030508043e-04,-2.847649244e-05,7.457431186e-05,4.661484518e-06,1.280542430e-05,1.746690882e-05,1.758380546e-04,-2.280360260e-05,1.530344520e-04,-2.699816620e-05,-1.684581663e-04,-1.954563325e-04,-7.841647589e-06,1.083287590e-04,1.004871114e-04,4.943501244e-04,-7.760221146e-05,4.167479129e-04,4.034265206e-04,1.358787405e-05,4.170143947e-04,5.793106640e-04,-1.214701068e-05,5.671636533e-04,3.394254929e-04,-2.677479708e-05,3.126506958e-04,-7.397606660e-05,8.237774301e-05,8.401676412e-06,-1.152473058e-04,7.115793904e-04,5.963320846e-04,2.082443426e-04,-4.841979866e-05,1.598245439e-04,-3.904778548e-04,2.475405783e-04,-1.429372766e-04,2.724932852e-04,-9.348820669e-05,1.790050785e-04,7.605511813e-05,3.198085396e-04,3.958636577e-04,2.276077285e-04,1.356549180e-05,2.411732203e-04,3.400154553e-05,-1.035589270e-04,-6.955738142e-05,5.391841389e-04,-1.349834429e-05,5.256857946e-04,3.889868081e-04,-6.989470202e-06,3.819973379e-04,3.168859296e-04,-6.633072671e-05,2.505552029e-04,1.741556097e-04,-3.973741502e-05,1.344181946e-04,2.356103947e-04,-7.368063697e-05,1.619297578e-04,3.971654242e-04,1.172144444e-04,5.143798686e-04,1.067141068e-04,9.909023366e-05,2.058043405e-04,5.740805011e-04,3.572522438e-04,9.313327448e-04,3.380147025e-04,-4.240417297e-05,2.956105295e-04,5.990811572e-04,-1.091644988e-04,4.899166584e-04,2.232564855e-04,-1.307632078e-04,9.249327768e-05,3.808628717e-04,1.840682751e-04,5.649311467e-04,8.463501529e-05,-5.893285227e-06,7.874173006e-05,-1.225492980e-05,-2.538722978e-04,-2.661272276e-04,-1.863386820e-04,3.229796497e-04,1.366409677e-04,2.322959480e-04,-1.172585774e-04,1.150373706e-04,-2.120932331e-04,3.605130665e-05,-1.760419265e-04
-5.3,1.493022193e-04,-1.152833466e-04,3.401887272e-05,1.396352456e-04,-4.068694148e-05,9.894830410e-05,1.130316494e-04,-2.965508383e-05,8.337656552e-05,-9.053273107e-07,5.573892688e-06,4.668565377e-06,1.672019555e-04,-3.100384575e-05,1.361981098e-04,-2.256750472e-05,-1.867328376e-04,-2.093003423e-04,-2.737241688e-05,9.390114981e-05,6.652873294e-05,4.492196074e-04,-9.032819607e-05,3.588914114e-04,3.832201625e-04,4.568493512e-06,3.877886560e-04,5.505578056e-04,-2.472947488e-05,5.258283307e-04,3.369561933e-04,-3.563505611e-05,3.013211372e-04,-8.177948640e-06,6.045945917e-05,5.228151053e-05,-8.209197407e-05,6.232396147e-04,5.411476406e-04,2.162796343e-04,-5.796571688e-05,1.583139174e-04,-3.346951399e-04,2.183566665e-04,-1.163384735e-04,2.635987615e-04,-9.071585178e-05,1.728829097e-04,1.079588286e-04,2.537265629e-04,3.616853915e-04,2.356564651e-04,-3.042921897e-06,2.326135432e-04,-1.013164771e-05,-9.931434416e-05,-1.094459919e-04,5.156296188e-04,-2.509060518e-05,4.905390136e-04,3.986388960e-04,-8.744994015e-06,3.898939019e-04,3.271709192e-04,-6.708284273e-05,2.600880765e-04,1.861381843e-04,-3.849723432e-05,1.476409500e-04,2.412627737e-04,-7.302431516e-05,1.682384585e-04,4.163192641e-04,8.757301241e-05,5.038922765e-04,1.450947892e-04,8.399356245e-05,2.290883517e-04,6.144978655e-04,3.045275516e-04,9.190254171e-04,3.722334614e-04,-5.031784180e-05,3.219156196e-04,5.959377200e-04,-1.118613766e-04,4.840763434e-04,2.243006154e-04,-1.337648160e-04,9.053579945e-05,2.989031802e-04,2.479563386e-04,5.468595188e-04,6.965290183e-05,-5.979585294e-06,6.367331654e-05,-3.877521628e-05,-2.628354256e-04,-3.016106419e-04,-2.118026271e-04,3.137836917e-04,1.019810646e-04,1.817790416e-04,-9.967179997e-05,8.210724160e-05,-2.267696714e-04,1.081952841e-05,-2.159501430e-04
-5.2,1.487530001e-04,-1.189117392e-04,2.984126093e-05,1.515422714e-04,-4.133482874e-05,1.102074426e-04,1.213020022e-04,-3.074194335e-05,9.056005887e-05,-7.205216925e-06,-1.735759355e-06,-8.940976280e-06,1.572348365e-04,-3.911130652e-05,1.181235300e-04,-1.937505568e-05,-2.025990258e-04,-2.219740815e-04,-4.743600180e-05,7.930219048e-05,3.186618868e-05,4.011458007e-04,-1.018142483e-04,2.993315524e-04,3.612437178e-04,-4.458729034e-06,3.567849888e-04,5.187196874e-04,-3.719053276e-05,4.815291547e-04,3.323464434e-04,-4.436135441e-05,2.879850890e-04,5.650501480e-05,3.840765797e-05,9.491267277e-05,-5.105739369e-05,5.326773267e-04,4.816199330e-04,2.227317355e-04,-6.738670112e-05,1.553450344e-04,-2.764165299e-04,1.876855270e-04,-8.873100295e-05,2.527857931e-04,-8.729124942e-05,1.654945437e-04,1.351247474e-04,1.885879335e-04,3.237126808e-04,2.418671922e-04,-1.957214916e-05,2.222950431e-04,-5.466817822e-05,-9.464643064e-05,-1.493146089e-04,4.891402831e-04,-3.666260928e-05,4.524776739e-04,4.058035042e-04,-1.058473256e-05,3.952187717e-04,3.352460165e-04,-6.757649442e-05,2.676695221e-04,1.961816589e-04,-3.725736510e-05,1.589242938e-04,2.451913790e-04,-7.210325755e-05,1.730881215e-04,4.321800625e-04,5.794693996e-05,4.901270025e-04,1.827101077e-04,6.808170629e-05,2.507918140e-04,6.510229474e-04,2.519751534e-04,9.029981008e-04,4.047598997e-04,-5.838792846e-05,3.463719713e-04,5.898668037e-04,-1.140112046e-04,4.758555991e-04,2.241132037e-04,-1.362019366e-04,8.791126712e-05,2.162285078e-04,3.107515981e-04,5.269801059e-04,5.431925203e-05,-6.080734994e-06,4.823851704e-05,-6.571826002e-05,-2.697780941e-04,-3.354963541e-04,-2.370521209e-04,3.022100652e-04,6.515794431e-05,1.291196207e-04,-8.111498029e-05,4.800464042e-05,-2.387362551e-04,-1.602708305e-05,-2.547633382e-04
-5.1,1.468793728e-04,-1.219837422e-04,2.489563066e-05,1.624157681e-04,-4.196232740e-05,1.204534407e-04,1.278518083e-04,-3.171729433e-05,9.613451397e-05,-1.421037734e-05,-9.081579723e-06,-2.329195706e-05,1.459733662e-04,-4.709808027e-05,9.887528593e-05,-1.735011376e-05,-2.160665419e-04,-2.334166556e-04,-6.785019991e-05,6.458875531e-05,-3.261444600e-06,3.504959634e-04,-1.120908656e-04,2.384050978e-04,3.376025040e-04,-1.345591201e-05,3.241465920e-04,4.839723314e-04,-4.949901711e-05,4.344733143e-04,3.256304606e-04,-5.293284525e-05,2.726976153e-04,1.196225934e-04,1.637174471e-05,1.359943381e-04,-2.142065129e-05,4.402949756e-04,4.188743243e-04,2.276165177e-04,-7.660507067e-05,1.510114470e-04,-2.158509330e-04,1.557344462e-04,-6.011648686e-05,2.401078553e-04,-8.327581495e-05,1.568320403e-04,1.573300626e-04,1.248198542e-04,2.821499168e-04,2.463152736e-04,-3.594589506e-05,2.103693786e-04,-9.926929430e-05,-8.963886744e-05,-1.889081617e-04,4.599249828e-04,-4.819157210e-05,4.117334107e-04,4.104337101e-04,-1.249071877e-05,3.979429913e-04,3.411023494e-04,-6.780965235e-05,2.732926971e-04,2.043271161e-04,-3.599902473e-05,1.683280914e-04,2.474360204e-04,-7.092667083e-05,1.765093496e-04,4.447262297e-04,2.850297506e-05,4.732292048e-04,2.194380992e-04,5.139270166e-05,2.708308009e-04,6.835243197e-04,1.997748032e-04,8.832991229e-04,4.355370070e-04,-6.664254317e-05,3.688944638e-04,5.810150116e-04,-1.156071833e-04,4.654078282e-04,2.228304390e-04,-1.381351948e-04,8.469524425e-05,1.335888805e-04,3.716327969e-04,5.052216774e-04,3.881191943e-05,-6.268902097e-06,3.254301733e-05,-9.313183230e-05,-2.746731425e-04,-3.678049748e-04,-2.618233081e-04,2.881820991e-04,2.635879099e-05,7.489907956e-05,-6.185236879e-05,1.304671077e-05,-2.480072581e-04,-4.425205903e-05,-2.922593172e-04
-5,1.437486991e-04,-1.245253779e-04,1.922332120e-05,1.722941319e-04,-4.256608065e-05,1.297280512e-04,1.326959245e-04,-3.256112249e-05,1.001348020e-04,-2.187899786e-05,-1.642053499e-05,-3.829953285e-05,1.334723148e-04,-5.493575107e-05,7.853656371e-05,-1.639413684e-05,-2.271857287e-04,-2.435798655e-04,-8.842364430e-05,4.981531495e-05,-3.860832936e-05,2.976638602e-04,-1.212066842e-04,1.764571760e-04,3.124166537e-04,-2.238509185e-05,2.900315618e-04,4.465179288e-04,-6.162370953e-05,3.848942193e-04,3.168637637e-04,-6.132849580e-05,2.555352679e-04,1.807578758e-04,-5.505653427e-06,1.752522224e-04,7.501798735e-06,3.465545258e-04,3.540563245e-04,2.309700586e-04,-8.554471703e-05,1.454253416e-04,-1.532192876e-04,1.227115265e-04,-3.050776112e-05,2.256498121e-04,-7.873999204e-05,1.469098200e-04,1.744769327e-04,6.277149135e-05,2.372484241e-04,2.491033615e-04,-5.209103219e-05,1.970123293e-04,-1.435858434e-04,-8.438497606e-05,-2.279708195e-04,4.282183992e-04,-5.965544874e-05,3.685629505e-04,4.125084149e-04,-1.444247459e-05,3.980659403e-04,3.447546503e-04,-6.778069513e-05,2.769739551e-04,2.106408763e-04,-3.470190282e-05,1.759389734e-04,2.480566512e-04,-6.950533132e-05,1.785513199e-04,4.539727462e-04,-6.000333726e-07,4.533727128e-04,2.551579007e-04,3.397751618e-05,2.891354169e-04,7.119260474e-04,1.480635551e-04,8.599896025e-04,4.645153020e-04,-7.509971671e-05,3.894155853e-04,5.695432898e-04,-1.166463647e-04,4.528969251e-04,2.205934609e-04,-1.396215055e-04,8.097195540e-05,5.170615759e-05,4.297756356e-04,4.814817931e-04,2.330825513e-05,-6.614397601e-06,1.669385753e-05,-1.210467683e-04,-2.775108715e-04,-3.985576398e-04,-2.858384864e-04,2.716765306e-04,-1.416195579e-05,1.973675642e-05,-4.215464274e-05,-2.241788632e-05,-2.546190494e-04,-7.359434451e-05,-3.282133939e-04
-4.9,1.394433094e-04,-1.265644162e-04,1.287889323e-05,1.812231485e-04,-4.313746596e-05,1.380856825e-04,1.358746385e-04,-3.325342728e-05,1.026212112e-04,-3.015474184e-05,-2.370884358e-05,-5.386358542e-05,1.198051049e-04,-6.259558542e-05,5.720951952e-05,-1.638145639e-05,-2.360457270e-04,-2.524271834e-04,-1.089562968e-04,3.503359628e-05,-7.392270053e-05,2.430660698e-04,-1.292276404e-04,1.138384294e-04,2.858207841e-04,-3.120845823e-05,2.546123259e-04,4.065844300e-04,-7.353382728e-05,3.330506027e-04,3.061234975e-04,-6.952730916e-05,2.365961884e-04,2.395370234e-04,-2.709229158e-05,2.124447318e-04,3.630655711e-05,2.519945886e-04,2.883011457e-04,2.328504751e-04,-9.413373525e-05,1.387167399e-04,-8.874959588e-05,8.882035017e-05,7.075428546e-08,2.095345924e-04,-7.376611318e-05,1.357684792e-04,1.866020221e-04,2.709440815e-06,1.893114629e-04,2.503665429e-04,-6.793974755e-05,1.824267954e-04,-1.872582904e-04,-7.898582828e-05,-2.662441187e-04,3.942784896e-04,-7.103232532e-05,3.232461643e-04,4.120332331e-04,-1.641742002e-05,3.956158131e-04,3.462417689e-04,-6.748873218e-05,2.787530368e-04,2.152142306e-04,-3.334438911e-05,1.818698415e-04,2.471327797e-04,-6.785139784e-05,1.792813818e-04,4.599711069e-04,-2.921213170e-05,4.307589752e-04,2.897527481e-04,1.589876799e-05,3.056515161e-04,7.362086856e-04,9.694129682e-05,8.331499824e-04,4.916558122e-04,-8.376728764e-05,4.078885246e-04,5.556245560e-04,-1.171293297e-04,4.384952263e-04,2.175470653e-04,-1.407137511e-04,7.683331416e-05,-2.873893092e-05,4.843749620e-04,4.556360311e-04,7.984240872e-06,-7.183983088e-06,8.002577840e-07,-1.494762833e-04,-2.782919067e-04,-4.277681900e-04,-3.087983875e-04,2.527135869e-04,-5.608480057e-05,-3.571909870e-05,-2.229322505e-05,-5.801232375e-05,-2.586325562e-04,-1.037676885e-04,-3.624002447e-04
-4.8,1.340605679e-04,-1.281303565e-04,5.930211477e-06,1.892566800e-04,-4.366360781e-05,1.455930722e-04,1.374529187e-04,-3.377450307e-05,1.036784156e-04,-3.896717819e-05,-3.090236072e-05,-6.986953892e-05,1.050630148e-04,-7.004875434e-05,3.501426044e-05,-1.716163523e-05,-2.427714418e-04,-2.599330770e-04,-1.292407549e-04,2.029232294e-05,-1.089484320e-04,1.871382608e-04,-1.362364290e-04,5.090183185e-05,2.579623163e-04,-3.988855342e-05,2.180737629e-04,3.644236290e-04,-8.519948536e-05,2.792241437e-04,2.935073067e-04,-7.750850868e-05,2.159987980e-04,2.956353828e-04,-4.826828533e-05,2.473670975e-04,6.546474030e-05,1.572387525e-04,2.227034928e-04,2.333373406e-04,-1.023069514e-04,1.310303893e-04,-2.267565209e-05,5.425640481e-05,3.158075272e-05,1.919260172e-04,-6.844992011e-05,1.234760971e-04,1.938768423e-04,-5.518115111e-05,1.386956912e-04,2.502729493e-04,-8.343090511e-05,1.668420442e-04,-2.299203776e-04,-7.354706555e-05,-3.034674431e-04,3.583820576e-04,-8.229965728e-05,2.760824003e-04,4.090397195e-04,-1.839134605e-05,3.906483735e-04,3.456256365e-04,-6.693390132e-05,2.786917352e-04,2.181622500e-04,-3.190381553e-05,1.862584344e-04,2.447618170e-04,-6.597822283e-05,1.787835942e-04,4.628076861e-04,-5.719313145e-05,4.056145546e-04,3.231119818e-04,-2.770855645e-06,3.203411262e-04,7.564082761e-04,4.647489356e-05,8.028831697e-04,5.169316865e-04,-9.264342479e-05,4.242882617e-04,5.394391580e-04,-1.170590245e-04,4.223801335e-04,2.138369121e-04,-1.414603544e-04,7.237655767e-05,-1.071161900e-04,5.346619653e-04,4.275457753e-04,-6.987789628e-06,-8.038777184e-06,-1.502656681e-05,-1.784148981e-04,-2.770218855e-04,-4.554367835e-04,-3.303761232e-04,2.313423220e-04,-9.903380118e-05,-9.080373106e-05,-2.535235685e-06,-9.333896675e-05,-2.601351379e-04,-1.344644898e-04,-3.945996276e-04
-4.7,1.277121372e-04,-1.292544459e-04,-1.542308691e-06,1.964564146e-04,-4.412839631e-05,1.523280183e-04,1.375187147e-04,-3.410527397e-05,1.034134407e-04,-4.823304920e-05,-3.795697618e-05,-8.619002538e-05,8.935339595e-05,-7.726657060e-05,1.208682535e-05,-1.856405583e-05,-2.475182144e-04,-2.660822702e-04,-1.490642086e-04,5.637095785e-06,-1.434271128e-04,1.303317073e-04,-1.423319478e-04,-1.200024052e-05,2.289991052e-04,-4.838837122e-05,1.806107340e-04,3.203083293e-04,-9.659195701e-05,2.237163723e-04,2.791312629e-04,-8.525160288e-05,1.938796600e-04,3.487804975e-04,-6.892671723e-05,2.798537802e-04,9.529362960e-05,6.299193638e-05,1.582855660e-04,2.325294630e-04,-1.100078075e-04,1.225216555e-04,4.476002237e-05,1.920604447e-05,6.396606684e-05,1.730281624e-04,-6.290002902e-05,1.101281333e-04,1.966009689e-04,-1.107909894e-04,8.580997953e-05,2.490200259e-04,-9.851053108e-05,1.505094948e-04,-2.712056854e-04,-6.817454914e-05,-3.393802346e-04,3.208198051e-04,-9.343352002e-05,2.273862851e-04,4.035837598e-04,-2.033890743e-05,3.832448524e-04,3.429894228e-04,-6.611759063e-05,2.768718322e-04,2.196220165e-04,-3.035671657e-05,1.892652999e-04,2.410568155e-04,-6.390017937e-05,1.771566361e-04,4.626011075e-04,-8.441385628e-05,3.781872512e-04,3.551325194e-04,-2.195033091e-05,3.331821885e-04,7.726112856e-04,-3.296532433e-06,7.693147532e-04,5.403292386e-04,-1.017178127e-04,4.386114259e-04,5.211692560e-04,-1.164382601e-04,4.047309959e-04,2.096062895e-04,-1.419046608e-04,6.770162873e-05,-1.828525347e-04,5.799172143e-04,3.970646796e-04,-2.144158827e-05,-9.232140772e-06,-3.067372904e-05,-2.078369850e-04,-2.737077055e-04,-4.815446904e-04,-3.502143170e-04,2.076244799e-04,-1.425898371e-04,-1.448512946e-04,1.686205048e-05,-1.279892441e-04,-2.592409623e-04,-1.653624093e-04,-4.246033716e-04
-4.6,1.205227774e-04,-1.299696623e-04,-9.446884893e-06,2.028911687e-04,-4.451352153e-05,1.583776471e-04,1.361808955e-04,-3.422764451e-05,1.019532510e-04,-5.785792754e-05,-4.482900338e-05,-1.026869309e-04,7.279762040e-05,-8.422071384e-05,-1.142309344e-05,-2.040402895e-05,-2.504647880e-04,-2.708688169e-04,-1.682106525e-04,-8.889563512e-06,-1.771002160e-04,7.310979524e-05,-1.476282715e-04,-7.451847627e-05,1.990973225e-04,-5.667138611e-05,1.424259364e-04,2.745295247e-04,-1.076837081e-04,1.668458166e-04,2.631277184e-04,-9.273635412e-05,1.703913643e-04,3.987526797e-04,-8.897333995e-05,3.097793397e-04,1.259393296e-04,-2.997347743e-05,9.596585214e-05,2.305424389e-04,-1.171892954e-04,1.133531435e-04,1.133006023e-04,-1.615248109e-05,9.714812124e-05,1.530822779e-04,-5.723535940e-05,9.584691847e-05,1.951922262e-04,-1.640781590e-04,3.111406717e-05,2.468274926e-04,-1.131314326e-04,1.336960600e-04,-3.107546877e-04,-6.296972834e-05,-3.737244160e-04,2.818923562e-04,-1.044080217e-04,1.774843344e-04,3.957442994e-04,-2.223417132e-05,3.735101281e-04,3.384359540e-04,-6.504263163e-05,2.733933223e-04,2.197507129e-04,-2.867909219e-05,1.910716207e-04,2.361441967e-04,-6.163248819e-05,1.745117085e-04,4.594995064e-04,-1.107578879e-04,3.487416185e-04,3.857206282e-04,-4.155204806e-05,3.441685801e-04,7.849446150e-04,-5.235215986e-05,7.325924551e-04,5.618492233e-04,-1.109731912e-04,4.508760321e-04,5.009940965e-04,-1.152663205e-04,3.857277760e-04,2.049938128e-04,-1.420842877e-04,6.290952508e-05,-2.554369057e-04,6.194827614e-04,3.640458557e-04,-3.521829981e-05,-1.080798086e-05,-4.602628067e-05,-2.376956229e-04,-2.683548863e-04,-5.060505092e-04,-3.679273092e-04,1.816215117e-04,-1.863057975e-04,-1.972128931e-04,3.565903345e-05,-1.615538596e-04,-2.560902653e-04,-1.961302895e-04,-4.522205548e-04
-4.5,1.126291122e-04,-1.303105240e-04,-1.768141187e-05,2.086363270e-04,-4.479942696e-05,1.638369000e-04,1.335674747e-04,-3.412481991e-05,9.944265484e-05,-6.773760617e-05,-5.147560705e-05,-1.192132132e-04,5.552954825e-05,-9.088343484e-05,-3.535388658e-05,-2.248856675e-05,-2.518064266e-04,-2.742949933e-04,-1.864628373e-04,-2.324808425e-05,-2.097109216e-04,1.594413300e-05,-1.522528378e-04,-1.363087048e-04,1.684303917e-04,-6.470161513e-05,1.037287765e-04,2.273944540e-04,-1.184483418e-04,1.089461123e-04,2.456439371e-04,-9.994275833e-05,1.457011788e-04,4.453842312e-04,-1.083259576e-04,3.370582736e-04,1.573750841e-04,-1.208402226e-04,3.653486151e-05,2.275074488e-04,-1.238140727e-04,1.036933761e-04,1.826700867e-04,-5.164774768e-05,1.310223390e-04,1.323629649e-04,-5.158148089e-05,8.078148406e-05,1.901757442e-04,-2.150569846e-04,-2.488124038e-05,2.439285389e-04,-1.272518824e-04,1.166766565e-04,-3.482195921e-04,-5.802587250e-05,-4.062454646e-04,2.419080132e-04,-1.151948732e-04,1.267131401e-04,3.856232670e-04,-2.405118920e-05,3.615720778e-04,3.320871340e-04,-6.371344187e-05,2.683736921e-04,2.187238570e-04,-2.684664304e-05,1.918772139e-04,2.301620478e-04,-5.919107108e-05,1.709709768e-04,4.536782713e-04,-1.361232851e-04,3.175549862e-04,4.147947064e-04,-6.148356491e-05,3.533111415e-04,7.935629908e-04,-1.006767002e-04,6.928862906e-04,5.815089935e-04,-1.203869449e-04,4.611220486e-04,4.790879984e-04,-1.135358700e-04,3.655521284e-04,2.001330070e-04,-1.420306861e-04,5.810232088e-05,-3.244227224e-04,6.527746955e-04,3.283519731e-04,-4.816603174e-05,-1.279965483e-05,-6.096568658e-05,-2.679216004e-04,-2.609665403e-04,-5.288881407e-04,-3.831091124e-04,1.533878861e-04,-2.297212263e-04,-2.472748132e-04,5.364364767e-05,-1.936311655e-04,-2.508481512e-04,-2.264314501e-04,-4.772796013e-04
-4.4,1.041787306e-04,-1.303126901e-04,-2.613395945e-05,2.137738625e-04,-4.496606390e-05,1.688077986e-04,1.298245138e-04,-3.378160583e-05,9.604290796e-05,-7.775873325e-05,-5.785534310e-05,-1.356140763e-04,3.769494379e-05,-9.722777757e-05,-5.953283378e-05,-2.462040769e-05,-2.517494474e-04,-2.763698551e-04,-2.036036216e-04,-3.740176200e-05,-2.410053836e-04,-4.068988895e-05,-1.563438159e-04,-1.970337049e-04,1.371790555e-04,-7.244379987e-05,6.473525564e-05,1.792256749e-04,-1.288606054e-04,5.036506949e-05,2.268417382e-04,-1.068511220e-04,1.199906162e-04,4.885590509e-04,-1.269142606e-04,3.616447903e-04,1.894192276e-04,-2.087776868e-04,-1.935845922e-05,2.235719058e-04,-1.298542460e-04,9.371765982e-05,2.525720075e-04,-8.711509328e-05,1.654569142e-04,1.111749466e-04,-4.606707036e-05,6.510787629e-05,1.821716103e-04,-2.637847720e-04,-8.161316176e-05,2.405612966e-04,-1.408337091e-04,9.972758750e-05,-3.832659059e-04,-5.342545358e-05,-4.366913595e-04,2.011818152e-04,-1.257629849e-04,7.541883036e-05,3.733464862e-04,-2.576444580e-05,3.475820404e-04,3.240841827e-04,-6.213602392e-05,2.619481588e-04,2.167336268e-04,-2.483499291e-05,1.918986339e-04,2.232591163e-04,-5.659248684e-05,1.666666294e-04,4.453384529e-04,-1.604237021e-04,2.849147508e-04,4.422890377e-04,-8.164927922e-05,3.606397585e-04,7.986372476e-04,-1.482481018e-04,6.503891458e-04,5.993457639e-04,-1.299326020e-04,4.694131619e-04,4.556216183e-04,-1.112315092e-04,3.443901091e-04,1.951535971e-04,-1.417691103e-04,5.338448680e-05,-3.894273041e-04,6.792961535e-04,2.898688494e-04,-6.013811818e-05,-1.522943202e-05,-7.536755020e-05,-2.984217199e-04,-2.515443551e-04,-5.499660751e-04,-3.953461674e-04,1.229711782e-04,-2.723749892e-04,-2.944733732e-04,7.064063093e-05,-2.238327422e-04,-2.437032476e-04,-2.559255382e-04,-4.996287857e-04
-4.3,9.532966847e-05,-1.300124874e-04,-3.468281891e-05,2.183929028e-04,-4.499347952e-05,1.733994233e-04,1.251155037e-04,-3.318472463e-05,9.193077903e-05,-8.779878251e-05,-6.392884405e-05,-1.517276266e-04,1.945151982e-05,-1.032278771e-04,-8.377635731e-05,-2.660013232e-05,-2.505071829e-04,-2.771073152e-04,-2.194168730e-04,-5.131676907e-05,-2.707336420e-04,-9.631822688e-05,-1.600467147e-04,-2.563649416e-04,1.055317648e-04,-7.986370699e-05,2.566805782e-05,1.303603754e-04,-1.388964933e-04,-8.536117893e-06,2.068975279e-04,-1.134422323e-04,9.345529553e-05,5.282135023e-04,-1.446806018e-04,3.835329006e-04,2.217688531e-04,-2.929804273e-04,-7.121157421e-05,2.189009378e-04,-1.352911329e-04,8.360980497e-05,3.226923303e-04,-1.223975813e-04,2.002947491e-04,8.985028377e-05,-4.082099634e-05,4.902928743e-05,1.718803054e-04,-3.103487769e-04,-1.384684714e-04,2.369626726e-04,-1.538410226e-04,8.312164994e-05,-4.155720678e-04,-4.923808245e-05,-4.648101503e-04,1.600347650e-04,-1.360780637e-04,2.395670132e-05,3.590644033e-04,-2.734911933e-05,3.317152839e-04,3.145877209e-04,-6.031782348e-05,2.542698974e-04,2.139869173e-04,-2.261997361e-05,1.913669437e-04,2.155940328e-04,-5.385399154e-05,1.617400412e-04,4.347056005e-04,-1.835888518e-04,2.511167487e-04,4.681575836e-04,-1.019517969e-04,3.662057867e-04,8.003446529e-04,-1.950279465e-04,6.053167064e-04,6.154202580e-04,-1.395811453e-04,4.758391126e-04,4.307657022e-04,-1.083308862e-04,3.224348160e-04,1.901833259e-04,-1.413190719e-04,4.886425393e-05,-4.501307139e-04,6.986518147e-04,2.485211007e-04,-7.099134953e-05,-1.810836306e-05,-8.909971259e-05,-3.290764792e-04,-2.400912270e-04,-5.691677061e-04,-4.042327915e-04,9.041700203e-05,-3.138157895e-04,-3.383052916e-04,8.651810548e-05,-2.517871861e-04,-2.348665020e-04,-2.842707052e-04,-5.191372071e-04
-4.2,8.624986774e-05,-1.294465174e-04,-4.319664964e-05,2.225903311e-04,-4.486242560e-05,1.777279055e-04,1.196205326e-04,-3.232313807e-05,8.729739451e-05,-9.772598989e-05,-6.965959597e-05,-1.673855859e-04,9.687362615e-07,-1.088593415e-04,-1.078906053e-04,-2.822730625e-05,-2.482966058e-04,-2.765239121e-04,-2.336884643e-04,-6.496219128e-05,-2.986506556e-04,-1.504741972e-04,-1.635102261e-04,-3.139844233e-04,7.368426738e-05,-8.692847193e-05,-1.324420455e-05,8.114880670e-05,-1.485333852e-04,-6.738457855e-05,1.860017217e-04,-1.196975672e-04,6.630415446e-05,5.643375300e-04,-1.615815091e-04,4.027560209e-04,2.540397835e-04,-3.727085576e-04,-1.186687740e-04,2.136774839e-04,-1.401148280e-04,7.356265592e-05,3.927055264e-04,-1.573474724e-04,2.353580540e-04,6.874465903e-05,-3.596970542e-05,3.277495361e-05,1.600649157e-04,-3.548551762e-04,-1.947902604e-04,2.333654785e-04,-1.662407372e-04,6.712474125e-05,-4.448297484e-04,-4.551853196e-05,-4.903482804e-04,1.187924264e-04,-1.461024343e-04,-2.731000794e-05,3.429514579e-04,-2.878129556e-05,3.141701624e-04,3.037767582e-04,-5.826759821e-05,2.455091600e-04,2.107027375e-04,-2.017803181e-05,1.905247056e-04,2.073341395e-04,-5.099373504e-05,1.563404044e-04,4.220283641e-04,-2.055645553e-04,2.164638088e-04,4.923765255e-04,-1.222927955e-04,3.700837299e-04,7.988612725e-04,-2.409550470e-04,5.579062255e-04,6.298191537e-04,-1.493019088e-04,4.805172448e-04,4.046957531e-04,-1.048083325e-04,2.998874206e-04,1.853489825e-04,-1.406951588e-04,4.465382371e-05,-5.062773357e-04,7.105649001e-04,2.042875644e-04,-8.058540238e-05,-2.143645130e-05,-1.020218537e-04,-3.597385899e-04,-2.266150612e-04,-5.863536510e-04,-4.093869355e-04,5.577614214e-05,-3.536107934e-04,-3.783353486e-04,1.011912766e-04,-2.771440720e-04,-2.245705605e-04,-3.111259775e-04,-5.356965380e-04
-4.1,7.711605213e-05,-1.286513403e-04,-5.153528822e-05,2.264708296e-04,-4.455512525e-05,1.819157044e-04,1.135345934e-04,-3.118831531e-05,8.234627808e-05,-1.073999499e-04,-7.501466024e-05,-1.824146102e-04,-1.757341077e-05,-1.140996526e-04,-1.316730633e-04,-2.930215717e-05,-2.453344623e-04,-2.746366195e-04,-2.462078503e-04,-7.830999709e-05,-3.245178474e-04,-2.027051465e-04,-1.668815251e-04,-3.695866716e-04,4.183775968e-05,-9.360692002e-05,-5.176916034e-05,3.195120958e-05,-1.577501673e-04,-1.257989577e-04,1.643569192e-04,-1.255995174e-04,3.875740182e-05,5.969743178e-04,-1.775893547e-04,4.193849631e-04,2.858064519e-04,-4.473252371e-04,-1.615187852e-04,2.080992923e-04,-1.443232505e-04,6.377604179e-05,4.622827950e-04,-1.918288949e-04,2.704539001e-04,4.823133448e-05,-3.163447387e-05,1.659686060e-05,1.475281637e-04,-3.974184394e-04,-2.498902757e-04,2.299978879e-04,-1.780046432e-04,5.199324473e-05,-4.707467646e-04,-4.230502519e-05,-5.130517898e-04,7.778275072e-05,-1.557953607e-04,-7.801260997e-05,3.252036458e-04,-3.003830414e-05,2.951653417e-04,2.918462197e-04,-5.599543400e-05,2.358507857e-04,2.071087500e-04,-1.748672918e-05,1.896220208e-04,1.986535827e-04,-4.803103978e-05,1.506225429e-04,4.075761831e-04,-2.263124884e-04,1.812636947e-04,5.149448562e-04,-1.425734859e-04,3.723713703e-04,7.943582622e-04,-2.859437049e-04,5.084145573e-04,6.426547736e-04,-1.590626771e-04,4.835920965e-04,3.775958209e-04,-1.006399316e-04,2.769558892e-04,1.807759692e-04,-1.399079514e-04,4.086801785e-05,-5.576802557e-04,7.148947859e-04,1.572145303e-04,-8.878397078e-05,-2.520310521e-05,-1.139870760e-04,-3.902339918e-04,-2.111331846e-04,-6.013671763e-04,-4.104650405e-04,1.911275801e-05,-3.913522825e-04,-4.142024759e-04,1.146227959e-04,-2.995796800e-04,-2.130695848e-04,-3.361533246e-04,-5.492229094e-04
-4,6.811170104e-05,-1.276631354e-04,-5.955143437e-05,2.301459967e-04,-4.405609474e-05,1.860899019e-04,1.070648325e-04,-2.977440244e-05,7.729043009e-05,-1.166732035e-04,-7.996518850e-05,-1.966383920e-04,-3.598681645e-05,-1.189285130e-04,-1.549153294e-04,-2.962862886e-05,-2.418323277e-04,-2.714609565e-04,-2.567703306e-04,-9.133491717e-05,-3.481052477e-04,-2.525790002e-04,-1.703016356e-04,-4.228806358e-04,1.019574313e-05,-9.986984218e-05,-8.967409905e-05,-1.686662786e-05,-1.665273094e-04,-1.833939373e-04,1.421748356e-04,-1.311316096e-04,1.104322600e-05,6.262172396e-04,-1.926933296e-04,4.335239101e-04,3.166397731e-04,-5.163272713e-04,-1.996874982e-04,2.023729739e-04,-1.479207442e-04,5.445222973e-05,5.311013438e-04,-2.257222937e-04,3.053790501e-04,2.869228734e-05,-2.792845996e-05,7.638273730e-07,1.350825605e-04,-4.381479165e-04,-3.030653560e-04,2.270832044e-04,-1.891118659e-04,3.797133849e-05,-4.930527042e-04,-3.961836217e-05,-5.326710664e-04,3.733323433e-05,-1.651138270e-04,-1.277805927e-04,3.060345302e-04,-3.109914571e-05,2.749353844e-04,2.790032376e-04,-5.351287269e-05,2.254903649e-04,2.034370185e-04,-1.452524485e-05,1.889117736e-04,1.897307194e-04,-4.498665426e-05,1.447440652e-04,3.916358239e-04,-2.458095985e-04,1.458262254e-04,5.358832803e-04,-1.626951051e-04,3.731881752e-04,7.870035291e-04,-3.298874348e-04,4.571160943e-04,6.540614945e-04,-1.688288321e-04,4.852326624e-04,3.496601479e-04,-9.580824217e-05,2.538519057e-04,1.765866427e-04,-1.389648384e-04,3.762180429e-05,-6.042258658e-04,7.116516297e-04,1.074257639e-04,-9.545738096e-05,-2.938781016e-05,-1.248451911e-04,-4.203654617e-04,-1.936768429e-04,-6.140423047e-04,-4.071767959e-04,-1.948598681e-05,-4.266627827e-04,-4.456230704e-04,1.268179935e-04,-3.188050769e-04,-2.006386578e-04,-3.590205524e-04,-5.596592102e-04
-3.9,5.942424560e-05,-1.265173059e-04,-6.709306034e-05,2.337325500e-04,-4.335278671e-05,1.903797633e-04,1.004270049e-04,-2.807831155e-05,7.234869334e-05,-1.253936792e-04,-8.448668781e-05,-2.098803671e-04,-5.407856725e-05,-1.233281258e-04,-1.774066931e-04,-2.901816108e-05,-2.379913436e-04,-2.670095047e-04,-2.651797480e-04,-1.040142654e-04,-3.691940134e-04,-2.996899795e-04,-1.739014313e-04,-4.735914108e-04,-2.103968320e-05,-1.056902046e-04,-1.267298878e-04,-6.493846762e-05,-1.748468775e-04,-2.397853451e-04,1.196725326e-04,-1.362786899e-04,-1.660615728e-05,6.522038593e-04,-2.068988279e-04,4.453050315e-04,3.461421533e-04,-5.793647690e-04,-2.332226157e-04,1.967069878e-04,-1.509166877e-04,4.579030016e-05,5.988530202e-04,-2.589294928e-04,3.399235274e-04,1.050717372e-05,-2.495345375e-05,-1.444628003e-05,1.235158309e-04,-4.771315162e-04,-3.536156852e-04,2.248388168e-04,-1.995510699e-04,2.528774685e-05,-5.115057460e-04,-3.746231972e-05,-5.489680657e-04,-2.232382464e-06,-1.740134518e-04,-1.762458343e-04,2.856704831e-04,-3.194482810e-05,2.537256550e-04,2.654628836e-04,-5.083298933e-05,2.146298943e-04,1.999193025e-04,-1.127481258e-05,1.886444899e-04,1.807452161e-04,-4.188291254e-05,1.388623036e-04,3.745070530e-04,-2.640472515e-04,1.104598015e-04,5.552321701e-04,-1.825598376e-04,3.726723325e-04,7.769666284e-04,-3.726657725e-04,4.043008560e-04,6.641898501e-04,-1.785619819e-04,4.856278682e-04,3.210928978e-04,-9.030514013e-05,2.307877576e-04,1.728984109e-04,-1.378707168e-04,3.502769410e-05,-6.458761308e-04,7.010053764e-04,5.512924559e-05,-1.004859520e-04,-3.396089930e-05,-1.344468513e-04,-4.499169242e-04,-1.742961013e-04,-6.242130255e-04,-3.993008907e-04,-5.989923207e-05,-4.592001228e-04,-4.723901452e-04,1.378142285e-04,-3.345759166e-04,-1.875721646e-04,-3.794062175e-04,-5.669783820e-04
-3.8,5.124200141e-05,-1.252481164e-04,-7.400611498e-05,2.373501534e-04,-4.243594690e-05,1.949142065e-04,9.384171509e-05,-2.609977330e-05,6.774194180e-05,-1.334074968e-04,-8.855910054e-05,-2.219665973e-04,-7.165440283e-05,-1.272834251e-04,-1.989378279e-04,-2.729281945e-05,-2.339977713e-04,-2.612905907e-04,-2.712511478e-04,-1.163277158e-04,-3.875788636e-04,-3.436632564e-04,-1.777983824e-04,-5.214616388e-04,-5.167110141e-05,-1.110432663e-04,-1.627143677e-04,-1.119023727e-04,-1.826924791e-04,-2.945948518e-04,9.706883219e-05,-1.410270177e-04,-4.395818554e-05,6.751087534e-04,-2.202253034e-04,4.548834500e-04,3.739805700e-04,-6.362491855e-04,-2.622686155e-04,1.913059148e-04,-1.533244035e-04,3.798151133e-05,6.652511173e-04,-2.913774015e-04,3.738737158e-04,-5.958137678e-06,-2.279615396e-05,-2.875429164e-05,1.135578850e-04,-5.144200437e-04,-4.008621588e-04,2.234749928e-04,-2.093223585e-04,1.415263432e-05,-5.258987229e-04,-3.582508859e-05,-5.617238114e-04,-4.059721066e-05,-1.824493479e-04,-2.230465585e-04,2.643463012e-04,-3.255850966e-05,2.317877915e-04,2.514443141e-04,-4.797032114e-05,2.034739930e-04,1.967824258e-04,-7.719092796e-06,1.890633330e-04,1.718754055e-04,-3.874379268e-05,1.331316128e-04,3.564980845e-04,-2.810302729e-04,7.546781157e-05,5.730493320e-04,-2.020722505e-04,3.709770815e-04,7.644237252e-04,-4.141507109e-04,3.502730144e-04,6.732003249e-04,-1.882187690e-04,4.849815560e-04,2.921077665e-04,-8.413264324e-05,2.079751232e-04,1.698228224e-04,-1.366286873e-04,3.319413506e-05,-6.826661340e-04,6.832868551e-04,6.207210803e-07,-1.037630129e-04,-3.888438290e-05,-1.426473958e-04,-4.786564580e-04,-1.530656929e-04,-6.317221509e-04,-3.867004952e-04,-1.019625819e-04,-4.886630771e-04,-4.943687401e-04,1.476664802e-04,-3.467022599e-04,-1.741803967e-04,-3.970059502e-04,-5.711863470e-04
-3.7,4.375149774e-05,-1.238884435e-04,-8.013694577e-05,2.411197458e-04,-4.129977357e-05,1.998199722e-04,8.753110134e-05,-2.384136270e-05,6.368973864e-05,-1.405615376e-04,-9.216677564e-05,-2.327283133e-04,-8.852156970e-05,-1.307822537e-04,-2.193038234e-04,-2.428679478e-05,-2.300196507e-04,-2.543064455e-04,-2.748129137e-04,-1.282570205e-04,-4.030699342e-04,-3.841584231e-04,-1.820940300e-04,-5.662524531e-04,-8.150781339e-05,-1.159066379e-04,-1.974144513e-04,-1.574042577e-04,-1.900492269e-04,-3.474534846e-04,7.458176009e-05,-1.453642923e-04,-7.078253217e-05,6.951383288e-04,-2.327038775e-04,4.624344513e-04,3.999204427e-04,-6.869539842e-04,-2.870335415e-04,1.863674878e-04,-1.551602298e-04,3.120725801e-05,7.300355910e-04,-3.230190961e-04,4.070164948e-04,-2.036117859e-05,-2.152451347e-05,-4.188569206e-05,1.058544296e-04,-5.500153827e-04,-4.441609532e-04,2.231946337e-04,-2.184384562e-04,4.756177524e-06,-5.360630729e-04,-3.468094904e-05,-5.707440219e-04,-7.745307798e-05,-1.903771478e-04,-2.678302258e-04,2.423021705e-04,-3.292553260e-05,2.093766379e-04,2.371681352e-04,-4.494070564e-05,1.922274296e-04,1.942441632e-04,-3.844519134e-06,1.903996440e-04,1.632963514e-04,-3.559487430e-05,1.277014771e-04,3.379215869e-04,-2.967760246e-04,4.114556228e-05,5.894082172e-04,-2.211410677e-04,3.682671495e-04,7.495612555e-04,-4.542108106e-04,2.953504449e-04,6.812586560e-04,-1.977502100e-04,4.835084460e-04,2.629292646e-04,-7.730307787e-05,1.856261867e-04,1.674663150e-04,-1.352408331e-04,3.222548192e-05,-7.146951051e-04,6.589788527e-04,-5.571625237e-05,-1.051965716e-04,-4.411292669e-05,-1.493094983e-04,-5.063378372e-04,-1.300909195e-04,-6.364287566e-04,-3.693346460e-04,-1.454616846e-04,-5.147963306e-04,-5.114895455e-04,1.564333228e-04,-3.550562227e-04,-1.607825167e-04,-4.115387482e-04,-5.723212649e-04
-3.6,3.713560666e-05,-1.224696289e-04,-8.533402221e-05,2.451630128e-04,-3.994205757e-05,2.052209552e-04,8.171629908e-05,-2.130847743e-05,6.040782165e-05,-1.467054349e-04,-9.529836512e-05,-2.420038001e-04,-1.044907231e-04,-1.338154695e-04,-2.383061925e-04,-1.984617163e-05,-2.262042890e-04,-2.460504606e-04,-2.757081627e-04,-1.397856803e-04,-4.154938430e-04,-4.208714844e-04,-1.868725285e-04,-6.077440129e-04,-1.103665454e-04,-1.202603871e-04,-2.306269325e-04,-2.011001265e-04,-1.969038459e-04,-3.980039723e-04,5.242724661e-05,-1.492797008e-04,-9.685245423e-05,7.125291806e-04,-2.443759357e-04,4.681532448e-04,4.238601625e-04,-7.316121658e-04,-3.077520033e-04,1.820821276e-04,-1.564425612e-04,2.563956641e-05,7.929773920e-04,-3.538321006e-04,4.391452914e-04,-3.238925310e-05,-2.118528317e-05,-5.357453627e-05,1.009475735e-04,-5.838631749e-04,-4.829156014e-04,2.241937959e-04,-2.269242565e-04,-2.730460645e-06,-5.418703815e-04,-3.399158725e-05,-5.758619688e-04,-1.125006847e-04,-1.977545927e-04,-3.102552774e-04,2.197820222e-04,-3.303348905e-05,1.867485331e-04,2.228549927e-04,-4.176112146e-05,1.810938712e-04,1.925097499e-04,3.593534002e-07,1.928691033e-04,1.551786388e-04,-3.246319658e-05,1.227154422e-04,3.190918846e-04,-3.113136583e-04,7.778226258e-06,6.043968438e-04,-2.396809032e-04,3.647159405e-04,7.325778721e-04,-4.927126255e-04,2.398652466e-04,6.885332868e-04,-2.071015876e-04,4.814316993e-04,2.337956060e-04,-6.983996421e-05,1.639556418e-04,1.659321040e-04,-1.337090511e-04,3.222305289e-05,-7.421119880e-04,6.286977356e-04,-1.134142524e-04,-1.047093690e-04,-4.959508902e-05,-1.543044580e-04,-5.327020833e-04,-1.055114669e-04,-6.382135501e-04,-3.472615087e-04,-1.901315072e-04,-5.373930159e-04,-5.237434440e-04,1.641676837e-04,-3.595757603e-04,-1.476947964e-04,-4.227523924e-04,-5.704471888e-04
-3.5,3.157235620e-05,-1.210213858e-04,-8.944902962e-05,2.496028745e-04,-3.836442707e-05,2.112384474e-04,7.661545710e-05,-1.850927263e-05,5.810618447e-05,-1.516930837e-04,-9.794666285e-05,-2.496397465e-04,-1.193772483e-04,-1.363769997e-04,-2.557542480e-04,-1.382775731e-05,-2.226765237e-04,-2.365042810e-04,-2.737956003e-04,-1.508986384e-04,-4.246942387e-04,-4.535353601e-04,-1.922005748e-04,-6.457359349e-04,-1.380715723e-04,-1.240872714e-04,-2.621588437e-04,-2.426577696e-04,-2.032449786e-04,-4.459027482e-04,3.081846040e-05,-1.527640606e-04,-1.219456002e-04,7.275483480e-04,-2.552927428e-04,4.722556052e-04,4.458614019e-04,-7.705110012e-04,-3.246495994e-04,1.786333349e-04,-1.571909120e-04,2.144242292e-05,8.538820215e-04,-3.838145924e-04,4.700674291e-04,-4.176302678e-05,-2.180333022e-05,-6.356635700e-05,9.926182881e-05,-6.158499449e-04,-5.165881161e-04,2.266613825e-04,-2.348142231e-04,-8.152840594e-06,-5.432322555e-04,-3.370700350e-05,-5.769392590e-04,-1.454487671e-04,-2.045437873e-04,-3.499925544e-04,1.970322893e-04,-3.287234934e-05,1.641599400e-04,2.087245146e-04,-3.844952673e-05,1.702749879e-04,1.917688087e-04,4.899510008e-06,1.966683187e-04,1.476874422e-04,-2.937704688e-05,1.183103953e-04,3.003234491e-04,-3.246836896e-04,-2.436024051e-05,6.181171031e-04,-2.576135073e-04,3.605035958e-04,7.136854568e-04,-5.295214024e-04,1.841640544e-04,6.951943728e-04,-2.162129388e-04,4.789814339e-04,2.049612723e-04,-6.177948212e-05,1.431817902e-04,1.653218980e-04,-1.320358771e-04,3.328602096e-05,-7.650995375e-04,5.931694909e-04,-1.719300465e-04,-1.022380779e-04,-5.527475038e-05,-1.575128283e-04,-5.574806831e-04,-7.950148864e-05,-6.369821718e-04,-3.206325006e-04,-2.356617871e-04,-5.562942877e-04,-5.311794191e-04,1.709149894e-04,-3.602644297e-04,-1.352163392e-04,-4.304275424e-04,-5.656438816e-04
