Time,S1D1HbO,S1D1HbR,S1D1HbT,S2D2HbO,S2D2HbR,S2D2HbT,S3D3HbO,S3D3HbR,S3D3HbT,S4D4HbO,S4D4HbR,S4D4HbT,S5D5HbO,S5D5HbR,S5D5HbT,S6D6HbO,S6D6HbR,S6D6HbT,S7D7HbO,S7D7HbR,S7D7HbT,S8D8HbO,S8D8HbR,S8D8HbT,S9D9HbO,S9D9HbR,S9D9HbT,S10D10HbO,S10D10HbR,S10D10HbT,S11D11HbO,S11D11HbR,S11D11HbT,S12D12HbO,S12D12HbR,S12D12HbT,S13D13HbO,S13D13HbR,S13D13HbT,S14D14HbO,S14D14HbR,S14D14HbT,S15D15HbO,S15D15HbR,S15D15HbT,S16D16HbO,S16D16HbR,S16D16HbT,S17D17HbO,S17D17HbR,S17D17HbT,S18D18HbO,S18D18HbR,S18D18HbT,S19D19HbO,S19D19HbR,S19D19HbT,S20D20HbO,S20D20HbR,S20D20HbT,S21D21HbO,S21D21HbR,S21D21HbT,S22D22HbO,S22D22HbR,S22D22HbT,S23D23HbO,S23D23HbR,S23D23HbT,S24D24HbO,S24D24HbR,S24D24HbT,S25D25HbO,S25D25HbR,S25D25HbT,S26D26HbO,S26D26HbR,S26D26HbT,S27D27HbO,S27D27HbR,S27D27HbT,S28D28HbO,S28D28HbR,S28D28HbT,S29D29HbO,S29D29HbR,S29D29HbT,S30D30HbO,S30D30HbR,S30D30HbT,S31D31HbO,S31D31HbR,S31D31HbT,S32D32HbO,S32D32HbR,S32D32HbT,S33D33HbO,S33D33HbR,S33D33HbT,S34D34HbO,S34D34HbR,S34D34HbT,S35D35HbO,S35D35HbR,S35D35HbT,S36D36HbO,S36D36HbR,S36D36HbT
0.0,-0.0009225193778,0.0003386162577,-0.0005839031201,0.001063042769,-0.0002555705641,0.0008074722054,0.0005768049715,-1.891027967e-05,0.0005578946919,0.0005735136942,-0.000109175311,0.0004643383833,0.0002936531852,8.868790365e-06,0.0003025219755,0.000108511465,-7.693009837e-05,3.158136658e-05,-5.285144115e-05,8.637652472e-05,3.352508357e-05,-8.299302202e-05,7.954519857e-06,-7.503850216e-05,0.0004702913794,6.60237018e-05,0.0005363150812,-0.0004365998202,0.0002482979103,-0.0001883019099,0.0004249104885,-5.49629451e-05,0.0003699475434,0.001058467168,-0.0002153831257,0.0008430840419,0.001960006414,-0.0005517357685,0.001408270646,0.0004871056874,-0.0002167952726,0.0002703104148,0.0008041645465,-0.0002658995785,0.0005382649681,0.0008599125211,-0.0001673272122,0.0006925853088,0.0007990383155,-0.0001037173192,0.0006953209963,0.0005883061566,-0.0003220299402,0.0002662762164,0.0005708187566,-0.0001096322734,0.0004611864832,-0.000187395109,0.0001282796642,-5.911544472e-05,0.0004634386577,-9.151173347e-05,0.0003719269242,0.0002472728188,-0.0001859130769,6.135974189e-05,3.771969349e-05,0.0001045896284,0.0001423093219,-0.00110758237,0.0005196566123,-0.0005879257581,0.0005903521016,-0.0001462941893,0.0004440579123,0.0002398002983,-0.000201782457,3.801784125e-05,0.0005830107416,-0.0002590747136,0.000323936028,0.0006604527057,-0.0002979421087,0.000362510597,0.0006067725886,-0.0001830363727,0.0004237362159,0.0002159737863,-3.555967046e-06,0.0002124178193,0.0004865175791,5.47709571e-07,0.0004870652887,0.0004126214247,3.570748818e-05,0.0004483289128,0.0004919703763,7.221478038e-06,0.0004991918544,0.0002835307158,0.0003205721766,0.0006041028923,0.000697255314,-9.53687092e-05,0.0006018866048,0.0002246991569,-8.391294052e-05,0.0001407862163
0.1,-0.0009450683074,0.0003392816113,-0.000605786696,0.001088622094,-0.0002661050763,0.0008225170179,0.0005584820395,-2.311671455e-05,0.000535365325,0.000577781245,-0.0001125800661,0.0004652011789,0.0002796158113,1.355788783e-05,0.0002931736991,0.0001057580908,-7.467575577e-05,3.1082335e-05,-6.057116233e-05,9.527443601e-05,3.470327368e-05,-8.396135575e-05,1.128741384e-05,-7.267394191e-05,0.0004665427599,7.198305747e-05,0.0005385258174,-0.0004358483248,0.0002583021398,-0.000177546185,0.0004351098118,-5.062909586e-05,0.000384480716,0.001140899013,-0.0002339278084,0.0009069712042,0.002039975914,-0.0005593546457,0.001480621269,0.0005231293204,-0.0002260869474,0.000297042373,0.0008505393265,-0.0002729042271,0.0005776350994,0.0008937235005,-0.000175556041,0.0007181674596,0.0008638320948,-0.0001083740424,0.0007554580524,0.0006057115804,-0.0003226129105,0.0002830986699,0.0006248221003,-0.0001140160076,0.0005108060927,-0.0001675905343,0.0001240985202,-4.349201412e-05,0.0004747072371,-9.49671323e-05,0.0003797401048,0.0002705197062,-0.0001927403262,7.777938003e-05,2.932838975e-05,0.0001070411989,0.0001363695886,-0.001117265222,0.0005290355438,-0.0005882296786,0.000644843207,-0.0001658291762,0.0004790140308,0.0002735137633,-0.0002156981098,5.781565349e-05,0.000617379298,-0.0002424187451,0.0003749605529,0.0007181734709,-0.0003134101738,0.0004047632971,0.0006489785226,-0.000192472592,0.0004565059305,0.0002495370129,-1.46342997e-05,0.0002349027132,0.0005543661757,-1.484926772e-05,0.000539516908,0.0004584343266,2.199925871e-05,0.0004804335853,0.0005215864259,2.083133702e-05,0.0005424177629,0.0003294612068,0.0003052969787,0.0006347581855,0.0007288825627,-9.875593263e-05,0.0006301266301,0.0002464693745,-8.152660577e-05,0.0001649427688
0.2,-0.0009677471128,0.0003393004763,-0.0006284466365,0.001114614042,-0.0002767404536,0.0008378735889,0.0005386262725,-2.790185363e-05,0.0005107244189,0.0005813654656,-0.0001160009704,0.0004653644952,0.0002647680033,1.825462802e-05,0.0002830226313,0.0001056265791,-7.262683122e-05,3.299974787e-05,-6.475591906e-05,0.0001043388486,3.958292957e-05,-8.090945072e-05,1.502706224e-05,-6.588238849e-05,0.0004627487757,7.847172261e-05,0.0005412204984,-0.0004327116112,0.0002688391261,-0.0001638724851,0.0004470492854,-4.667942199e-05,0.0004003698634,0.001227694922,-0.000253225151,0.0009744697714,0.002124923625,-0.0005679366652,0.00155698696,0.000561839388,-0.000235597144,0.0003262422441,0.0009009958322,-0.0002799576987,0.0006210381335,0.0009303718269,-0.0001838322875,0.0007465395394,0.0009340122827,-0.0001137768667,0.0008202354161,0.000625167303,-0.0003230427844,0.0003021245186,0.0006828382997,-0.000118528031,0.0005643102687,-0.0001451100856,0.0001197597468,-2.535033881e-05,0.000485914395,-9.851861799e-05,0.000387395777,0.0002953773467,-0.0001999280364,9.544931029e-05,1.988182417e-05,0.0001093786064,0.0001292604306,-0.001126898092,0.0005382063417,-0.00058869175,0.000703264189,-0.0001863317289,0.00051693246,0.0003089796386,-0.0002295491615,7.943047708e-05,0.0006606285555,-0.0002276523306,0.0004329762249,0.0007782102629,-0.0003277307141,0.0004504795488,0.0006947093896,-0.0002018013542,0.0004929080354,0.0002856799063,-2.615127705e-05,0.0002595286293,0.000627051764,-3.049193422e-05,0.0005965598298,0.000507548761,8.159718674e-06,0.0005157084797,0.0005545365458,3.609058644e-05,0.0005906271323,0.0003790334032,0.0002897852465,0.0006688186497,0.000763920475,-0.0001029172295,0.0006610032455,0.0002704012772,-7.94884572e-05,0.00019091282
0.3,-0.0009903761377,0.0003386776629,-0.0006516984748,0.00114113449,-0.0002874724821,0.0008536620078,0.0005175423695,-3.327922262e-05,0.0004842631469,0.0005843808753,-0.0001194505741,0.0004649303011,0.0002493384568,2.291789686e-05,0.0002722563537,0.0001082560038,-7.083867117e-05,3.741733265e-05,-6.52160348e-05,0.000113498034,4.828199924e-05,-7.371351542e-05,1.915773298e-05,-5.455578244e-05,0.000459301174,8.549736828e-05,0.0005447985423,-0.0004269345675,0.000279871217,-0.0001470633505,0.0004609760089,-4.316492801e-05,0.0004178110809,0.001318692438,-0.0002732239449,0.001045468493,0.002214840444,-0.0005776013327,0.001637239111,0.0006032687591,-0.0002453505281,0.000357918231,0.000955612408,-0.0002871197729,0.0006684926351,0.000969888019,-0.00019215601,0.000777732009,0.001009611445,-0.0001199752906,0.0008896361543,0.0006467272526,-0.0003233687462,0.0003233585064,0.0007449128452,-0.0001232002333,0.0006217126119,-0.0001198319479,0.0001152552663,-4.576681637e-06,0.0004972509971,-0.0001021717756,0.0003950792215,0.0003219232741,-0.0002074860898,0.0001144371843,9.631654362e-06,0.0001115806887,0.0001212123431,-0.001136415168,0.0005471562172,-0.0005892589509,0.0007655674142,-0.0002077421531,0.0005578252611,0.0003462690612,-0.0002433705939,0.0001028984673,0.0007130520718,-0.0002150955984,0.0004979564734,0.000840567737,-0.0003409250308,0.0004996427062,0.0007439883319,-0.0002110485296,0.0005329398023,0.0003244224633,-3.807273438e-05,0.000286349729,0.0007044246307,-4.625406688e-05,0.0006581705638,0.0005600387393,-5.755720372e-06,0.0005542830189,0.0005908950658,5.296839772e-05,0.0006438634635,0.0004321825628,0.0002741793015,0.0007063618644,0.000802341824,-0.0001077709304,0.0006945708936,0.0002965779211,-7.774647249e-05,0.0002188314487
0.4,-0.001012757818,0.0003374216575,-0.00067533616,0.001168310116,-0.0002982985963,0.0008700115199,0.0004955629228,-3.925986179e-05,0.000456303061,0.0005869650158,-0.0001229433603,0.0004640216555,0.000233583989,2.75049966e-05,0.0002610889856,0.0001137732031,-6.936365753e-05,4.440954555e-05,-6.177330397e-05,0.0001226761392,6.090283528e-05,-6.22573836e-05,2.364541446e-05,-3.861196914e-05,0.0004566065232,9.30628023e-05,0.0005496693255,-0.0004182686703,0.0002913527548,-0.0001269159155,0.000477144766,-4.013732437e-05,0.0004370074417,0.00141371297,-0.0002938785933,0.001119834376,0.002309667333,-0.0005884277586,0.001721239575,0.0006474388116,-0.0002553785142,0.0003920602974,0.001014440016,-0.0002944498916,0.0007199901245,0.001012286474,-0.0002005291868,0.0008117572872,0.001090643112,-0.0001270155145,0.0009636275974,0.0006704335671,-0.0003236409635,0.0003467926036,0.0008110548855,-0.0001280581949,0.0006829966906,-9.164493944e-05,0.0001105780608,1.893312135e-05,0.0005089397572,-0.0001059309636,0.0004030087937,0.0003502485346,-0.0002154245936,0.000134823941,-1.14599426e-06,0.0001136268062,0.0001124808119,-0.001145737741,0.0005558717384,-0.0005898660027,0.0008316787642,-0.0002299977682,0.000601680996,0.0003854468378,-0.000257203177,0.0001282436607,0.0007748275149,-0.0002050327002,0.0005697948147,0.0009052420293,-0.0003530351322,0.0005522068971,0.0007968179108,-0.000220239748,0.0005765781628,0.0003657693936,-5.036220923e-05,0.0003154071844,0.0007863186177,-6.20125451e-05,0.0007243060726,0.00061595966,-1.969173794e-05,0.0005962679221,0.0006307296913,7.140251309e-05,0.0007021322044,0.0004888334525,0.0002586103475,0.0007474438,0.000844097106,-0.0001132198671,0.0007308772388,0.0003250705725,-7.62441818e-05,0.0002488263907
0.5,-0.001034679887,0.0003355448118,-0.0006991350749,0.001196275329,-0.0003092175961,0.0008870577325,0.0004730451601,-4.585204229e-05,0.0004271931179,0.0005892760931,-0.0001264954991,0.000462780594,0.0002177875997,3.197198982e-05,0.0002497595895,0.0001222915386,-6.825134634e-05,5.404019227e-05,-5.426336052e-05,0.0001317942858,7.753092527e-05,-4.643318858e-05,2.843718028e-05,-1.799600829e-05,0.0004550803682,0.0001011655231,0.0005562458913,-0.0004064761661,0.0003032304145,-0.0001032457516,0.0004958153797,-3.764851029e-05,0.0004581668695,0.001512562465,-0.0003151501446,0.001197412321,0.002409298233,-0.0006004563087,0.001808841924,0.000694357304,-0.0002657175841,0.0004286397198,0.001077500241,-0.0003020062067,0.0007754940342,0.00105756413,-0.0002089554455,0.0008486086849,0.001177100003,-0.0001349407478,0.001042159256,0.0006963144712,-0.0003239094555,0.0003724050157,0.0008812340188,-0.0001331194539,0.000748114565,-6.045152301e-05,0.000105722042,4.527051901e-05,0.0005212327296,-0.0001097992117,0.0004114335179,0.000380455492,-0.0002237535551,0.0001567019369,-1.215362147e-05,0.0001154970869,0.0001033434654,-0.001154775484,0.0005643392741,-0.0005904362103,0.0009014968026,-0.0002530337499,0.0006484630527,0.0004265697544,-0.0002710929826,0.0001554767718,0.0008460054269,-0.0001977040015,0.0006483014253,0.0009722197355,-0.0003641242555,0.00060809548,0.0008531777083,-0.00022939964,0.0006237780683,0.0004097093253,-6.298178498e-05,0.0003467275404,0.0008725529708,-7.765052972e-05,0.0007949024411,0.000675344603,-3.359329451e-05,0.0006417513085,0.0006741002937,9.130019116e-05,0.0007654004849,0.0005488983705,0.0002431955265,0.000792093897,0.000889113222,-0.0001191522694,0.0007699609526,0.0003559389817,-7.492478274e-05,0.000281014199
0.6,-0.001055918582,0.0003330636094,-0.0007228549723,0.001225169218,-0.000320229212,0.0009049400057,0.0004503674358,-5.306100606e-05,0.0003973064297,0.0005914902055,-0.0001301245128,0.0004613656927,0.0002022561117,3.627403595e-05,0.0002385301476,0.000133909508,-6.754892893e-05,6.636057904e-05,-4.253828562e-05,0.0001407716164,9.823333078e-05,-2.614368301e-05,3.346207045e-05,7.318387443e-06,0.000455141275,0.0001097973265,0.0005649386014,-0.0003913343319,0.0003154436479,-7.589068396e-05,0.0005172493829,-3.575003789e-05,0.000481499345,0.001615031833,-0.0003370067691,0.001278025063,0.002513583952,-0.0006136922114,0.001899891741,0.0007440160722,-0.0002764075781,0.0004676084942,0.001144783605,-0.0003098449494,0.0008349386553,0.0011056992,-0.000217439766,0.000888259434,0.001268951961,-0.000143791053,0.001125160908,0.0007243826929,-0.0003242229756,0.0004001597173,0.0009553782191,-0.0001383923888,0.0008169858303,-2.617088355e-05,0.0001006819783,7.451109478e-05,0.0005344081399,-0.0001137781383,0.0004206300015,0.0004126549893,-0.0002324826048,0.0001801723844,-2.307622454e-05,0.000117172611,9.40963865e-05,-0.001163428131,0.0005725455073,-0.0005908826241,0.0009748921998,-0.0002767835332,0.0006981086666,0.0004696852308,-0.0002850908301,0.0001845944006,0.0009264982024,-0.0001932958039,0.0007332023984,0.0010414769,-0.0003742771371,0.0006671997629,0.0009130220447,-0.0002385514712,0.0006744705736,0.0004562134831,-7.589254672e-05,0.0003803209364,0.0009629338258,-9.306048369e-05,0.0008698733421,0.0007382009977,-4.740634348e-05,0.0006907946543,0.0007210575267,0.000112538553,0.0008335960797,0.0006122753185,0.0002280352453,0.0008403105638,0.0009372927895,-0.000125443925,0.0008118488644,0.0003892303428,-7.373383192e-05,0.0003154965109
0.7,-0.001076242351,0.0003299989768,-0.0007462433741,0.001255131877,-0.0003313335431,0.0009237983335,0.0004279249226,-6.088878455e-05,0.000367036138,0.000593797758,-0.0001338488833,0.0004599488747,0.0001873166751,4.036572368e-05,0.0002276823988,0.0001487085428,-6.73016487e-05,8.14068941e-05,-2.64699986e-05,0.0001495262851,0.0001230562865,-1.306548678e-06,3.863335305e-05,3.732680437e-05,0.0004572041964,0.0001189440126,0.000576148209,-0.0003726406332,0.0003279253317,-4.471530144e-05,0.0005417050852,-3.449250322e-05,0.000507212582,0.001720896595,-0.0003594241331,0.001361472461,0.002622335008,-0.0006281105656,0.001994224443,0.0007963882278,-0.0002874900788,0.0005088981489,0.001216247538,-0.0003180201628,0.000898227375,0.001156649414,-0.0002259883046,0.0009306611094,0.001366141618,-0.0001536023201,0.001212539298,0.0007546336051,-0.0003246279184,0.0004300056867,0.00103337165,-0.0001438760266,0.0008894956239,1.125763441e-05,9.545350098e-05,0.0001067111354,0.0005487661547,-0.000117867849,0.0004308983057,0.0004469623951,-0.0002416206423,0.0002053417528,-3.358612029e-05,0.0001186355797,8.504945937e-05,-0.001171587851,0.0005804779103,-0.0005911099405,0.001051706504,-0.0003011789133,0.0007505275904,0.0005148297642,-0.00029925164,0.0002155781242,0.001016071099,-0.0001919298469,0.0008241412518,0.001112976931,-0.0003835997429,0.0007293771883,0.0009762776166,-0.0002477169735,0.0007285606432,0.000505233354,-8.905445285e-05,0.0004161789011,0.001057254374,-0.0001081468566,0.0009491075174,0.0008045073776,-6.107892275e-05,0.0007434284548,0.0007716385924,0.0001349657596,0.0009066043521,0.0006788456812,0.0002132106942,0.0008920563754,0.0009885131005,-0.0001319608704,0.0008565522302,0.0004249767602,-7.262105329e-05,0.0003523557069
0.8,-0.001095416188,0.0003263765976,-0.0007690395904,0.001286300084,-0.0003425304344,0.0009437696495,0.0004061247099,-6.933403494e-05,0.000336790675,0.0005963993353,-0.0001376876307,0.0004587117046,0.000173312386,4.420142924e-05,0.0002175138152,0.0001667502218,-6.755291057e-05,9.919731125e-05,-5.954120252e-06,0.0001579764606,0.0001520223403,2.813995833e-05,4.385185646e-05,7.19918148e-05,0.000461673507,0.0001285852357,0.0005902587428,-0.0003502183858,0.0003406026571,-9.615728713e-06,0.0005694318375,-3.392484523e-05,0.0005355069923,0.001829916588,-0.0003823858894,0.001447530698,0.00273532399,-0.0006436622713,0.002091661719,0.0008514255451,-0.0002990070156,0.0005524185295,0.001291814297,-0.0003265834924,0.0009652308042,0.001210350158,-0.0002346083733,0.0009757417848,0.001468578477,-0.0001644047089,0.001304173768,0.000787043065,-0.0003251672803,0.0004618757846,0.001115052389,-0.0001495607057,0.0009654916829,5.187143874e-05,9.003300512e-05,0.0001419044439,0.0005646239564,-0.0001220668692,0.0004425570871,0.0004834930208,-0.0002511753837,0.0002323176371,-4.334792032e-05,0.0001198695304,7.652161004e-05,-0.001179141844,0.0005881251123,-0.0005910167321,0.00113175047,-0.0003261501244,0.0008056003456,0.0005620270276,-0.0003136336108,0.0002483934168,0.001114339315,-0.0001936574703,0.0009206818449,0.001186667759,-0.000392218194,0.0007944495655,0.001042841709,-0.0002569162852,0.0007859254237,0.0005566979801,-0.0001024256891,0.000454272291,0.00115529387,-0.0001228282044,0.001032465665,0.0008742108407,-7.456256938e-05,0.0007996482713,0.0008258602373,0.0001584043003,0.0009842645376,0.000748471709,0.0001987820351,0.0009472537441,0.001042624635,-0.0001385618449,0.0009040627896,0.0004631919335,-7.154185766e-05,0.0003916500759
0.9,-0.00111320609,0.0003222272028,-0.0007909788875,0.0013188031,-0.0003538188656,0.0009649842348,0.0003853810261,-7.839178598e-05,0.0003069892401,0.0005995017737,-0.0001416598896,0.0004578418841,0.0001605979404,4.773573517e-05,0.0002083336756,0.0001880737555,-6.834410619e-05,0.0001197296493,1.908656082e-05,0.0001660413802,0.000185127941,6.223143758e-05,4.900984725e-05,0.0001112412848,0.0004689366114,0.0001386944872,0.0006076310986,-0.0003239217377,0.0003533981878,2.947645012e-05,0.0006006651542,-3.409361534e-05,0.0005665715388,0.001941836886,-0.0004058839984,0.001535952888,0.002852289231,-0.0006602802441,0.002192008987,0.0009090571377,-0.0003109996509,0.0005980574868,0.00137136984,-0.000335583758,0.001035786082,0.001266713487,-0.0002433085075,0.001023404979,0.001576133988,-0.0001762213368,0.001399912651,0.0008215656924,-0.0003258797114,0.000495685981,0.001200211267,-0.0001554291152,0.001044782151,9.568279048e-05,8.441739189e-05,0.0001801001824,0.0005823108854,-0.0001263721555,0.0004559387299,0.0005223578903,-0.0002611528973,0.000261204993,-5.202270537e-05,0.0001208596146,6.883690923e-05,-0.001185974414,0.0005954771779,-0.0005904972362,0.001214803076,-0.0003516259834,0.0008631770927,0.0006112859673,-0.0003282970898,0.0002829888775,0.001220775275,-0.0001984622531,0.001022313021,0.001262479564,-0.0004002768067,0.0008622027573,0.0011125817,-0.0002661679018,0.0008464137982,0.0006105120133,-0.0001159618176,0.0004945501956,0.00125681643,-0.0001370386088,0.001119777821,0.0009472260895,-8.781405192e-05,0.0008594120376,0.0008837118703,0.0001826560729,0.001066367943,0.0008209946385,0.0001847879977,0.001005782636,0.001099450311,-0.0001451006326,0.000954349678,0.0005038682696,-7.045880578e-05,0.0004334094638
1.0,-0.001129383029,0.0003175868151,-0.0008117962141,0.001352759328,-0.000365196404,0.0009875629241,0.0003661110516,-8.805307671e-05,0.0002780579749,0.0006033149284,-0.0001457845031,0.0004575304253,0.0001495358968,5.092391711e-05,0.0002004598139,0.0002126943927,-6.971433978e-05,0.0001429800529,4.869957946e-05,0.0001736424135,0.000222341993,0.0001009729581,5.399493148e-05,0.0001549678895,0.0004793586438,0.0001492391659,0.0006285978097,-0.0002936392392,0.0003662309636,7.259172433e-05,0.0006356235012,-3.504230053e-05,0.0006005812007,0.00205638998,-0.0004299183113,0.001626471669,0.002972940111,-0.0006778849771,0.002295055134,0.0009691896848,-0.000323507895,0.0006456817897,0.001454764264,-0.0003450663602,0.001109697904,0.00132562862,-0.0002520985513,0.001073530069,0.001688639476,-0.0001890677065,0.00149957177,0.0008581342057,-0.0003267986723,0.0005313355334,0.001288593092,-0.0001614573098,0.001127135782,0.0001426780381,7.86038893e-05,0.0002212819274,0.0006021640316,-0.0001307791385,0.0004713848931,0.0005636604153,-0.0002715572221,0.0002921031933,-5.92713064e-05,0.0001215928759,6.232156952e-05,-0.001191968331,0.000602525894,-0.000589442437,0.001300612135,-0.0003775340284,0.0009230781067,0.0006625992613,-0.0003433030732,0.0003192961881,0.001334725919,-0.0002062699972,0.001128455922,0.001340324068,-0.0004079353976,0.0009323886706,0.001185335658,-0.0002754884118,0.0009098472466,0.000666555023,-0.0001296150669,0.000536939956,0.001361570278,-0.0001507284216,0.001210841857,0.001023436105,-0.0001007972747,0.0009226388303,0.0009451513868,0.0002075075924,0.001152658979,0.0008962339953,0.0001712470745,0.00106748107,0.001158786497,-0.0001514286828,0.001007357814,0.0005469761992,-6.934369776e-05,0.0004776325014
1.1,-0.001143726361,0.0003124969101,-0.0008312294511,0.001388273834,-0.0003766587781,0.001011615056,0.0003487309975,-9.830461251e-05,0.000250426385,0.0006080489163,-0.0001500796416,0.0004579692747,0.0001404931145,5.372246967e-05,0.0001942155842,0.0002406025099,-7.17001671e-05,0.0001689023428,8.290091294e-05,0.0001807040667,0.0002636049796,0.0001443359305,5.869352728e-05,0.0002030294577,0.000493277786,0.000160180712,0.000653458498,-0.0002592965065,0.0003790175919,0.0001197210854,0.0006745058795,-3.681071744e-05,0.0006376951621,0.002173297478,-0.0004544950167,0.001718802461,0.003096962171,-0.0006963891006,0.00240057307,0.001031708086,-0.000336569581,0.0006951385049,0.001541812955,-0.0003550726478,0.001186740308,0.001386963358,-0.0002609897041,0.001125973654,0.00180588628,-0.0002029518543,0.001602934426,0.0008966595619,-0.0003279517376,0.0005687078243,0.001379900142,-0.0001676157473,0.001212284395,0.0001928170882,7.259016765e-05,0.0002654072558,0.0006245239164,-0.0001352817246,0.0004892421917,0.0006074936099,-0.0002823900945,0.0003251035153,-6.475750432e-05,0.0001220584521,5.730094778e-05,-0.001197006116,0.000609265124,-0.0005877409925,0.001388896359,-0.0004038007004,0.0009850956587,0.0007159420249,-0.0003587114253,0.0003572305996,0.001455434613,-0.0002169610265,0.001238473587,0.001420094895,-0.0004153659611,0.001004728934,0.001260913042,-0.000284891796,0.0009760212463,0.0007246816861,-0.0001433340127,0.0005813476734,0.001469287248,-0.0001638645275,0.00130542272,0.001102693324,-0.0001134849885,0.0009892083358,0.001010103688,0.0002327335284,0.001242837216,0.0009739874772,0.0001581598683,0.001132147345,0.001220405131,-0.0001573978665,0.001063007264,0.0005924665299,-6.818114647e-05,0.0005242853834
1.2,-0.00115602717,0.0003070044345,-0.0008490227357,0.001425436109,-0.0003881996279,0.001037236481,0.0003336517315,-0.0001091285901,0.0002245231414,0.0006139112319,-0.0001545624295,0.0004593488024,0.0001338364703,5.608963746e-05,0.0001899261078,0.0002717625858,-7.433530449e-05,0.0001974272813,0.0001216729807,0.0001871548892,0.0003088278699,0.0001922556164,6.299359798e-05,0.0002552492144,0.0005110002743,0.0001714748114,0.0006824750858,-0.000220859043,0.000391673346,0.000170814303,0.0007174887368,-3.943443199e-05,0.0006780543048,0.002292269362,-0.0004796239938,0.001812645369,0.003224020246,-0.0007157019162,0.00250831833,0.001096475147,-0.0003502193786,0.0007462557688,0.001632296923,-0.0003656391778,0.001266657746,0.001450565119,-0.0002699944375,0.001180570681,0.001927625958,-0.0002178749175,0.00170975104,0.0009370310505,-0.0003293601317,0.0006076709188,0.001473796434,-0.0001738706027,0.001299925831,0.0002460323588,6.637464844e-05,0.0003124070073,0.0006497296842,-0.0001398722731,0.0005098574111,0.0006539370884,-0.0002936507413,0.0003602863472,-6.815183767e-05,0.000122247689,5.409585128e-05,-0.001200971894,0.0006156911822,-0.0005852807122,0.00147934793,-0.000430351755,0.001048996175,0.0007712702992,-0.0003745789909,0.0003966913083,0.001582061672,-0.0002303806815,0.001351680991,0.001501667338,-0.0004227485703,0.001078918768,0.001339094851,-0.0002943882792,0.001044706572,0.0007847224594,-0.0001570638498,0.0006276586095,0.001579682112,-0.000176430411,0.001403251701,0.001184819937,-0.0001258598509,0.001058960087,0.001078460238,0.0002580980877,0.001336558325,0.00105403027,0.0001455120232,0.001199542293,0.001284055424,-0.0001628629805,0.001121192444,0.0006402744265,-6.697323915e-05,0.0005733011874
1.3,-0.00116609194,0.0003011616393,-0.0008649303005,0.001464317657,-0.0003998104322,0.001064507225,0.0003212737475,-0.0001205027271,0.0002007710205,0.0006211035264,-0.0001592485522,0.0004618549742,0.0001299276039,5.798594292e-05,0.0001879135468,0.0003061117342,-7.765021964e-05,0.0002284615145,0.000164962354,0.0001929282836,0.0003578906376,0.0002446288333,6.678675845e-05,0.0003114155918,0.0005327948386,0.0001830716801,0.0007158665188,-0.0001783354907,0.0004041132805,0.0002257777897,0.0007647219218,-4.29441728e-05,0.000721777749,0.002413000594,-0.0005053154512,0.001907685143,0.003353759573,-0.000735734972,0.002618024601,0.001163330226,-0.0003644874329,0.0007988427927,0.00172596205,-0.0003767968129,0.001349165237,0.00151626099,-0.000279126174,0.001237134816,0.002053569167,-0.0002338318027,0.001819737364,0.0009791158607,-0.0003310385341,0.0006480773266,0.001569911512,-0.0001801854685,0.001389726044,0.0003022274239,5.995672003e-05,0.0003621841439,0.0006781137852,-0.0001445416345,0.0005335721507,0.0007030537121,-0.00030533569,0.0003977180221,-6.91357178e-05,0.000122154232,5.301851415e-05,-0.001203753707,0.0006218031342,-0.0005819505725,0.00157163502,-0.0004571130956,0.001114521925,0.0008285191335,-0.0003909577389,0.0004375613946,0.001713701374,-0.0002463473272,0.001467354047,0.001584896849,-0.0004302664911,0.001154630358,0.001419633598,-0.0003039829587,0.001115650639,0.0008464849071,-0.0001707473539,0.0006757375532,0.001692451737,-0.0001884260559,0.001504025681,0.001269607095,-0.000137914636,0.001131692459,0.001150078638,0.0002833554578,0.001433434095,0.001136113811,0.00013327727,0.001269391081,0.001349464697,-0.000167684067,0.00118178063,0.0006903227731,-6.574373568e-05,0.0006245790374
1.4,-0.0011737463,0.0002950257526,-0.0008787205469,0.001504969763,-0.0004114804979,0.001093489265,0.0003119821258,-0.0001324004116,0.0001795817141,0.0006298185236,-0.0001641518362,0.0004656666874,0.0001291174707,5.937471885e-05,0.0001884921895,0.0003435583475,-8.167157339e-05,0.0002618867741,0.0002126778986,0.0001979632209,0.0004106411195,0.0003013122336,6.997015e-05,0.0003712823836,0.0005588874092,0.0001949164083,0.0007538038175,-0.0001317803493,0.0004162533443,0.000284472995,0.0008163249703,-4.736526696e-05,0.0007689597034,0.002535166915,-0.0005315763539,0.002003590561,0.003485806873,-0.0007564085291,0.002729398344,0.001232088183,-0.0003793980826,0.0008526901002,0.001822518779,-0.0003885698229,0.001433948956,0.001583857406,-0.0002883986435,0.001295458763,0.002183384125,-0.0002508119067,0.001932572219,0.001022758597,-0.0003329951114,0.000689763486,0.001667844279,-0.0001865233299,0.001481320949,0.0003612763471,5.333672272e-05,0.0004146130698,0.0007099968784,-0.0001492792804,0.000560717598,0.0007548866813,-0.000317438582,0.0004374480993,-6.740479746e-05,0.0001217741756,5.436937814e-05,-0.001205245469,0.0006276029734,-0.0005776424959,0.001665404857,-0.0004840121885,0.001181392668,0.0008876007225,-0.0004078930135,0.000479707709,0.001849396721,-0.0002646588658,0.001584737855,0.00166961772,-0.0004381010857,0.001231516635,0.00150225412,-0.0003136745136,0.001188579607,0.0009097562015,-0.0001843263744,0.0007254298271,0.001807274516,-0.0001998671874,0.001607407329,0.001356814374,-0.0001496518268,0.001207162547,0.001224782816,0.0003082507596,0.001533033575,0.001219965562,0.0001214201949,0.001341385757,0.001416339394,-0.0001717289854,0.001244610409,0.0007425239507,-6.454072883e-05,0.0006779832219
1.5,-0.001178838064,0.0002886585512,-0.0008901795123,0.001547422235,-0.0004231968886,0.001124225346,0.0003061424428,-0.0001447908836,0.0001613515592,0.0006402378039,-0.0001692838356,0.0004709539684,0.0001317418318,6.022264089e-05,0.0001919644727,0.0003839817268,-8.642159795e-05,0.0002975601289,0.0002646903618,0.0002022048306,0.0004668951924,0.0003621223227,7.244803675e-05,0.0004345703594,0.0005894573215,0.0002069493477,0.0007964066692,-8.129483486e-05,0.0004280114661,0.0003467166312,0.0008723853014,-5.271714892e-05,0.0008196681525,0.002658422507,-0.0005584072412,0.002100015266,0.003619774196,-0.0007776578627,0.002842116333,0.001302540044,-0.0003949688684,0.000907571176,0.001921644138,-0.0004009752595,0.001520668878,0.001653140736,-0.0002978249541,0.001355315782,0.002316697061,-0.0002688000989,0.002047896962,0.001067781859,-0.0003352318124,0.000732550047,0.001767168466,-0.0001928485326,0.001574319934,0.0004230245106,4.651585128e-05,0.0004695403619,0.0007456837843,-0.0001540734457,0.0005916103386,0.0008094580246,-0.0003299499679,0.0004795080567,-6.267089781e-05,0.0001211062705,5.843537272e-05,-0.001205347887,0.0006330957071,-0.0005722521797,0.001760288468,-0.0005109800072,0.001249308461,0.0009484034526,-0.0004254219605,0.0005229814922,0.001988154172,-0.0002850982705,0.001703055901,0.001755643946,-0.0004464271197,0.001309216827,0.001586656017,-0.0003234542195,0.001263201797,0.0009743070395,-0.0001977435633,0.0007765634762,0.0019238105,-0.0002107832518,0.001713027249,0.001446171212,-0.0001610830387,0.001285088174,0.001302365071,0.0003325220402,0.001634887111,0.001305291381,0.0001098986027,0.001415189984,0.001484367656,-0.0001748763965,0.00130949126,0.000796780404,-6.34376693e-05,0.0007333427347
1.6,-0.001181238987,0.0002821258751,-0.0008991131117,0.001591683525,-0.0004349442762,0.001156739249,0.0003040980292,-0.0001576394412,0.000146458588,0.00065253073,-0.0001746534861,0.000477877244,0.0001381181203,6.05002301e-05,0.0001986183504,0.0004272330706,-9.191759352e-05,0.0003353154771,0.0003208337112,0.0002056048322,0.0005264385434,0.0004268380294,7.413255517e-05,0.0005009705846,0.0006246354661,0.0002191065587,0.0008437420248,-2.702553403e-05,0.0004393085966,0.0004122830625,0.0009329584803,-5.901296353e-05,0.0008739455168,0.002782400764,-0.0005857999983,0.002196600765,0.003755265968,-0.0007994379851,0.002955827983,0.001374455403,-0.0004112097332,0.0009632456693,0.002022986409,-0.0004140228464,0.001608963562,0.001723879328,-0.000307416582,0.001416462746,0.002453095922,-0.0002877780134,0.002165317909,0.001113988594,-0.0003377450811,0.0007762435129,0.00186744043,-0.000199128506,0.001668311924,0.0004872907172,3.949618307e-05,0.0005267869003,0.0007854605479,-0.0001589112085,0.0006265493395,0.0008667684864,-0.000342857064,0.0005239114224,-5.466300615e-05,0.0001201520821,6.548907595e-05,-0.001203968552,0.0006382894199,-0.0005656791319,0.001855907305,-0.0005379529877,0.001317954318,0.001010792407,-0.0004435722406,0.0005672201661,0.002128959686,-0.000307438259,0.001821521427,0.001842772361,-0.0004554084512,0.00138736391,0.001672517517,-0.0003333054354,0.001339212081,0.001039896451,-0.0002109441462,0.0008289523048,0.002041701968,-0.0002212141655,0.001820487802,0.001537380587,-0.0001722285382,0.001365152048,0.001382589647,0.0003559034399,0.001738493087,0.001391780298,9.866569696e-05,0.001490445995,0.001553223683,-0.0001770188194,0.001376204864,0.0008529843577,-6.253267525e-05,0.0007904516824
1.7,-0.00118084544,0.0002754970978,-0.0009053483419,0.001637741725,-0.0004467048028,0.001191036922,0.0003061680335,-0.0001709077197,0.0001352603138,0.0006668539743,-0.000180266856,0.0004865871183,0.0001485430357,6.01822903e-05,0.000208725326,0.0004731373451,-9.817163187e-05,0.0003749657132,0.0003809073881,0.0002081218539,0.000589029242,0.0004952049902,7.494349442e-05,0.0005701484847,0.000664503598,0.0002313203448,0.0008958239428,3.08380572e-05,0.0004500696913,0.0004809077485,0.0009980689669,-6.625925213e-05,0.0009318097148,0.00290671694,-0.0006137368051,0.002292980135,0.003891885833,-0.0008217255614,0.003070160272,0.001447585249,-0.0004281222229,0.001019463026,0.002126170823,-0.0004277154427,0.00169845538,0.001795826316,-0.0003171825501,0.001478643766,0.00259213587,-0.0003077253998,0.00228441047,0.001161165757,-0.0003405270817,0.0008206386757,0.001968207833,-0.0002053352638,0.001762872569,0.0005538695869,3.228079625e-05,0.0005861503831,0.0008295917823,-0.0001637785529,0.0006658132294,0.0009267977709,-0.0003561434939,0.000570654277,-4.312857872e-05,0.0001189159906,7.578741188e-05,-0.001201022146,0.0006431953453,-0.0005578268009,0.001951880317,-0.000564874306,0.001387006011,0.001074611043,-0.0004623611415,0.000612249902,0.002270795692,-0.0003314454255,0.001939350267,0.001930786304,-0.000465193932,0.001465592372,0.001759499788,-0.0003432037503,0.001416296037,0.001106276366,-0.0002238776458,0.0008823987202,0.00216057361,-0.0002312066343,0.001929366975,0.001630123342,-0.0001831166795,0.001447006663,0.001465195572,0.0003781295569,0.001843325129,0.001479109729,8.767227495e-05,0.001566782004,0.001622572644,-0.0001780653117,0.001444507332,0.0009110162857,-6.194542098e-05,0.0008490708647
1.8,-0.001177578738,0.0002688445518,-0.0009087341862,0.00168556543,-0.0004584580269,0.001227107403,0.0003126454214,-0.0001845540386,0.0001280913828,0.0006833507863,-0.0001861269518,0.0004972238345,0.0001632898877,5.924827171e-05,0.0002225381594,0.0005214952867,-0.0001051903839,0.0004163049028,0.000444678292,0.0002097217302,0.0006544000222,0.0005669395681,7.48078397e-05,0.0006417474078,0.0007090936937,0.0002435198802,0.0009526135739,9.20657105e-05,0.0004602246001,0.0005522903106,0.001067709666,-7.44557126e-05,0.0009932539533,0.00303097041,-0.0006421900517,0.002388780358,0.004029239714,-0.0008445179389,0.003184721775,0.001521663975,-0.0004456986758,0.001075965299,0.002230804164,-0.0004420497961,0.001788754368,0.001868721941,-0.0003271289365,0.001541593004,0.002733343882,-0.0003286212531,0.002404722629,0.001209088138,-0.0003435673172,0.0008655208212,0.002069017046,-0.0002114468193,0.001857570227,0.0006225334812,2.487379077e-05,0.000647407272,0.0008783174421,-0.0001686605328,0.0007096569093,0.0009895041608,-0.0003697890952,0.0006197150656,-2.783580464e-05,0.0001174050371,8.956923244e-05,-0.001196431361,0.0006478278993,-0.0005486034621,0.00204782962,-0.0005916942204,0.001456135399,0.001139683209,-0.0004817950858,0.0006578881234,0.002412657447,-0.0003568840746,0.002055773373,0.00201945822,-0.0004759137681,0.001543544452,0.001847250736,-0.0003531178028,0.001494132933,0.001173195042,-0.0002364994393,0.0009366956027,0.002280031775,-0.0002408108994,0.002039220875,0.001724061375,-0.0001937829168,0.001530278458,0.001549897096,0.0003989404259,0.001948837522,0.001566949056,7.686890289e-05,0.001643817959,0.001692074597,-0.0001779435297,0.001514131067,0.0009707416334,-6.181083849e-05,0.0009089307949
1.9,-0.001171385603,0.0002622429306,-0.0009091426722,0.001735104022,-0.0004701809445,0.001264923077,0.0003237946487,-0.0001985337463,0.0001252609024,0.0007021496445,-0.0001922335048,0.0005099161397,0.0001826054472,5.768258151e-05,0.0002402880287,0.0005720853425,-0.0001129749687,0.0004591103738,0.00051188218,0.000210377819,0.000722259999,0.0006417315179,7.36596818e-05,0.0007153911997,0.0007583871572,0.0002556319154,0.001014019073,0.0001563881001,0.0004697088413,0.0006260969414,0.001141840237,-8.359504139e-05,0.001058245195,0.003154745775,-0.0006711227137,0.002483623061,0.004166935017,-0.0008678302837,0.003299104733,0.001596410627,-0.0004639216131,0.001132489014,0.002336477806,-0.0004570171761,0.00187946063,0.001942294992,-0.0003372586891,0.001605036303,0.00287622117,-0.0003504444109,0.002525776759,0.001257521702,-0.0003468543804,0.0009106673219,0.002169418425,-0.0002174485205,0.001951969904,0.0006930339786,1.728024451e-05,0.0007103142231,0.0009318490466,-0.0001735415659,0.0007583074806,0.00105482358,-0.0003837698235,0.0006710537561,-8.576295129e-06,0.0001156287221,0.000107052427,-0.001190128213,0.0006522046085,-0.0005379236047,0.002143384127,-0.0006183697888,0.001525014339,0.001205814912,-0.000501869401,0.0007039455112,0.002553568034,-0.0003835200315,0.002170048003,0.002108550883,-0.0004876766051,0.001620874278,0.001935408282,-0.0003630105239,0.001572397758,0.001240399487,-0.0002487720743,0.0009916274127,0.002399663395,-0.0002500782076,0.002149585187,0.001818839514,-0.0002042683524,0.001614571161,0.001636382945,0.0004180860254,0.002054468971,0.001654961122,6.620801313e-05,0.001721169135,0.00176138696,-0.0001766010867,0.001584785874,0.001032006555,-6.227019511e-05,0.0009697363595
2.0,-0.001162238486,0.0002557686738,-0.0009064698125,0.001786287812,-0.0004818480434,0.001304439769,0.000339849567,-0.0002127994961,0.0001270500709,0.00072336273,-0.0001985827321,0.0005247799979,0.0002067069762,5.547485967e-05,0.0002621818358,0.0006246660076,-0.000121520765,0.0005031452426,0.0005822252904,0.000210071303,0.0007922965934,0.0007192461112,7.144024566e-05,0.0007906863569,0.0008123148194,0.0002675815541,0.001079896373,0.000223499,0.000478464259,0.0007019632591,0.001220385771,-9.366286538e-05,0.001126722906,0.003277614097,-0.0007004886033,0.002577125494,0.004304578934,-0.0008916915171,0.003412887417,0.001671530695,-0.0004827635698,0.001188767125,0.002442770519,-0.0004726036992,0.00197016682,0.0020162642,-0.000347571671,0.001668692529,0.003020244611,-0.00037317337,0.002647071241,0.001306226666,-0.0003503775131,0.0009558491527,0.002268970392,-0.0002233341099,0.002045636282,0.0007651035957,9.506366781e-06,0.0007746099625,0.000990366222,-0.0001784057558,0.0008119604662,0.00112266905,-0.0003980576642,0.0007246113859,1.483291895e-05,0.0001135988508,0.0001284317698,-0.001182054853,0.0006563459144,-0.0005257089387,0.002238181973,-0.0006448644213,0.001593317552,0.001272796077,-0.0005225682406,0.0007502278365,0.002692592824,-0.000411125124,0.0022814677,0.002197818191,-0.0005005673104,0.001697250881,0.002023604014,-0.0003728405986,0.001650763415,0.00130763788,-0.000260666377,0.001046971503,0.002519036168,-0.0002590588941,0.002259977273,0.001914087509,-0.0002146180809,0.001699469428,0.00172431747,0.0004353293621,0.002159646832,0.001742803135,5.564583843e-05,0.001798448974,0.001830166382,-0.000174006251,0.001656160131,0.001094634894,-6.34620439e-05,0.001031172851
2.1,-0.001150135047,0.0002494992772,-0.0009006357696,0.001839028965,-0.0004934314036,0.001345597561,0.0003610123444,-0.0002273014499,0.0001337108946,0.0007470849944,-0.0002051671533,0.0005419178411,0.0002357803244,5.262021043e-05,0.0002884005348,0.0006789791974,-0.0001308171825,0.0005481620149,0.0006553872559,0.0002087914318,0.0008641786877,0.0007991271721,6.809765083e-05,0.0008672248229,0.0008707588637,0.0002792931131,0.001150051977,0.0002930593738,0.000486439579,0.0007794989528,0.001303237492,-0.0001046377615,0.00119859973,0.003399136234,-0.0007302322523,0.002668903981,0.00444177877,-0.0009161390294,0.003525639741,0.001746719597,-0.000502187436,0.001244532161,0.002549252674,-0.0004887903962,0.002060462278,0.002090340727,-0.0003580648883,0.001732275839,0.003164869748,-0.0003967854902,0.002768084258,0.001354960872,-0.0003541277023,0.001000833169,0.002367243952,-0.0002291061985,0.002138137753,0.0008384585406,1.559964293e-06,0.0008400185049,0.001054014435,-0.0001832371395,0.000870777296,0.00119293139,-0.000412620465,0.0007803109254,4.254859341e-05,0.0001113294071,0.0001538780005,-0.001172163338,0.0006602749118,-0.0005118884258,0.002331872975,-0.0006711474697,0.001660725506,0.001340403021,-0.00054386475,0.0007965382714,0.002828854191,-0.0004394824827,0.002389371709,0.002287007132,-0.0005146455379,0.001772361594,0.00211146794,-0.0003825641215,0.001728903819,0.001374662695,-0.000272162369,0.001102500326,0.002637701146,-0.0002678008836,0.002369900262,0.002009423538,-0.0002248795502,0.001784543988,0.00181334585,0.0004504477378,0.002263793588,0.001830128984,4.514396625e-05,0.001875272951,0.001898071234,-0.0001701481985,0.001727923035,0.00115842847,-6.551584946e-05,0.001092912621
2.2,-0.001135096409,0.00024351247,-0.0008915839395,0.001893223563,-0.0005049009054,0.001388322658,0.0003874535321,-0.0002419874645,0.0001454660676,0.0007733941167,-0.0002119755472,0.0005614185696,0.0002699792611,4.911935517e-05,0.0003190986163,0.0007347548057,-0.000140847534,0.0005939072717,0.000731025476,0.0002065356855,0.0009375611615,0.0008810012689,6.358664514e-05,0.000944587914,0.0009335567646,0.0002906910641,0.001224247829,0.0003647034481,0.0004935908419,0.00085829429,0.001390255408,-0.0001164913757,0.001273764033,0.003518869001,-0.0007602887769,0.002758580224,0.004578144776,-0.0009412124081,0.003636932368,0.001821667733,-0.0005221471968,0.001299520536,0.002655491863,-0.0005055531317,0.002149938732,0.002164232013,-0.0003687327893,0.001795499224,0.003309536169,-0.0004212559507,0.002888280218,0.001403483609,-0.0003580982063,0.001045385403,0.002463828099,-0.0002347759592,0.00222905214,0.000912802589,-6.548983545e-06,0.0009062536054,0.001122903863,-0.0001880198852,0.0009348839775,0.001265480988,-0.0004274217761,0.0008380592118,7.470098477e-05,0.0001088363504,0.0001835373352,-0.001160414774,0.0006640170941,-0.0004963976802,0.002424121466,-0.0006971937194,0.001726927746,0.001408402061,-0.0005657216641,0.0008426803972,0.00296154522,-0.0004683913582,0.002493153862,0.00237586175,-0.0005299453855,0.001845916364,0.002198633828,-0.0003921363962,0.001806497432,0.001441234038,-0.0002832498949,0.001157984143,0.002755197164,-0.0002763483173,0.002478848847,0.00210445922,-0.0002351009835,0.001869358237,0.001903102801,0.0004632324798,0.002366335281,0.001916593169,3.467043382e-05,0.001951263603,0.001964765052,-0.0001650370147,0.001799728038,0.001223170786,-6.85489173e-05,0.001154621869
2.3,-0.001117164742,0.0002378852893,-0.0008792794525,0.001948754188,-0.0005162245594,0.001432529628,0.0004193124856,-0.000256803338,0.0001625091476,0.0008023507977,-0.0002189930416,0.0005833577562,0.0003094252158,4.497867234e-05,0.0003544038881,0.000791715716,-0.0001515891973,0.0006401265187,0.0008087799453,0.0002033098294,0.001012089775,0.0009644817819,5.786882545e-05,0.001022350607,0.001000506035,0.0003017010069,0.001302207042,0.00043804536,0.0004998816537,0.0009379270137,0.001481271088,-0.000129188671,0.001352082417,0.003636372785,-0.0007905842464,0.002845788539,0.004713293097,-0.0009669471296,0.003746345968,0.001896065593,-0.0005425889187,0.001353476674,0.002761058216,-0.000522862438,0.002238195778,0.002237645774,-0.0003795674633,0.00185807831,0.00345367302,-0.0004465564756,0.003007116544,0.001451559165,-0.0003622845856,0.00108927458,0.002558334788,-0.0002403620825,0.002317972706,0.0009878312797,-1.480792981e-05,0.0009730233499,0.001197108434,-0.0001927385495,0.001004369885,0.001340169597,-0.0004424208791,0.0008977487175,0.0001113928513,0.0001061372614,0.0002175301127,-0.001146778833,0.0006676001271,-0.0004791787055,0.0025146087,-0.0007229826026,0.001791626098,0.001476553698,-0.0005880923487,0.0008884613491,0.003089939587,-0.0004976701489,0.002592269438,0.002464128071,-0.0005464762698,0.001917651801,0.002284743878,-0.0004015137746,0.001883230103,0.001507122104,-0.0002939288863,0.001213193218,0.00287105533,-0.0002847400791,0.00258631525,0.002198804635,-0.0002453297348,0.0019534749,0.001993221967,0.0004734878635,0.00246670983,0.002001854449,2.420053692e-05,0.002026054986,0.002029919915,-0.0001587034661,0.001871216449,0.001288632398,-7.266486855e-05,0.001215967529
2.4,-0.001096401164,0.0002326931389,-0.0008637080253,0.002005491886,-0.0005273689179,0.001478122968,0.0004566971584,-0.000271693162,0.0001850039964,0.0008339985582,-0.0002262012799,0.0006077972783,0.0003542063682,4.021011717e-05,0.0003944164854,0.0008495821536,-0.0001630140458,0.0006865681078,0.0008882773426,0.0001991278031,0.001087405146,0.001049171429,5.091348848e-05,0.001100084917,0.001071368446,0.0003122506185,0.001383619064,0.0005126848232,0.0005052832321,0.001017968055,0.001576088824,-0.0001426883118,0.001433400513,0.003751218461,-0.0008210366678,0.002930181793,0.004846845861,-0.0009933690086,0.003853476853,0.00196960753,-0.0005634518412,0.001406155688,0.002865527774,-0.0005406832691,0.002324844505,0.002310292717,-0.0003905586576,0.00191973406,0.00359670183,-0.000472653689,0.003124048141,0.001498959018,-0.0003666843689,0.00113227465,0.002650401495,-0.000245889159,0.002404512336,0.001063235536,-2.320163776e-05,0.001040033898,0.001276664203,-0.000197378419,0.001079285784,0.001416831243,-0.0004575730482,0.0009592581952,0.0001526972006,0.00010325088,0.0002559480806,-0.001131234239,0.0006710536284,-0.0004601806104,0.002603034093,-0.0007484972104,0.001854536883,0.00154461632,-0.0006109220635,0.0009336942564,0.003213395949,-0.0005271576699,0.002686238279,0.002551558187,-0.0005642249033,0.001987333284,0.00236945219,-0.0004106555824,0.001958796608,0.001572108314,-0.0003042093058,0.001267899008,0.002984802362,-0.0002930083121,0.00269179405,0.002292071885,-0.0002556103955,0.00203646149,0.002083343485,0.0004810300125,0.002564373498,0.002085577502,1.371738155e-05,0.002099294883,0.002093218625,-0.0001511984306,0.001942020194,0.001354575796,-7.795179158e-05,0.001276624005
2.5,-0.001072884608,0.0002280088987,-0.0008448757092,0.002063297021,-0.0005382995072,0.001524997514,0.0004996829917,-0.0002865997738,0.0002130832179,0.0008683627787,-0.0002335786598,0.000634784119,0.000404375767,3.483104345e-05,0.0004392068104,0.0009080749429,-0.0001750889517,0.0007329859912,0.0009691341064,0.0001940114135,0.00116314552,0.001134663165,4.269885978e-05,0.001177362024,0.001145873467,0.0003222705501,0.001468144017,0.0005882115212,0.000509774331,0.001097985852,0.001674485301,-0.000156943133,0.001517542168,0.003862992741,-0.0008515574009,0.00301143534,0.004978427394,-0.001020489267,0.003957938127,0.002041994138,-0.0005846694337,0.001457324704,0.002968484024,-0.0005589746763,0.002409509348,0.00238188761,-0.0004016937365,0.001980193874,0.003738036347,-0.0004995072003,0.003238529146,0.001545462204,-0.0003712964472,0.001174165757,0.002739690701,-0.0002513856888,0.002488305012,0.001138704592,-3.17121719e-05,0.00110699242,0.001361567136,-0.000201925838,0.001159641298,0.001495282347,-0.0004728299167,0.00102245243,0.0001986543936,0.0001001966458,0.0002988510394,-0.001113769985,0.0006744089299,-0.000439361055,0.002689115387,-0.0007737233728,0.001915392014,0.001612348822,-0.0006341492065,0.0009781996155,0.003331357763,-0.000556713176,0.002774644587,0.002637912743,-0.0005831581176,0.002054754625,0.002452427631,-0.0004195262623,0.002032901369,0.001635985618,-0.0003141107661,0.001321874852,0.00309596312,-0.0003011771658,0.002794785954,0.002383877077,-0.0002659826574,0.00211789442,0.002173119068,0.0004856866259,0.002658805694,0.002167433008,3.211919899e-06,0.002170644928,0.002154355748,-0.0001425917615,0.002011763986,0.001420758668,-8.447951503e-05,0.001336279153
2.6,-0.00104671132,0.0002239021044,-0.0008228092159,0.002122019439,-0.0005489812222,0.001573038217,0.0005483115117,-0.0003014652476,0.0002468462641,0.0009054495047,-0.0002411006871,0.0006643488177,0.0004599491447,2.886395467e-05,0.0004888130994,0.0009669182199,-0.0001877762297,0.0007791419902,0.001050959276,0.0001879898658,0.001238949142,0.001220540756,3.32134464e-05,0.001253754203,0.001223721797,0.0003316952757,0.001555417073,0.0006642092577,0.000513341154,0.001177550412,0.001776209445,-0.0001719006258,0.001604308819,0.003971302912,-0.0008820529202,0.003089249992,0.005107658671,-0.001048299912,0.004059358759,0.002112934366,-0.0006061703132,0.001506764053,0.003069519151,-0.0005776894439,0.002491829707,0.002452149704,-0.0004129578006,0.002039191903,0.00387708186,-0.0005270676601,0.0033500142,0.001590854582,-0.000376120288,0.001214734294,0.002825887791,-0.0002568820176,0.002569005773,0.001213928876,-4.031877258e-05,0.001173610104,0.001451771275,-0.0002063684296,0.001245402846,0.001575322082,-0.0004881398442,0.001087182238,0.0002492699087,9.699432683e-05,0.0003462642355,-0.001094386344,0.000677698814,-0.0004166875304,0.002772588603,-0.0007986489968,0.001973939606,0.001679512456,-0.000657706472,0.001021805984,0.003443351567,-0.0005862151953,0.002857136371,0.002722962382,-0.0006032260684,0.002119736313,0.002533357178,-0.0004280976616,0.002105259517,0.001698558897,-0.0003236618044,0.001374897093,0.003204063873,-0.0003092619934,0.00289480188,0.002473842001,-0.0002764792069,0.002197362794,0.002262215263,0.0004872985986,0.002749513861,0.002247098075,-7.317618287e-06,0.002239780456,0.002213038528,-0.0001329703355,0.002080068193,0.001486935438,-9.229611103e-05,0.001394639327
2.7,-0.00101799407,0.0002204382008,-0.0007975558692,0.002181499016,-0.0005593786496,0.001622120366,0.0006025896158,-0.0003162313495,0.0002863582664,0.0009452448868,-0.0002487404552,0.0006965044316,0.0005209035971,2.233619617e-05,0.0005432397933,0.001025842389,-0.0002010339868,0.0008248084024,0.001133358171,0.0001810992129,0.001314457384,0.001306380435,2.24575045e-05,0.001328837939,0.001304590027,0.0003404638864,0.001645053913,0.0007402611232,0.0005159772835,0.001256238407,0.001880984153,-0.0001875034373,0.001693480716,0.004075782585,-0.0009124268437,0.003163355741,0.005234154508,-0.00107677012,0.004157384388,0.002182148446,-0.0006278790537,0.001554269392,0.003168236698,-0.0005967738359,0.002571462862,0.002520804061,-0.0004243340512,0.00209647001,0.004013237139,-0.000555274817,0.003457962322,0.001634928526,-0.000381155098,0.001253773428,0.002908700065,-0.0002624085602,0.002646291504,0.001288603558,-4.899756119e-05,0.001239605996,0.001547188216,-0.000210695233,0.001336492983,0.001656734015,-0.0005034483149,0.0011532857,0.0003045137472,9.366374302e-05,0.0003981774903,-0.001073094898,0.0006809572242,-0.0003921376736,0.00285320892,-0.0008232637623,0.002029945157,0.001745872833,-0.0006815219991,0.001064350834,0.003548986167,-0.0006155586539,0.002933427513,0.002806489436,-0.0006243653547,0.002182124082,0.002611950237,-0.0004363511093,0.002175599127,0.001759646176,-0.0003328990008,0.001426747175,0.003308637907,-0.0003172694112,0.002991368495,0.002561597017,-0.0002871240034,0.002274473014,0.002350315724,0.0004857244221,0.002836040146,0.002324258666,-1.786655977e-05,0.002306392106,0.002268988923,-0.0001224354708,0.002146553452,0.001552857333,-0.0001014238007,0.001451433532
2.8,-0.000986860259,0.0002176778868,-0.0007691823723,0.002241567412,-0.0005694563522,0.00167211106,0.0006624900497,-0.0003308399341,0.0003316501156,0.0009877157133,-0.0002564691886,0.0007312465247,0.0005871778032,1.527957876e-05,0.0006024573819,0.001084587545,-0.0002148163732,0.0008697711713,0.001215937221,0.0001733817938,0.001389319015,0.001391754087,1.044460511e-05,0.001402198692,0.001388136503,0.0003485207813,0.001736657285,0.0008159558593,0.0005176835666,0.001333639426,0.001988509937,-0.0002036899648,0.001784819972,0.004176098722,-0.0009425818549,0.003233516867,0.00535752676,-0.001105844839,0.00425168192,0.002249371626,-0.0006497170637,0.001599654562,0.003264256061,-0.0006161677793,0.002648088282,0.002587584497,-0.0004358042748,0.002151780222,0.004145900127,-0.0005840553913,0.003561844736,0.001677484177,-0.0003863989881,0.001291085189,0.00298785871,-0.0002679944805,0.002719864229,0.001362432681,-5.772126123e-05,0.00130471142,0.001647687959,-0.0002148968455,0.001432791114,0.001739288966,-0.0005186984702,0.001220590496,0.0003643211961,9.022451168e-05,0.0004545457078,-0.001049917677,0.0006842189856,-0.0003656986913,0.00293075322,-0.0008475592305,0.002083193989,0.001811202742,-0.0007055205849,0.001105682157,0.003647951925,-0.0006446492284,0.003003302697,0.00288829058,-0.0006465018211,0.002241788759,0.002687943026,-0.0004442788047,0.002243664221,0.001819080432,-0.0003418661636,0.001477214269,0.003409233643,-0.0003251986631,0.00308403498,0.002646785394,-0.000297931113,0.002348854281,0.00243712295,0.0004808471621,0.002917970112,0.00239861428,-2.842452534e-05,0.002370189754,0.002321947335,-0.000111100515,0.00221084682,0.00161827087,-0.0001118546735,0.001506416196
2.9,-0.0009534491457,0.0002156765956,-0.0007377725501,0.00230205073,-0.0005791791863,0.001722871544,0.0007279525371,-0.000345233355,0.0003827191821,0.001032810587,-0.0002642567878,0.000768553799,0.0006586732385,7.729914998e-06,0.0006664031535,0.001142906828,-0.0002290737462,0.0009138330818,0.001298309111,0.0001648856675,0.001463194778,0.001476233432,-2.797153273e-06,0.001473436279,0.001474007261,0.0003558162185,0.001829823479,0.0008908941925,0.0005184679077,0.0014093621,0.002098468744,-0.0002203951185,0.001878073625,0.004271957975,-0.000972421091,0.003299536884,0.005477392354,-0.00113544608,0.004341946275,0.002314357569,-0.0006716036865,0.001642753883,0.003357217646,-0.0006358057738,0.002721411872,0.002652237256,-0.0004473492715,0.002204887985,0.004274475679,-0.0006133208298,0.003661154849,0.001718331894,-0.0003918480593,0.001326483835,0.003063122746,-0.0002736666687,0.002789456077,0.001435132948,-6.645911461e-05,0.001368673833,0.001753100204,-0.0002189655943,0.001534134609,0.001822747996,-0.0005338318147,0.001288916181,0.0004285935756,8.669574752e-05,0.0005152893231,-0.001024886393,0.0006875195821,-0.0003373668111,0.00300502365,-0.0008715292274,0.002133494423,0.001875285428,-0.000729624929,0.001145660499,0.003740017161,-0.0006733944023,0.003066622759,0.0029681794,-0.000669552953,0.002298626447,0.002761101298,-0.0004518842214,0.002309217076,0.001876710802,-0.0003506134112,0.001526097391,0.003505423802,-0.0003330441798,0.003172379622,0.002729067771,-0.0003089040377,0.002420163734,0.002522359468,0.0004725823024,0.00299494177,0.002469883487,-3.897612357e-05,0.002430907363,0.002371677374,-9.908929096e-05,0.002272588083,0.001682914779,-0.0001235469371,0.001559367842
3.0,-0.0009179092893,0.0002144841029,-0.0007034251864,0.002362771804,-0.0005885126977,0.001774259106,0.0007988844121,-0.0003593549829,0.0004395294292,0.001080460734,-0.0002720723541,0.00080838838,0.0007352550439,-2.735357413e-07,0.0007349815082,0.001200568814,-0.00024375269,0.0009568161244,0.001380096894,0.0001556640152,0.00153576091,0.001559394263,-1.722499987e-05,0.001542169263,0.001561840659,0.0003623067383,0.001924147397,0.0009646935645,0.000518344978,0.001483038542,0.002210526117,-0.0002375512069,0.00197297491,0.00436310979,-0.001001848929,0.003361260861,0.005593382155,-0.001165476676,0.004427905479,0.002376880234,-0.0006934574347,0.0016834228,0.00344678701,-0.0006556184652,0.002791168545,0.002714523726,-0.000458949163,0.002255574563,0.004398382678,-0.0006429655845,0.003755417093,0.001757294349,-0.0003974953595,0.00135979899,0.003134282,-0.0002794487266,0.002854833274,0.00150643603,-7.517693373e-05,0.001431259096,0.001863215047,-0.0002228956744,0.001640319372,0.001906864354,-0.0005487890551,0.001358075299,0.0004971978293,8.309571695e-05,0.0005802935462,-0.0009980426551,0.0006908949898,-0.0003071476653,0.003075850466,-0.0008951702037,0.002180680262,0.001937917222,-0.0007537568209,0.001184160401,0.003825020525,-0.0007016929558,0.003123327569,0.003045986882,-0.0006934299649,0.002352556917,0.002831220362,-0.0004591816202,0.002372038742,0.001932401956,-0.0003591957145,0.001573206241,0.003596813782,-0.000340798677,0.003256015105,0.00280812525,-0.000320035382,0.002488089868,0.002605768228,0.0004608842094,0.003066652437,0.002537808288,-4.950190406e-05,0.002488306384,0.002417970085,-8.653522896e-05,0.002331434856,0.001746516108,-0.0001364223885,0.00161009372
3.1,-0.0008803971961,0.000214144182,-0.0006662530141,0.002423551084,-0.0005974235693,0.001826127514,0.0008751600709,-0.0003731498481,0.0005020102228,0.001130579803,-0.0002798846961,0.0008506951073,0.0008167517035,-8.688688178e-06,0.0008080630153,0.001257358258,-0.0002587957912,0.0009985624671,0.001460936387,0.0001457745263,0.001606710913,0.001640819926,-3.278259277e-05,0.001608037334,0.001651270173,0.0003679555064,0.00201922568,0.001036990637,0.0005173358748,0.001554326512,0.002324331276,-0.0002550888216,0.002069242454,0.004449345428,-0.00103077143,0.003418573998,0.00570514792,-0.00119582602,0.0045093219,0.002436734003,-0.0007151970845,0.001721536919,0.003532657144,-0.0006755344725,0.002857122671,0.002774221234,-0.0004705836233,0.002303637611,0.004517059228,-0.0006728666178,0.003844192611,0.001794207186,-0.0004033299089,0.001390877277,0.003201156965,-0.0002853599196,0.002915797045,0.001576089072,-8.38371268e-05,0.001492251945,0.001977782836,-0.0002266832147,0.001751099621,0.001991384135,-0.0005635110047,0.001427873131,0.0005699650089,7.944151133e-05,0.0006494065202,-0.0009694392589,0.0006943815197,-0.0002750577392,0.003143092932,-0.0009184813955,0.002224611537,0.001998908636,-0.0007778382233,0.001221070413,0.003902861664,-0.0007294266152,0.003173435049,0.003121559131,-0.0007180398769,0.002403519254,0.002898122818,-0.0004661949776,0.00243192784,0.001986031565,-0.0003676707374,0.001618360827,0.003683048405,-0.0003484562024,0.003334592203,0.00288366062,-0.0003313067683,0.002552353852,0.002687111666,0.0004457501881,0.003132861854,0.002602156053,-5.997964012e-05,0.002542176413,0.002460646441,-7.358047124e-05,0.00238706597,0.001808786625,-0.0001503653371,0.001658421288
3.2,-0.0008410772081,0.0002146942438,-0.0006263829643,0.002484206133,-0.0006058800438,0.001878326089,0.0009566195848,-0.0003865653014,0.0005700542833,0.001183062887,-0.0002876628098,0.0008954000768,0.000902953889,-1.747127542e-05,0.0008854826136,0.001313075418,-0.0002741412955,0.001038934122,0.001540477195,0.0001352788144,0.00167575601,0.001720103712,-4.940159622e-05,0.001670702116,0.001741925888,0.0003727325852,0.002114658473,0.001107442267,0.0005154677321,0.001622909999,0.002439516369,-0.0002729376324,0.002166578737,0.00453049425,-0.001059096621,0.003471397629,0.005812367613,-0.001226376934,0.004585990678,0.002493732847,-0.0007367424751,0.001756990372,0.003614549441,-0.000695482062,0.002919067379,0.002831122524,-0.0004822320826,0.002348890442,0.00462996641,-0.0007028841282,0.003927082281,0.001828918477,-0.0004093360603,0.001419582416,0.00326359581,-0.0002914143587,0.002972181451,0.00164385408,-9.239874547e-05,0.001551455334,0.002096513784,-0.0002303263179,0.001866187466,0.002076046301,-0.000577939484,0.001498106817,0.0006466888049,7.574881716e-05,0.000722437622,-0.000939141747,0.0006980156044,-0.0002411261426,0.003206638493,-0.000941464795,0.002265173698,0.002058083976,-0.0008017922047,0.001256291772,0.003973493594,-0.0007564569271,0.003217036667,0.003194753602,-0.0007432876563,0.002451465945,0.002961655368,-0.0004729565502,0.002488698818,0.00203748694,-0.0003760962562,0.001661390684,0.003763817041,-0.0003560147973,0.003407802244,0.002955398617,-0.0003426891123,0.002612709505,0.002766168952,0.0004272228868,0.003193391839,0.002662719335,-7.038567394e-05,0.002592333661,0.002499557845,-6.037432237e-05,0.002439183523,0.001869420252,-0.000165222761,0.001704197491
3.3,-0.0008001218056,0.0002161650165,-0.0005839567892,0.002544550774,-0.0006138522536,0.00193069852,0.001043067543,-0.0003995515713,0.0006435159718,0.001237785627,-0.0002953763114,0.0009424093153,0.000993613685,-2.657547831e-05,0.0009670382067,0.001367535009,-0.0002897230532,0.001077811956,0.001618383525,0.0001242418639,0.001742625389,0.001796850639,-6.700269825e-05,0.001729847941,0.001833435897,0.0003766150962,0.002210050993,0.001175726406,0.0005127732458,0.001688499652,0.002555696872,-0.0002910271032,0.002264669769,0.004606419695,-0.001086734536,0.003519685158,0.005914751105,-0.001257012585,0.004657738519,0.002547709838,-0.0007580151116,0.001789694726,0.003692214833,-0.0007153905639,0.002976824269,0.00288503541,-0.0004938739476,0.002391161463,0.004736592181,-0.0007328630019,0.004003729179,0.001861288059,-0.00041549321,0.001445794849,0.003321470765,-0.0002976206606,0.003023850104,0.0017095076,-0.0001008178528,0.001608689747,0.002219078451,-0.0002338251218,0.001985253329,0.002160583178,-0.0005920181379,0.00156856504,0.0007271256108,7.203183274e-05,0.0007991574435,-0.0009072290427,0.0007018334964,-0.0002053955463,0.003266401395,-0.0009641249337,0.002302276461,0.002115280223,-0.0008255435973,0.001289736625,0.004036918677,-0.0007826276076,0.003254291069,0.003265435848,-0.0007690781022,0.002496357746,0.003021686265,-0.000479505226,0.002542181039,0.002086662293,-0.0003845275597,0.001702134734,0.003838857734,-0.0003634785175,0.003475379216,0.003023086852,-0.0003541435724,0.00266894328,0.002842732116,0.0004053924186,0.003248124535,0.002719315043,-8.069605692e-05,0.002638618987,0.002534585185,-4.707064056e-05,0.002487514545,0.001928092048,-0.0001808055912,0.001747286457
3.4,-0.0007577112163,0.00021858037,-0.0005391308463,0.002604395196,-0.0006213124491,0.001983082747,0.00113427314,-0.0004120621754,0.0007222109649,0.001294604236,-0.0003029958056,0.0009916084305,0.001088445337,-3.595452526e-05,0.001052490812,0.001420565836,-0.0003054710326,0.001115094803,0.001694335859,0.0001127314487,0.001807067308,0.001870679592,-8.549575937e-05,0.001785183832,0.001925428608,0.0003795872192,0.002305015827,0.001241544056,0.0005092900892,0.001750834146,0.00267247441,-0.0003092871857,0.002363187224,0.004677016874,-0.001113596983,0.003563419892,0.006012047558,-0.00128762215,0.004724425408,0.002598517829,-0.0007789387251,0.001819579104,0.003765436243,-0.0007351916189,0.003030244624,0.002935783946,-0.0005054888766,0.002430295069,0.004836457384,-0.0007626349608,0.004073822423,0.001891187879,-0.0004217756967,0.001469412182,0.003374676385,-0.0003039820939,0.003070694291,0.001772841751,-0.0001090484333,0.001663793318,0.002345109858,-0.0002371818364,0.002107928021,0.002244722211,-0.0006056930908,0.00163902912,0.0008109968278,6.83033131e-05,0.0008793001409,-0.000873792493,0.0007058709074,-0.0001679215856,0.003322322097,-0.0009864684112,0.002335853686,0.002170346146,-0.0008490192728,0.001321326873,0.004093188112,-0.0008077707233,0.003285417389,0.003333478426,-0.0007953172674,0.002538161159,0.003078104225,-0.000485884855,0.00259221937,0.002133457427,-0.0003930151359,0.001740442291,0.003907960987,-0.0003708586332,0.003537102354,0.003086498552,-0.0003656233788,0.002720875174,0.002916602668,0.0003803987733,0.003297001442,0.002771784465,-9.088741954e-05,0.002680897045,0.002565637379,-3.382408363e-05,0.002531813296,0.001984459386,-0.0001968915711,0.001787567815
3.5,-0.0007140317622,0.0002219573179,-0.0004920744444,0.002663547586,-0.0006282351603,0.002035312426,0.001229971693,-0.0004240542706,0.0008059174226,0.001353356585,-0.0003104931937,0.001042863391,0.001187127706,-4.556127813e-05,0.001141566428,0.001472011148,-0.0003213121986,0.001150698949,0.001768033685,0.0001008174676,0.001868851153,0.001941226172,-0.0001047795499,0.001836446622,0.002017535856,0.0003816400233,0.00239917588,0.001304622068,0.0005050602585,0.001809682326,0.002789441384,-0.0003276490228,0.002461792361,0.004742212165,-0.001139597435,0.00360261473,0.006104053124,-0.001318104249,0.004785948876,0.002646030824,-0.000799439806,0.001846591018,0.003834031892,-0.0007548202961,0.003079211596,0.002983211213,-0.0005170570882,0.002466154125,0.004929124592,-0.0007920220433,0.004137102548,0.001918503741,-0.0004281528742,0.001490350866,0.003423130628,-0.0003104970352,0.003112633593,0.001833666301,-0.0001170437088,0.001716622592,0.002474206983,-0.0002404006765,0.002233806307,0.00232818859,-0.0006189133799,0.001709275211,0.0008979925944,6.457464945e-05,0.0009625672439,-0.0008389338547,0.0007101626516,-0.000128771203,0.003374367824,-0.001008503103,0.002365864721,0.002223142142,-0.0008721480803,0.001350994062,0.004142403568,-0.0008317153009,0.003310688267,0.0033987624,-0.0008219137133,0.002576848687,0.003130818316,-0.0004921427515,0.002638675565,0.002177777517,-0.0004016028886,0.001776174628,0.003970972867,-0.0003781739352,0.003592798932,0.003145436411,-0.0003770763293,0.002768360082,0.002987589418,0.0003524340211,0.003340023439,0.002819994015,-0.0001009375365,0.002719056478,0.002592650111,-2.078579421e-05,0.002571864316,0.002038165805,-0.0002132305718,0.001824935233
3.6,-0.0006692734656,0.0002263061168,-0.0004429673488,0.002721816528,-0.0006345973563,0.002087219171,0.00132986678,-0.0004354890452,0.0008943777347,0.001413863716,-0.0003178419368,0.00109602178,0.001289307492,-5.534882397e-05,0.001233958668,0.0015217288,-0.0003371712675,0.001184557532,0.001839198361,8.85711766e-05,0.001927769537,0.002008145435,-0.0001247414942,0.001883403941,0.002109395713,0.0003827711755,0.002492166888,0.001364715405,0.0005001294193,0.001864844824,0.002906185369,-0.0003460456352,0.002560139734,0.004801963526,-0.001164651701,0.003637311825,0.00619061559,-0.001348368114,0.004842247476,0.002690144668,-0.0008194480491,0.001870696619,0.003897857549,-0.0007742160076,0.003123641541,0.003027182353,-0.0005285596247,0.002498622729,0.005014207873,-0.0008208417733,0.004193366099,0.001943137684,-0.0004345895407,0.001508548144,0.003466777041,-0.0003171595683,0.003149617473,0.001891810406,-0.0001247574903,0.001767052916,0.002605938507,-0.000243487701,0.002362450806,0.002410707495,-0.0006316311752,0.00177907632,0.0009877752694,6.085588603e-05,0.001048631155,-0.0008027635111,0.0007147423326,-8.802117846e-05,0.003422533105,-0.001030237032,0.002392296073,0.002273540362,-0.0008948606457,0.001378679716,0.004184718456,-0.0008542972783,0.003330421178,0.003461180064,-0.0008487799659,0.002612400098,0.003179757485,-0.000498328325,0.00268142916,0.002219532967,-0.0004103269914,0.001809205975,0.004027796063,-0.0003854501281,0.003642345935,0.003199735447,-0.0003884474454,0.002811288001,0.003055506507,0.0003217433201,0.003377249827,0.00286383487,-0.0001108253849,0.002753009485,0.002615584967,-8.099691412e-06,0.002607485275,0.002088847559,-0.0002295530022,0.001859294557
3.7,-0.0006236280653,0.0002316303905,-0.0003919976748,0.002779012803,-0.0006403786628,0.00213863414,0.001433631949,-0.0004463321686,0.0009872997801,0.001475930915,-0.0003250172674,0.001150913648,0.001394602025,-6.527105781e-05,0.001329330967,0.001569590238,-0.0003529710638,0.001216619174,0.001907574931,7.60643463e-05,0.001983639277,0.002071113362,-0.0001452574029,0.001925855959,0.002200653882,0.0003829845843,0.002583638467,0.001421607591,0.0004945462894,0.00191615388,0.003022291611,-0.0003644125381,0.002657879073,0.004856259803,-0.001188679532,0.003667580271,0.006271633472,-0.00137833344,0.004893300032,0.00273077612,-0.0008388967266,0.001891879394,0.003956806126,-0.0007933231678,0.003163482959,0.003067586124,-0.0005399784929,0.002527607631,0.005091379899,-0.0008489133588,0.00424246654,0.001965009546,-0.0004410468157,0.00152396273,0.003505585219,-0.0003239601233,0.003181625095,0.001947122804,-0.0001321453019,0.001814977502,0.002739845812,-0.0002464506543,0.002493395158,0.002492004986,-0.0006438018903,0.001848203096,0.001079981666,5.715566363e-05,0.00113713733,-0.0007653997984,0.0007196420632,-4.575773517e-05,0.003466838516,-0.001051676963,0.002415161553,0.002321424283,-0.0009170892632,0.00140433502,0.004220336339,-0.0008753693367,0.003344967002,0.003520636468,-0.0008758340948,0.002644802373,0.003224868785,-0.0005044914704,0.002720377314,0.002258638488,-0.0004192151706,0.001839423317,0.004078387701,-0.0003927182994,0.003685669402,0.003249263242,-0.0003996814129,0.002849581829,0.003120170045,0.0002886239186,0.003408793963,0.002903219759,-0.0001205304523,0.002782689306,0.002634428935,4.099594939e-06,0.00263852853,0.002136142428,-0.0002455809427,0.001890561485
3.8,-0.0005772881763,0.0002379272938,-0.0003393608825,0.002834949819,-0.0006455616341,0.002189388185,0.001540911619,-0.0004565542206,0.001084357398,0.001539347973,-0.0003319963195,0.001207351654,0.001502601145,-7.528320947e-05,0.001427317936,0.001615478232,-0.0003686326507,0.001246845582,0.00197293247,6.336838709e-05,0.002036300857,0.002129826992,-0.0001661912848,0.001963635708,0.002290963521,0.0003822899991,0.00267325352,0.00147510919,0.0004883620459,0.001963471236,0.0031373436,-0.0003826882551,0.002754655345,0.004905118143,-0.001211606709,0.003693511435,0.006347049704,-0.001407929798,0.004939119906,0.002767860542,-0.0008577230604,0.001910137481,0.00401080462,-0.0008120916045,0.003198713015,0.003104334323,-0.0005512966293,0.002553037694,0.005160374246,-0.0008760636636,0.004284310582,0.00198405688,-0.0004474832928,0.001536573587,0.003539548183,-0.0003308861775,0.003208662006,0.001999470319,-0.0001391652192,0.0018603051,0.002875445119,-0.0002492988607,0.002626146258,0.002571807645,-0.000655384289,0.001916423356,0.001174224398,5.348116809e-05,0.001227705566,-0.0007269693007,0.0007248921937,-2.077107008e-06,0.003507326948,-0.001072826867,0.002434500081,0.002366687388,-0.0009387679976,0.00142791939,0.004249505867,-0.0008948092868,0.00335469658,0.003577048469,-0.0009030011147,0.002674047355,0.003266114386,-0.0005106803696,0.002755434017,0.002295011423,-0.0004282860543,0.001866725368,0.004122753919,-0.0004000124156,0.003722741503,0.00329391769,-0.0004107247233,0.002883192967,0.003181392674,0.000253421906,0.00343481458,0.002938077135,-0.0001300313234,0.002808045812,0.002649194074,1.568677737e-05,0.002664880851,0.002179699931,-0.0002610406868,0.001918659244
3.9,-0.0005304473592,0.000245187769,-0.0002852595901,0.002889442984,-0.000650131987,0.002239310997,0.001651321677,-0.000466131013,0.001185190664,0.001603889018,-0.0003387581847,0.001265130834,0.001612868669,-8.534227676e-05,0.001527526393,0.001659284163,-0.0003840756382,0.001275208525,0.002035063515,5.055347566e-05,0.002085616991,0.00218400457,-0.0001873958185,0.001996608751,0.002379984341,0.0003807025695,0.002760686911,0.001525055382,0.0004816297472,0.002006685129,0.003250923193,-0.0004008147196,0.002850108473,0.004948580082,-0.001233366962,0.00371521312,0.00641684241,-0.001437095741,0.00497974667,0.002801349331,-0.0008758685929,0.001925480738,0.004059809779,-0.0008304766814,0.003229333098,0.00313735976,-0.0005624976588,0.002574862101,0.005220983633,-0.0009021319098,0.004318851723,0.002000233558,-0.0004538561999,0.001546377358,0.003568677735,-0.0003379231888,0.003230754546,0.002048735617,-0.0001457784251,0.001902957192,0.003012229492,-0.0002520431033,0.002760186389,0.00264984194,-0.0006663405643,0.001983501375,0.001270093573,4.983817806e-05,0.001319931751,-0.0006876071857,0.0007305210315,4.291384574e-05,0.003544058287,-0.001093686427,0.002450371859,0.002409231389,-0.0009598329523,0.001449398437,0.004272513258,-0.0009125261003,0.003359987158,0.003630342002,-0.0009302140588,0.002700127944,0.003303468325,-0.0005169388023,0.002786529523,0.002328570226,-0.0004375484319,0.001891021794,0.004160942423,-0.0004073658466,0.003753576576,0.00333362391,-0.0004215275272,0.002912096383,0.00323897744,0.0002165269434,0.003455504383,0.00296834466,-0.0001393039594,0.0028290407,0.002659917266,2.654436903e-05,0.002686461635,0.002219192028,-0.0002756753036,0.001943516724
4.0,-0.000483300176,0.0002533968829,-0.0002299032932,0.002942309033,-0.0006540786968,0.002288230336,0.001764450691,-0.0004750437721,0.001289406919,0.001669312712,-0.0003452839327,0.001324028779,0.001724944462,-9.540736159e-05,0.0016295371,0.00170090595,-0.0003992189174,0.001301687033,0.002093783687,3.768773286e-05,0.00213147142,0.002233387151,-0.0002087138815,0.00202467327,0.002467382355,0.0003782423867,0.002845624741,0.001571304127,0.0004744037855,0.002045707912,0.003362612148,-0.000418737563,0.002943874585,0.004986707967,-0.001253903438,0.003732804529,0.006481016249,-0.001465777407,0.005015238842,0.002831208296,-0.0008932794603,0.001937928836,0.004103804297,-0.0008484390716,0.003255365225,0.003166614117,-0.0005735654622,0.002593048655,0.005273056645,-0.0009269726096,0.004346084036,0.002013508257,-0.0004601224472,0.001553385809,0.003593000086,-0.0003450558239,0.003247944262,0.002094815484,-0.000151949495,0.001942865989,0.003149671746,-0.0002546953958,0.00289497635,0.002725834444,-0.0006766363064,0.002049198138,0.001367159986,4.623123961e-05,0.001413391226,-0.0006474565566,0.0007365545487,8.909799209e-05,0.003577104097,-0.001114249671,0.002462854426,0.002448964835,-0.0009802226006,0.001468742234,0.004289673952,-0.0009284632967,0.003361210655,0.003680449207,-0.0009574145262,0.002723034681,0.003336914281,-0.0005233034526,0.002813610828,0.00235923426,-0.0004470006313,0.001912233629,0.00419303498,-0.0004148072809,0.003778227699,0.003368332234,-0.0004320452256,0.002936287009,0.003292714081,0.0001783650456,0.003471079127,0.002993964342,-0.0001483203572,0.002845643985,0.0026666602,3.656065479e-05,0.002703220855,0.002254323882,-0.0002892563389,0.001965067543
4.1,-0.0004360413199,0.0002625341856,-0.0001735071343,0.002993366303,-0.0006573939615,0.002335972341,0.00187986238,-0.0004832791935,0.001396583187,0.001735363465,-0.0003515566245,0.00138380684,0.001838347862,-0.0001054399296,0.001732907933,0.001740247277,-0.0004139818419,0.001326265435,0.002148932128,2.483653263e-05,0.00217376866,0.002277741998,-0.0002299808841,0.002047761114,0.002552830959,0.0003749340256,0.002927764985,0.001613735688,0.000466739386,0.002080475074,0.003471995775,-0.0004364063088,0.003035589466,0.005019583015,-0.001273169689,0.003746413326,0.006539596765,-0.00149392685,0.005045669915,0.002857417277,-0.0009099064706,0.001947510806,0.004142794314,-0.000865944296,0.003276850018,0.003192066719,-0.0005844836231,0.002607583096,0.005316495055,-0.0009504567281,0.004366038327,0.002023864128,-0.0004662396206,0.001557624507,0.00361255359,-0.0003522692272,0.003260284363,0.002137620288,-0.0001576465527,0.001979973735,0.003287228673,-0.0002572686694,0.003029960004,0.00279951333,-0.0006862403959,0.002113272934,0.001464979882,4.266390055e-05,0.001507643783,-0.0006066665497,0.0007430160957,0.000136349546,0.003606543681,-0.001134503908,0.002472039773,0.002485802725,-0.0009998781534,0.001485924571,0.004301325639,-0.0009426010511,0.003358724588,0.003727306577,-0.000984552395,0.002742754182,0.003366445026,-0.0005298017342,0.002836643292,0.002386925198,-0.0004566303462,0.001930294851,0.004219141073,-0.0004223567713,0.003796784302,0.003398017987,-0.000442239922,0.002955778065,0.003342380349,0.0001393889945,0.003481769343,0.003014881016,-0.0001570482325,0.002857832783,0.002669509322,4.562846785e-05,0.00271513779,0.002284844681,-0.0003015941624,0.001983250519
4.2,-0.0003888636737,0.0002725740666,-0.0001162896071,0.003042436109,-0.0006600731388,0.00238236297,0.001997099118,-0.0004908294093,0.001506269709,0.00180177363,-0.0003575613041,0.001444212326,0.001952582306,-0.0001154040151,0.001837178291,0.001777217917,-0.0004282857716,0.001348932146,0.002200372374,1.206196222e-05,0.002212434336,0.002316867057,-0.0002510276641,0.002065839393,0.002636012811,0.000370806081,0.003006818892,0.001652252818,0.0004586921423,0.002110944961,0.003578667429,-0.0004537745192,0.00312489291,0.005047304346,-0.001291130216,0.00375617413,0.006592627222,-0.001521500531,0.005071126691,0.002879970125,-0.0009257049674,0.001954265158,0.004176807441,-0.0008829622534,0.003293845188,0.003213704106,-0.0005952348545,0.002618469252,0.00535125168,-0.0009724713712,0.004378780309,0.002031299866,-0.0004721669705,0.001559132895,0.003627388453,-0.0003595499165,0.003267838537,0.002177074014,-0.0001628415293,0.002014232484,0.003424345962,-0.0002597764974,0.003164569464,0.002870610421,-0.0006951249766,0.002175485445,0.001563100173,3.913890343e-05,0.001602239076,-0.0005653899424,0.0007499261532,0.0001845362108,0.003632461811,-0.001154429226,0.002478032586,0.002519667139,-0.001018743996,0.001500923143,0.004307824031,-0.0009549595886,0.003352864442,0.003770854187,-0.001011584657,0.00275926953,0.003392062933,-0.0005364504561,0.002855612477,0.002411569042,-0.0004664150135,0.001945154028,0.004239392316,-0.000430022508,0.003809369808,0.003422681808,-0.0004520816627,0.002970600146,0.003387747613,0.0001000663249,0.003487813937,0.003031043885,-0.000165451964,0.002865591921,0.00266857457,5.36455911e-05,0.002722220161,0.002310557789,-0.0003125462517,0.001998011537
4.3,-0.0003419561089,0.0002834861277,-5.846998117e-05,0.003089344483,-0.0006621147558,0.002427229727,0.002115685581,-0.0004976919041,0.001617993677,0.001868265939,-0.0003632849464,0.001504980993,0.002067140103,-0.0001252663783,0.001941873725,0.001811734231,-0.0004420558408,0.001369678391,0.002247992647,-5.776309892e-07,0.002247415016,0.00235059556,-0.0002716841566,0.002078911404,0.00271662122,0.0003658906833,0.003082511903,0.001686780193,0.0004503175602,0.002137097754,0.003682231817,-0.0004707999281,0.003211431889,0.005069987012,-0.001307760676,0.003762226337,0.006640164762,-0.001548457985,0.005091706778,0.002898873776,-0.0009406345677,0.001958239208,0.004205889567,-0.0008994667409,0.003306422826,0.003231529311,-0.000605800493,0.002625728818,0.005377327039,-0.0009929183965,0.004384408643,0.002035830921,-0.0004778663029,0.001557964619,0.003637566583,-0.0003668860968,0.003270680487,0.002213113779,-0.0001675106156,0.002045603163,0.003560462619,-0.0002622329068,0.003298229712,0.002938862619,-0.0007032655574,0.002235597061,0.00166106275,3.565829979e-05,0.00169672105,-0.0005237813163,0.0007573021425,0.0002335208262,0.00365494724,-0.001173998639,0.002480948601,0.002550488126,-0.001036768166,0.00151371996,0.004309540338,-0.0009656046068,0.003343935731,0.003811034973,-0.001038473665,0.002772561307,0.00341378027,-0.0005432554047,0.002870524866,0.002433097471,-0.0004763225646,0.001956774906,0.004253936605,-0.0004377985477,0.003816138057,0.003442348425,-0.0004615489631,0.002980799461,0.003428587268,6.086595408e-05,0.003489453222,0.003042408856,-0.0001734944347,0.002868914421,0.002663985897,6.051671917e-05,0.002724502616,0.002331327982,-0.0003220221535,0.002009305829
4.4,-0.0002955020388,0.0002952355862,-2.664525534e-07,0.003133923235,-0.0006635206008,0.002470402635,0.002235131736,-0.0005038693816,0.001731262354,0.001934555422,-0.0003687163679,0.001565839054,0.00218150635,-0.0001349966002,0.00204650975,0.001843718984,-0.0004552227646,0.001388496219,0.002291704782,-1.302805308e-05,0.002278676729,0.002378799613,-0.0002917838702,0.002087015743,0.002794360325,0.0003602230151,0.00315458334,0.001717262343,0.0004416706185,0.002158932961,0.003782306172,-0.0004874445335,0.003294861639,0.005087757709,-0.001323047815,0.003764709894,0.006682273502,-0.001574760403,0.005107513099,0.002914145979,-0.0009546589295,0.001959487049,0.004230099616,-0.0009154347247,0.003314664891,0.003245559891,-0.000616160149,0.002629399742,0.005394763855,-0.001011712553,0.004383051302,0.002037489367,-0.0004833026766,0.00155418669,0.003643159884,-0.0003742675316,0.003268892353,0.002245688269,-0.0001716347985,0.002074053471,0.003695014329,-0.0002646522026,0.003430362126,0.003004012068,-0.0007106410713,0.002293370996,0.001758407543,3.222353235e-05,0.001790631076,-0.0004819961652,0.0007651582758,0.0002831621106,0.00367409081,-0.001193178715,0.002480912095,0.002578204018,-0.001053902773,0.001524301245,0.004306857972,-0.0009746517921,0.00333220618,0.00384779283,-0.001065185045,0.002782607786,0.003431618565,-0.0005502116826,0.002881406883,0.002451448156,-0.0004863124123,0.001965135744,0.004262932041,-0.0004456637636,0.003817268277,0.003457062962,-0.0004706282378,0.002986434725,0.003464675133,2.224492504e-05,0.003486920058,0.003048939224,-0.0001811390086,0.002867800216,0.002655888169,6.615605702e-05,0.002722044226,0.002347083515,-0.0003299842465,0.002017099268
4.5,-0.0002496790517,0.0003077836718,5.810462007e-05,0.003176009986,-0.0006642958231,0.002511714163,0.00235493513,-0.0005093695477,0.001845565582,0.002000350704,-0.0003738461421,0.001626504562,0.002295161861,-0.0001445670959,0.002150594765,0.001873100497,-0.0004677244609,0.001405376037,0.00233144199,-2.523961391e-05,0.002306202376,0.002401391973,-0.0003111685253,0.002090223447,0.002868944417,0.0003538408691,0.003222785287,0.001743660537,0.0004328054144,0.002176465951,0.003878520096,-0.0005036745789,0.003374845517,0.005100748496,-0.00133698886,0.003763759636,0.006719015718,-0.001600369264,0.005118646453,0.002925812435,-0.0009677456963,0.001958066739,0.004249503269,-0.0009308453048,0.003318657964,0.003255824998,-0.0006262916104,0.002629533388,0.005403640553,-0.001028780023,0.00437486053,0.002036322086,-0.0004884449675,0.001547877118,0.003644247104,-0.0003816852751,0.003262561829,0.002274755552,-0.0001752003546,0.002099555197,0.003827436074,-0.0002670487235,0.00356038735,0.003065805491,-0.0007172336806,0.00234857181,0.001854675045,2.883555096e-05,0.001883510596,-0.0004401905121,0.0007735054227,0.0003333149106,0.00368998285,-0.001211930421,0.002478052429,0.00260276102,-0.001070104314,0.001532656706,0.004300166728,-0.0009822662222,0.003317900506,0.003881069437,-0.001091685327,0.002789384109,0.003445607189,-0.0005573044503,0.002888302738,0.002466564829,-0.0004963367201,0.001970228109,0.00426654168,-0.0004535823152,0.003812959365,0.003466885984,-0.0004793124598,0.002987573524,0.003495793742,-1.536382384e-05,0.003480429918,0.003050604146,-0.0001883508814,0.002862253265,0.002644435991,7.048954688e-05,0.002714925538,0.00235781305,-0.0003364450131,0.002021368037
4.6,-0.0002046590671,0.0003210879656,0.0001164288985,0.003215447779,-0.0006644489823,0.002550998796,0.002474583263,-0.0005142047567,0.001960378506,0.002065355277,-0.0003786665426,0.001686688734,0.002407585941,-0.0001539530472,0.002253632894,0.001899811949,-0.0004795072585,0.001420304691,0.002367156477,-3.716737478e-05,0.002329989103,0.002418326222,-0.0003296920366,0.002088634186,0.002940097541,0.0003467842642,0.003286881805,0.001765949965,0.000423774941,0.002189724906,0.003970515917,-0.0005194603924,0.003451055524,0.005109090143,-0.001349589952,0.003759500192,0.006750444771,-0.00162524542,0.005125199351,0.002933904613,-0.0009798666695,0.001954037943,0.004264167975,-0.0009456786186,0.003318489357,0.003262362701,-0.0006361710592,0.002626191642,0.005404066069,-0.001044058103,0.004360007967,0.002032388297,-0.0004932664263,0.001539121871,0.003640910817,-0.0003891314075,0.003251779409,0.002300281382,-0.00017819925,0.002122082131,0.003957164972,-0.0002694365613,0.003687728411,0.003123993779,-0.0007230283406,0.002400965438,0.001949409454,2.549497773e-05,0.001974904431,-0.0003985202148,0.0007823509917,0.0003838307769,0.003702710657,-0.001230210085,0.002472500572,0.00262411263,-0.001085333904,0.001538778726,0.004289854868,-0.0009886553988,0.003301199469,0.003910800972,-0.001117939325,0.002792861647,0.003455781811,-0.0005645096852,0.002891272125,0.002478398019,-0.0005063419532,0.001972056066,0.004264930082,-0.0004615054509,0.003803424631,0.003471889449,-0.0004875996919,0.002984289757,0.003521734176,-5.156225074e-05,0.003470171926,0.003047376294,-0.0001950973519,0.002852278942,0.00262978967,7.345637443e-05,0.002703246045,0.002363560088,-0.0003414624219,0.002022097666
4.7,-0.00016060809,0.0003351026732,0.0001744945831,0.003252085302,-0.0006639920335,0.002588093268,0.00259355695,-0.0005183915016,0.002075165448,0.002129269479,-0.0003831714903,0.001746097989,0.002518260098,-0.000163132281,0.002355127817,0.001923791677,-0.0004905266001,0.001433265076,0.002398818041,-4.877129444e-05,0.002350046747,0.002429596423,-0.0003472234729,0.00208237295,0.003007554417,0.0003390950921,0.003346649509,0.001784118433,0.0004146309296,0.002198749363,0.004057951006,-0.0005347761441,0.003523174862,0.005112907005,-0.001360863691,0.003752043314,0.006776602388,-0.001649348871,0.005127253517,0.002938459134,-0.0009909981382,0.001947460996,0.004274160937,-0.0009599149808,0.003314245956,0.003265218756,-0.0006457735633,0.002619445192,0.005396177686,-0.001057496234,0.004338681451,0.002025757665,-0.000497745203,0.001528012462,0.003633236202,-0.0003965987391,0.003236637463,0.00232223885,-0.0001806294079,0.002141609442,0.004083644075,-0.000271829329,0.003811814746,0.003178332761,-0.0007280123287,0.002450320432,0.002042162942,2.220227169e-05,0.002064365214,-0.0003571394582,0.0007916988801,0.0004345594219,0.003712357229,-0.001247970588,0.002464386641,0.002642219728,-0.001099557485,0.001542662243,0.004276301187,-0.0009940585266,0.00328224266,0.003936916412,-0.001143907362,0.00279300905,0.003462183192,-0.0005717947977,0.002890388394,0.002486906552,-0.0005162705287,0.001970636023,0.004258261745,-0.0004693739484,0.003788887796,0.00347215509,-0.0004954918367,0.002976663253,0.003542299228,-8.599637155e-05,0.003456302856,0.003039230736,-0.0002013470845,0.002837883652,0.002612112894,7.500976146e-05,0.002687122655,0.00236441745,-0.0003451340996,0.00201928335
4.8,-0.000117685091,0.000349778871,0.0002320937799,0.003285778138,-0.0006629402264,0.002622837911,0.0027113348,-0.0005219498117,0.002189384989,0.002191793314,-0.0003873564674,0.001804436847,0.002626672868,-0.0001720851338,0.002454587734,0.00194498454,-0.000500747323,0.001444237217,0.002426413804,-6.001632011e-05,0.002366397484,0.002435236857,-0.0003636490358,0.002071587821,0.003071062636,0.0003308167486,0.003401879384,0.001798166626,0.000405423621,0.002203590247,0.0041405017,-0.0005495996306,0.003590902069,0.005112314022,-0.001370826434,0.003741487588,0.006797519513,-0.001672639304,0.005124880209,0.002939518366,-0.001001121242,0.001938397124,0.004279549695,-0.0009735344593,0.003306015235,0.003264446808,-0.0006550737405,0.002609373067,0.005380141714,-0.001069058026,0.004311083688,0.002016509295,-0.0005018645703,0.001514644725,0.003621311985,-0.0004040805544,0.003217231431,0.002340609214,-0.0001824948009,0.002158114414,0.004206326969,-0.0002742399979,0.003932086971,0.003228585029,-0.0007321748965,0.002496410133,0.002132500346,1.895782475e-05,0.002151458171,-0.0003161987673,0.0008015495439,0.0004853507765,0.003719001641,-0.001265162916,0.002453838725,0.002657051544,-0.001112745976,0.001544305568,0.004259868293,-0.0009987354003,0.003261132893,0.003959338008,-0.001169542636,0.002789795372,0.00346485614,-0.0005791193101,0.00288573683,0.002492058966,-0.0005260623772,0.001965996588,0.004246700423,-0.0004771205711,0.003769579852,0.003467774831,-0.0005029936892,0.002964781142,0.003557308429,-0.0001183637112,0.003438944718,0.003026145776,-0.0002070689256,0.002819076851,0.002591571903,7.51170487e-05,0.002666688952,0.002360522079,-0.0003475898472,0.002012932231
4.9,-7.604047754e-05,0.0003650647677,0.0002890242902,0.003316390357,-0.0006613118817,0.002655078475,0.002827397888,-0.0005249026658,0.002302495222,0.002252629403,-0.0003912183748,0.001861411028,0.002732324701,-0.0001807943259,0.002551530375,0.001963343454,-0.0005101436022,0.001453199852,0.002449948081,-7.087245461e-05,0.002379075626,0.00243532141,-0.0003788733018,0.002056448108,0.003130384904,0.0003219937347,0.003452378639,0.001808108638,0.0003962014083,0.002204310046,0.004217866835,-0.0005639121301,0.003653954705,0.005107414549,-0.001379496004,0.003727918545,0.006813217514,-0.001695077428,0.005118140086,0.002937130811,-0.001010222254,0.001926908557,0.004280403315,-0.0009865169742,0.003293886341,0.003260108786,-0.0006640465111,0.002596062275,0.005356154878,-0.001078723692,0.004277431187,0.002004730656,-0.0005056125762,0.00149911808,0.0036052322,-0.0004115705835,0.003193661617,0.002355382757,-0.0001838053542,0.002171577402,0.004324682209,-0.0002766807442,0.004048001464,0.003274521789,-0.000735507059,0.00253901473,0.002220002948,1.576196808e-05,0.002235764917,-0.0002758434961,0.0008119001672,0.000536056671,0.003722720075,-0.001281737983,0.002440982092,0.002668586877,-0.001124875296,0.001543711581,0.004240896002,-0.001002956304,0.003237939698,0.003977982856,-0.00119478911,0.002783193746,0.003463847987,-0.0005864358674,0.002877412119,0.00249383388,-0.0005356563253,0.001958177555,0.004230407707,-0.0004846723973,0.00374573531,0.003458851417,-0.0005101123167,0.002948739101,0.003566603579,-0.000148418736,0.003418184843,0.00300810468,-0.0002122310125,0.002795873668,0.002568334783,7.375950929e-05,0.002642094293,0.002352049002,-0.0003489825581,0.002003066443
5.0,-3.581512938e-05,0.000380905981,0.0003450908516,0.00334379533,-0.0006591280428,0.002684667287,0.002941233514,-0.0005272754779,0.002413958036,0.002311485161,-0.0003947553382,0.001916729823,0.002834731658,-0.0001892448424,0.002645486816,0.001978830129,-0.0005186985963,0.001460131533,0.002469441263,-8.1314752e-05,0.002388126511,0.002429961869,-0.0003928200626,0.002037141807,0.00318530008,0.0003126712515,0.003497971331,0.001813971341,0.0003870104174,0.002200981759,0.004289769135,-0.0005776982642,0.003712070871,0.005098297438,-0.001386890166,0.003711407272,0.006823707086,-0.001716626686,0.0051070804,0.002931350184,-0.001018292671,0.001913057513,0.004276792529,-0.0009988428481,0.003277949681,0.00325227422,-0.0006726678856,0.002579606335,0.005324444,-0.001086492451,0.004237951548,0.001990515295,-0.0005089811799,0.001481534115,0.003585096733,-0.0004190632018,0.003166033532,0.002366558613,-0.0001845766834,0.00218198193,0.004438196641,-0.0002791627704,0.00415903387,0.003315923812,-0.0007380015028,0.002577922309,0.002304270569,1.261493159e-05,0.002316885501,-0.0002362135046,0.0008227448495,0.0005865313449,0.003723586025,-0.001297648281,0.002425937744,0.00267681471,-0.001135926288,0.001540888423,0.004219692958,-0.001006992596,0.003212700362,0.003992763882,-0.00121958039,0.002773183492,0.00345920609,-0.0005936914834,0.002865514606,0.002492219119,-0.000544991276,0.001947227843,0.004209540048,-0.0004919532682,0.00371758678,0.003445497422,-0.00051685658,0.002928640842,0.003570052739,-0.0001759755989,0.00339407714,0.002985096904,-0.0002168007479,0.002768296156,0.002542569245,7.093271644e-05,0.002613501961,0.002339204035,-0.0003494788782,0.001989725156
5.1,2.859463566e-06,0.0003972458335,0.0004001052971,0.003367875208,-0.0006564120435,0.002711463164,0.003052337795,-0.0005290956148,0.002523242181,0.002368073914,-0.000397966469,0.001970107445,0.002933427593,-0.0001974238062,0.002736003786,0.001991414866,-0.0005264038923,0.001465010973,0.002484927501,-9.132316292e-05,0.002393604338,0.002419305111,-0.0004054330412,0.00201387207,0.003235602776,0.0003028948133,0.003538497589,0.001815792341,0.0003778941256,0.002193686467,0.004355954453,-0.000590945773,0.00376500868,0.005085033396,-0.001393025811,0.003692007585,0.006828984701,-0.001737254398,0.005091730303,0.002922233194,-0.001025328964,0.00189690423,0.004268788845,-0.001010493593,0.003258295252,0.003241018285,-0.0006809156933,0.002560102591,0.005285263303,-0.001092384613,0.00419287869,0.001973959256,-0.0005119652041,0.001461994052,0.003561009527,-0.0004265535553,0.003134455972,0.002374143469,-0.0001848296857,0.002189313783,0.004546377513,-0.0002816961401,0.004264681373,0.0033525815,-0.0007396526108,0.002612928889,0.002384922364,9.516823775e-06,0.002394439188,-0.0001974438331,0.0008340747201,0.000636630887,0.003721669061,-0.001312848964,0.002408820097,0.002681733827,-0.001145884543,0.001535849284,0.004196526091,-0.001011107194,0.003185418897,0.004003589812,-0.0012438399,0.002759749912,0.003450974689,-0.0006008286942,0.002850145995,0.002487210284,-0.0005540072266,0.001933203058,0.004184244937,-0.0004988866504,0.003685358286,0.003427832077,-0.000523236356,0.002904595721,0.003567551565,-0.0002009074899,0.003366644075,0.002957118652,-0.0002207457823,0.002736372869,0.002514438757,6.664767622e-05,0.002581086434,0.002322216112,-0.0003492511383,0.001972964974
5.2,3.986032245e-05,0.0004140257124,0.0004538860348,0.003388519544,-0.0006531890101,0.002735330534,0.003160217801,-0.0005303918634,0.002629825937,0.002422115489,-0.0004008515892,0.0020212639,0.003027965609,-0.000205320323,0.002822645286,0.002001076113,-0.0005332589339,0.001467817179,0.002496452041,-0.000100882221,0.00239556982,0.002403529845,-0.0004166765637,0.001986853282,0.003281102459,0.0002927098765,0.003573812335,0.001813617593,0.0003688930436,0.002182510637,0.004416190577,-0.0006036451785,0.003812545399,0.005067672289,-0.001397918635,0.003669753654,0.006829028948,-0.001756931823,0.005072097125,0.002909837197,-0.001031331982,0.001878505215,0.004256463867,-0.001021452656,0.003235011211,0.00322641947,-0.0006887700981,0.002537649372,0.005238890779,-0.001096443037,0.004142447742,0.001955157182,-0.0005145613612,0.001440595821,0.003533075175,-0.0004340373297,0.003099037846,0.002378150079,-0.0001845899788,0.0021935601,0.004648754174,-0.0002842896896,0.004364464485,0.003384294935,-0.0007404565453,0.00264383839,0.002461597738,6.467687877e-06,0.002468065426,-0.0001596653475,0.0008458779421,0.0006862125946,0.003717033024,-0.001327298362,0.002389734662,0.00268335186,-0.001154740141,0.001528611719,0.004171609694,-0.001015544384,0.00315606531,0.004010365413,-0.001267482274,0.002742883139,0.003439192424,-0.0006077864439,0.00283140598,0.002478809836,-0.0005626461796,0.001916163656,0.004154658067,-0.0005053989864,0.00364925908,0.003405977032,-0.0005292611846,0.002876715848,0.003559021837,-0.0002231421904,0.003335879647,0.002924173714,-0.0002240355501,0.002700138164,0.002484098432,6.093208021e-05,0.002545030512,0.002301330587,-0.0003484711132,0.001952859473
5.3,7.507238089e-05,0.0004311855361,0.000506257917,0.003405624352,-0.0006494852999,0.002756139052,0.003264394384,-0.0005311937926,0.002733200592,0.002473337326,-0.0004034109586,0.002069926367,0.003117920126,-0.0002129252936,0.002904994832,0.002007800901,-0.0005392706238,0.001468530277,0.002504069541,-0.0001099806428,0.002394088898,0.002382843907,-0.0004265360276,0.001956307879,0.003321623586,0.0002821614726,0.003603785058,0.001807500442,0.000360044431,0.002167544873,0.00447026796,-0.0006157894054,0.003854478555,0.005046243557,-0.001401583111,0.003644660446,0.006823800121,-0.001775633379,0.005048166742,0.002894219229,-0.001036306131,0.001857913098,0.004239890278,-0.00103170587,0.003208184408,0.003208558361,-0.0006962138504,0.002512344511,0.005185626085,-0.001098733721,0.004086892363,0.00193419943,-0.0005167674261,0.001417432004,0.003501396198,-0.0004415102821,0.003059885916,0.002378596993,-0.000183887154,0.002194709839,0.004744880631,-0.0002869509975,0.004457929633,0.003410875157,-0.0007404112559,0.002670463901,0.002533958811,3.467647864e-06,0.002537426459,-0.0001230041769,0.0008581396637,0.0007351354867,0.003709735308,-0.001340958215,0.002368777093,0.002681684597,-0.001162487272,0.001519197325,0.004145097182,-0.001020519158,0.003124578023,0.004012993829,-0.001290415454,0.002722578375,0.003423892078,-0.0006145008222,0.002809391256,0.002467027516,-0.0005708529307,0.001896174585,0.004120903227,-0.0005114233039,0.003609479923,0.003380053184,-0.0005349385511,0.002845114633,0.003544408222,-0.0002426540619,0.00330175416,0.00288627574,-0.0002266425911,0.002659633149,0.002451692201,5.3831017e-05,0.002505523218,0.002276804341,-0.0003473050819,0.001929499259
5.4,0.0001083891808,0.0004486643142,0.000557053495,0.003419092766,-0.0006453278934,0.002773764872,0.003364406537,-0.0005315310507,0.002832875487,0.00252147695,-0.0004056450642,0.002115831886,0.003202890491,-0.0002202312106,0.00298265928,0.002011586901,-0.0005444531447,0.001467133756,0.002507844283,-0.0001186109275,0.002389233356,0.002357482822,-0.0004350179477,0.001922464875,0.003357007883,0.0002712938639,0.003628301746,0.001797503212,0.0003513820527,0.002148885264,0.004518003679,-0.0006273734394,0.00389063024,0.005020760918,-0.00140403268,0.003616728238,0.006813245175,-0.00179333556,0.005019909615,0.002875437238,-0.001040258485,0.001835178753,0.004219145125,-0.001041241481,0.003177903644,0.003187518577,-0.0007032324047,0.002484286172,0.005125791693,-0.001099345469,0.004026446223,0.001911171284,-0.0005185816438,0.00139258964,0.003466073311,-0.0004489679014,0.003017105409,0.002375510166,-0.0001827538186,0.002192756348,0.004834339768,-0.0002896863393,0.004544653429,0.003432147332,-0.0007395163213,0.002692631011,0.002601694741,5.170874438e-07,0.002602211828,-8.75795731e-05,0.000870842044,0.0007832624709,0.003699828316,-0.001353793816,0.0023460345,0.002676756289,-0.001169123771,0.001507632518,0.004117078449,-0.001026207708,0.003090870741,0.004011382115,-0.001312543022,0.002698839093,0.003405103135,-0.0006209059933,0.002784197142,0.002451882126,-0.0005785757211,0.001873306405,0.004083095413,-0.0005169026475,0.003566192765,0.003350180003,-0.0005402722211,0.002809907782,0.003523675223,-0.0002594534993,0.003264221724,0.002843452371,-0.0002285430872,0.002614909283,0.002417352099,4.540689837e-05,0.002462758998,0.002248902353,-0.000345909107,0.001902993246
5.5,0.0001397150592,0.0004664007206,0.0006061157797,0.003428837439,-0.0006407438045,0.002788093634,0.003459816965,-0.0005314327219,0.002928384243,0.002566285753,-0.0004075545087,0.002158731245,0.003282505891,-0.0002272319857,0.003055273906,0.002012445519,-0.0005488277567,0.001463617762,0.002507851954,-0.0001267689943,0.00238108296,0.002327709516,-0.0004421495442,0.001885559972,0.003387118311,0.0002601502571,0.003647268568,0.001783700677,0.0003429360196,0.002126636696,0.004559247459,-0.0006383940599,0.003920853399,0.004991230259,-0.001405280171,0.003585950088,0.006797306665,-0.001810015673,0.004987290992,0.002853552829,-0.001043197964,0.001810354865,0.00419431436,-0.001050049856,0.003144264503,0.003163389518,-0.0007098140411,0.002453575477,0.005059736386,-0.001098388814,0.003961347573,0.001886154256,-0.00052000255,0.001366151706,0.003427208714,-0.0004564051987,0.002970803516,0.0023689257,-0.0001812245293,0.002187701171,0.004916748733,-0.0002925006212,0.004624248112,0.003447955185,-0.0007377727057,0.002710182479,0.002664526626,-2.383240001e-06,0.002662143386,-5.350106013e-05,0.0008839644346,0.0008304633745,0.003687362741,-0.001365774008,0.002321588732,0.002668600935,-0.00117465065,0.001493950285,0.004087584054,-0.001032741585,0.003054842469,0.004005449312,-0.001333766702,0.00267168261,0.003382856031,-0.0006269356521,0.002755920379,0.00243340381,-0.0005857668708,0.001847636939,0.004041345901,-0.0005217928945,0.003519553007,0.003316476706,-0.0005452608344,0.002771215871,0.003496805609,-0.0002735754583,0.00322323015,0.002795750149,-0.0002297164916,0.002566033657,0.002381199162,3.573869697e-05,0.002416937859,0.002217894143,-0.0003444236791,0.001873470463
5.6,0.0001689678949,0.0004843335957,0.0006533014906,0.003434783522,-0.0006357595565,0.002799023966,0.003550217589,-0.0005309268432,0.003019290746,0.002607533054,-0.0004091399716,0.002198393082,0.003356430175,-0.0002339228373,0.003122507338,0.002010404362,-0.0005524222254,0.001457982137,0.00250418153,-0.0001344538516,0.002369727679,0.002293813926,-0.0004479779375,0.001845835988,0.003411842923,0.0002487725781,0.003660615501,0.001766183293,0.0003347327214,0.002100916014,0.004593886879,-0.0006488496454,0.003945037234,0.004957657884,-0.001405338551,0.003552319333,0.006775931429,-0.001825650241,0.004950281189,0.002828633902,-0.001045134761,0.001783499141,0.004165496383,-0.001058123141,0.003107373242,0.003136269168,-0.000715949954,0.002420319214,0.004987837704,-0.001095994297,0.003891843407,0.001859228211,-0.0005210292633,0.001338198947,0.003384909804,-0.0004638161827,0.002921093621,0.002358891989,-0.0001793348484,0.00217955714,0.004991763932,-0.0002953973859,0.004696366547,0.003458165122,-0.0007351826256,0.002722982497,0.002722211179,-5.232233594e-06,0.002716978945,-2.086630449e-05,0.0008974836908,0.0008766173863,0.003672391089,-0.001376871064,0.002295520025,0.002657263717,-0.001179071729,0.001478191988,0.004056594468,-0.001040206823,0.003016387645,0.003995134831,-0.001353989199,0.002641145633,0.003357186089,-0.0006325249893,0.0027246611,0.002411635701,-0.0005923834837,0.001819252217,0.003995767062,-0.0005260645851,0.003469702477,0.003279063245,-0.0005498968688,0.002729166376,0.003463799826,-0.0002850688206,0.003178731006,0.002743238305,-0.0002301446328,0.002513093672,0.002343344258,2.492107562e-05,0.002368265334,0.002184048548,-0.0003429676354,0.001841080913
5.7,0.0001960810437,0.000502402354,0.0006984833977,0.003436870771,-0.0006304006997,0.002806470071,0.00363523366,-0.0005300400854,0.003105193575,0.002645009301,-0.000410402216,0.002234607085,0.00342436515,-0.0002403002261,0.003184064924,0.002005507741,-0.0005552697636,0.001450237978,0.002496935875,-0.0001416672872,0.002355268588,0.002256111212,-0.0004525689572,0.001803542255,0.003431096913,0.0002372012636,0.003668298177,0.001745058394,0.0003267947889,0.002071853183,0.004621849537,-0.0006587400387,0.003963109498,0.004920056497,-0.001404221939,0.003515834558,0.006749075604,-0.001840213116,0.004908862489,0.002800755961,-0.001046080158,0.001754675804,0.00413280302,-0.001065455201,0.003067347819,0.003106265168,-0.0007216341886,0.002384630979,0.004910500107,-0.001092309865,0.003818190243,0.001830472663,-0.0005216620753,0.001308810588,0.003339290257,-0.0004711926494,0.002868097607,0.002345470137,-0.0001771207276,0.00216834941,0.005059084337,-0.0002983789521,0.004760705384,0.003462668882,-0.0007317496443,0.002730919238,0.002774542273,-8.028568655e-06,0.002766513704,1.023947599e-05,0.0009113745386,0.0009216140146,0.003654969921,-0.001387060577,0.002267909344,0.002642801554,-0.001182393366,0.001460408188,0.004024050868,-0.001048647235,0.002975403633,0.003980404457,-0.001373117136,0.002607287321,0.003328135905,-0.000637612782,0.002690523123,0.00238663426,-0.0005983880415,0.001788246218,0.003946475292,-0.0005297035874,0.003416771705,0.003238059933,-0.0005541662997,0.002683893633,0.00342467507,-0.0002939878924,0.003130687177,0.00268601021,-0.000229810916,0.002456199294,0.002303887201,1.306417079e-05,0.002316951372,0.00214762696,-0.0003416323236,0.001805994637
5.8,0.0002210036939,0.0005205473321,0.000741551026,0.003435054137,-0.0006246913307,0.002810362807,0.003714525986,-0.0005287975409,0.003185728445,0.00267852796,-0.0004113421629,0.002267185797,0.003486051865,-0.0002463618021,0.003239690063,0.001997815092,-0.0005574076727,0.001440407419,0.002486230648,-0.0001484135896,0.002337817059,0.002214938251,-0.0004560055764,0.001758932675,0.003444822481,0.0002254750302,0.003670297511,0.001720449122,0.0003191410347,0.002039590157,0.004643102191,-0.0006680664459,0.003975035745,0.004878448241,-0.001401946663,0.003476501579,0.006716706249,-0.001853673972,0.004863032277,0.002770002096,-0.001046046602,0.001723955495,0.004096358089,-0.001072041862,0.003024316227,0.003073493758,-0.0007268634135,0.002346630344,0.004828148478,-0.001087497213,0.003740651266,0.001799966611,-0.0005219030607,0.00127806355,0.00329046752,-0.0004785223151,0.002811945205,0.002328732852,-0.0001746182301,0.002154114622,0.005118452908,-0.0003014466231,0.004817006285,0.003461384688,-0.000727478922,0.002733905766,0.002821350877,-1.077082493e-05,0.002810580052,3.974286354e-05,0.0009256099334,0.0009653527969,0.003635160251,-0.001396321419,0.002238838832,0.002625282399,-0.001184624181,0.001440658217,0.003989864998,-0.001058069963,0.002931795035,0.003961252518,-0.001391063525,0.002570188993,0.003295756409,-0.0006421431508,0.002653613258,0.002358468407,-0.0006037485856,0.001754719821,0.003893592085,-0.000532710726,0.003360881359,0.003193586104,-0.0005580492484,0.002635536855,0.003379463462,-0.0003003863619,0.0030790771,0.002624182531,-0.0002286998796,0.002395482652,0.002262914228,2.94098531e-07,0.002263208327,0.002108877022,-0.000340477932,0.00176839909
5.9,0.0002436999058,0.0005387101295,0.0007824100353,0.003429303327,-0.0006186536388,0.002810649688,0.003787791835,-0.0005272225651,0.00326056927,0.002707926463,-0.0004119610927,0.00229596537,0.003541270499,-0.0002521063391,0.00328916416,0.001987398248,-0.0005588759488,0.001428522299,0.002472192302,-0.0001546993162,0.002317492985,0.002170648945,-0.0004583857856,0.00171226316,0.003452987515,0.0002136306304,0.003666618145,0.001692492316,0.0003117863994,0.002004278715,0.004657648742,-0.0006768313313,0.003980817411,0.004832866156,-0.001398532156,0.003434334,0.006678802747,-0.001865997994,0.004812804753,0.002736462554,-0.001045047789,0.001691414765,0.004056295288,-0.001077881228,0.00297841406,0.003038077603,-0.0007316366654,0.002306440938,0.004741219487,-0.001081727282,0.003659492205,0.001767787534,-0.0005217565442,0.00124603099,0.003238558188,-0.0004857865989,0.002752771589,0.002308762894,-0.0001718633826,0.002136899511,0.00516965712,-0.0003046008376,0.004865056283,0.003454257871,-0.0007223774385,0.002731880432,0.002862504749,-1.345753111e-05,0.002849047217,6.758147127e-05,0.0009401613596,0.001007742831,0.003613026782,-0.001404635767,0.002208391015,0.002604783809,-0.00118577474,0.001419009069,0.003953927861,-0.001068451436,0.002885476425,0.003937701099,-0.001407749512,0.002529951587,0.003260107739,-0.0006460666709,0.002614041068,0.002327218258,-0.0006084384156,0.001718779843,0.003837244537,-0.0005351006347,0.003302143902,0.003145758967,-0.0005615213435,0.002584237623,0.003328210545,-0.0003043133409,0.003023897204,0.00255789327,-0.0002267970206,0.00233109625,0.002220495393,-1.324647318e-05,0.00220724892,0.002068028701,-0.0003395332746,0.001728495427
6.0,0.0002641473544,0.0005568339502,0.0008209813046,0.003419602451,-0.0006123075607,0.00280729489,0.003854765665,-0.0005253366242,0.003329429041,0.002733067156,-0.0004122609892,0.002320806167,0.003589840182,-0.0002575336558,0.003332306526,0.001974338782,-0.000559715958,0.001414622824,0.002454956561,-0.0001605330987,0.002294423463,0.002123609151,-0.0004598194434,0.001663789707,0.003455584747,0.0002017026432,0.003657287391,0.001661337215,0.0003047419541,0.001966079169,0.004665529423,-0.0006850382863,0.003980491136,0.004783356329,-0.001394001502,0.003389354827,0.006635360734,-0.001877146695,0.004758214039,0.002700235221,-0.001043098756,0.001657136465,0.004012757501,-0.001082973933,0.002929783568,0.003000144198,-0.0007359552089,0.002264188989,0.004650154235,-0.001075175163,0.003574979072,0.001734010935,-0.0005212294297,0.001212781506,0.003183674244,-0.0004929584654,0.002690715778,0.002285652271,-0.0001688919042,0.002116760367,0.00521252994,-0.0003078412264,0.004904688713,0.003441262256,-0.0007164541101,0.002724808146,0.002897909192,-1.608711226e-05,0.00288182208,9.370426894e-05,0.0009549990575,0.001048703326,0.003588637396,-0.001411989297,0.002176648099,0.00258139186,-0.001185857315,0.001395534544,0.003916118732,-0.00107974284,0.002836375892,0.003909798836,-0.001423105567,0.002486693268,0.00322126103,-0.0006493407793,0.002571920251,0.002292974525,-0.0006124354537,0.001680539071,0.003777566783,-0.0005369000137,0.003240666769,0.003094693732,-0.0005645550938,0.002530138639,0.003270976419,-0.0003058110981,0.002965165321,0.002487300734,-0.0002240890453,0.002263211688,0.002176683612,-2.739831883e-05,0.002149285293,0.002025292673,-0.0003387979301,0.001686494743
6.1,0.000282336858,0.0005748639657,0.0008572008237,0.003405950853,-0.0006056706111,0.002800280242,0.003915220615,-0.0005231591233,0.003392061491,0.002753838969,-0.0004122449468,0.002341594023,0.003631619877,-0.0002626445368,0.00336897534,0.001958726259,-0.0005599691113,0.001398757147,0.002434668328,-0.000165925457,0.002268742871,0.00207419191,-0.0004604239273,0.001613767983,0.003452632383,0.0001897233183,0.003642355701,0.001627146033,0.0002980149408,0.001925160973,0.004666822259,-0.0006926919247,0.003974130335,0.004729981945,-0.001388381446,0.003341600499,0.006586398645,-0.00188707881,0.004699319835,0.002661427577,-0.001040216171,0.001621211406,0.003965898461,-0.001087323483,0.002878574978,0.002959826014,-0.0007398225317,0.002220003482,0.004555394065,-0.001068014647,0.003487379418,0.001698711504,-0.0005203314484,0.001178380055,0.003125922773,-0.0005000006923,0.00262592208,0.002259502687,-0.0001657387346,0.002093763953,0.005246951983,-0.000311166652,0.004935785331,0.003422402932,-0.0007097199295,0.002712683002,0.002927509069,-1.865780957e-05,0.002908851259,0.0001180733749,0.0009700922336,0.001088165609,0.003562063983,-0.001418371503,0.002143692479,0.002555201314,-0.001184885958,0.001370315356,0.003876315987,-0.001091874876,0.002784441111,0.003877621257,-0.001437072269,0.002440548988,0.003179301275,-0.0006519296321,0.002527371643,0.002255838942,-0.0006157214273,0.001640117515,0.003714703042,-0.0005381456403,0.003176557402,0.003040505373,-0.000567120838,0.002473384535,0.003207840978,-0.0003049144616,0.002902926517,0.002412584866,-0.0002205648267,0.00219202004,0.002131516394,-4.198675403e-05,0.00208952964,0.001980859765,-0.0003382444393,0.001642615326
6.2,0.0002982729992,0.0005927477536,0.0008910207529,0.003388365197,-0.0005987578788,0.002789607318,0.003968970628,-0.0005207072597,0.003448263369,0.002770159637,-0.000411917528,0.002358242109,0.003666510204,-0.0002674406688,0.003399069536,0.001940657455,-0.0005596755548,0.001380981901,0.002411482589,-0.0001708886016,0.002240593987,0.002022773184,-0.0004603190592,0.001562454125,0.003444175645,0.0001777224545,0.0036218981,0.001590095693,0.0002916087628,0.001881704456,0.004661645399,-0.0006997978826,0.003961847516,0.00467282797,-0.001381701781,0.003291126188,0.006531965072,-0.001895750808,0.004636214264,0.002620159195,-0.001036418985,0.00158374021,0.003915885549,-0.001090936835,0.002824948714,0.002917262129,-0.0007432443978,0.002174017731,0.004457378685,-0.001060412856,0.00339696583,0.001661965752,-0.0005190752928,0.001142890459,0.003065409424,-0.0005068648292,0.002558544595,0.002230426608,-0.0001624375084,0.002067989099,0.005272854189,-0.0003145753016,0.004958278888,0.003397719609,-0.0007021882852,0.002695531324,0.002951290805,-2.116766212e-05,0.002930123142,0.0001406663781,0.0009854093385,0.001126075717,0.003533384363,-0.001423775827,0.002109608536,0.002526316954,-0.001182876872,0.001343440082,0.003834408565,-0.001104761119,0.002729647446,0.003841272267,-0.00144960067,0.002391671597,0.003134330094,-0.0006538037244,0.002480526369,0.002215924921,-0.0006182809838,0.001597643937,0.003648811323,-0.0005388827255,0.003109928597,0.002983311178,-0.0005691873466,0.002414123832,0.003138912014,-0.0003016521409,0.002837259874,0.002333950007,-0.0002162169575,0.00211773305,0.002085020163,-5.682449736e-05,0.002028195666,0.001934900849,-0.0003378199295,0.001597080919
6.3,0.0003119750271,0.0006104358269,0.000922410854,0.003366881654,-0.0005915821234,0.00277529953,0.004015872069,-0.0005179959864,0.003497876083,0.002781977439,-0.0004112850077,0.002370692432,0.003694454841,-0.0002719246007,0.003422530241,0.001920235992,-0.0005588731737,0.001361362818,0.002385564886,-0.0001754362253,0.002210128661,0.001969727507,-0.0004596220464,0.001510105461,0.003430287634,0.0001657272958,0.003596014929,0.0015503788,0.000285522899,0.001835901699,0.004650157641,-0.0007063629322,0.003943794709,0.004612003874,-0.001373994268,0.003238009606,0.006472145109,-0.001903117939,0.00456902717,0.002576563062,-0.001031729335,0.001544833727,0.003862901308,-0.001093825073,0.002769076235,0.002872599637,-0.0007462288875,0.00212637075,0.004356543707,-0.001052525325,0.003304018382,0.001623854604,-0.0005174765517,0.001106378052,0.003002243211,-0.0005134911501,0.002488752061,0.002198547656,-0.0001590201578,0.002039527499,0.00529021951,-0.0003180647951,0.004972154715,0.003367288881,-0.0006938754079,0.002673413473,0.002969282632,-2.361458442e-05,0.002945668048,0.000161477678,0.001000918441,0.001162396119,0.003502683852,-0.001428199402,0.00207448445,0.002494854961,-0.001179848901,0.00131500606,0.003790304727,-0.001118299518,0.00267200521,0.003800884522,-0.001460652351,0.002340232171,0.003086466968,-0.0006549396955,0.002431527272,0.002173357053,-0.0006201007827,0.001553256271,0.003580065702,-0.0005391637834,0.003040901919,0.002923232562,-0.0005707222864,0.002352510276,0.003064332919,-0.0002960501364,0.002768282783,0.002251626499,-0.0002110434292,0.00204058307,0.002037215681,-7.17165756e-05,0.001965499106,0.001887567134,-0.0003374484087,0.001550118725
6.4,0.0003234768087,0.0006278821678,0.0009513589765,0.003341556646,-0.0005841538923,0.002757402754,0.004055823605,-0.0005150381225,0.003540785483,0.002789271403,-0.0004103554948,0.002378915909,0.003715440033,-0.0002760997259,0.003439340307,0.001897571776,-0.0005575972442,0.001339974532,0.00235709015,-0.0001795832927,0.002177506857,0.001915422898,-0.000458443066,0.001456979832,0.003411068292,0.000153762472,0.003564830764,0.001508202389,0.0002797528598,0.001787955249,0.004632555573,-0.0007123951171,0.003920160456,0.004547642806,-0.001365291433,0.003182351373,0.00640706451,-0.001909136797,0.004497927713,0.002530784589,-0.001026173392,0.001504611196,0.003807142103,-0.001096003807,0.002711138296,0.002825993148,-0.0007487863587,0.00207720679,0.004253315235,-0.001044491701,0.003208823534,0.001584464256,-0.0005155534494,0.001068910806,0.002936539499,-0.0005198097863,0.002416729712,0.002163999437,-0.0001555166376,0.002008482799,0.005299082556,-0.0003216322297,0.004977450327,0.003331224181,-0.0006848007306,0.00264642345,0.002981552264,-2.599649684e-05,0.002955555767,0.0001805179696,0.001016587668,0.001197105637,0.003470055176,-0.001431642705,0.002038412471,0.002460943113,-0.00117582382,0.001285119293,0.003743936155,-0.001132373217,0.002611562939,0.003756616765,-0.001470199179,0.002286417587,0.003035848466,-0.0006553206302,0.002380527836,0.002128268699,-0.0006211684621,0.001507100236,0.003508655584,-0.0005390474635,0.00296960812,0.002860395201,-0.0005716926559,0.002288702545,0.002984287404,-0.0002881368818,0.002696150522,0.002165869271,-0.0002050490234,0.001960820247,0.001988122706,-8.646668169e-05,0.001901656024,0.001838990742,-0.000337034584,0.001501956158
6.5,0.0003328252023,0.0006450446481,0.0009778698504,0.003312465488,-0.0005764815935,0.002735983895,0.004088764067,-0.0005118445363,0.003576919531,0.002792049706,-0.0004091389513,0.002382910755,0.003729491873,-0.0002799702687,0.003449521604,0.00187278005,-0.0005558807411,0.001316899309,0.002326239798,-0.0001833458192,0.002142893979,0.001860215043,-0.0004568819875,0.001403333055,0.003386641497,0.000141850018,0.003528491515,0.001463784469,0.0002742903579,0.001738074827,0.004609067818,-0.0007179038006,0.003891164017,0.00447989769,-0.001355625608,0.003124272081,0.006336891415,-0.001913769306,0.004423122109,0.002482978657,-0.00101978188,0.001463196777,0.003748814294,-0.001097493059,0.002651321235,0.002777602018,-0.0007509292477,0.00202667277,0.004148101703,-0.001036432252,0.00311166945,0.001543884915,-0.0005133265334,0.001030558382,0.002868419572,-0.0005257427592,0.002342676813,0.002126922892,-0.0001519546554,0.001974968237,0.005299527236,-0.0003252741726,0.004974253064,0.003289673567,-0.0006749870692,0.002614686497,0.002988202589,-2.831142702e-05,0.002959891162,0.0001978121551,0.001032385629,0.001230197784,0.003435596665,-0.001434109533,0.002001487132,0.002424719409,-0.001170826324,0.001253893086,0.00369525789,-0.001146852045,0.002548405845,0.003708648129,-0.001478222605,0.002230425524,0.002982626261,-0.0006549368116,0.002327689449,0.002080798077,-0.0006214713878,0.001459326689,0.003434782381,-0.0005385968421,0.002896185539,0.002794927957,-0.0005720653372,0.002222862619,0.002899000899,-0.0002779490054,0.002621051894,0.002076953345,-0.0001982462286,0.001878707116,0.001937762955,-0.0001008838422,0.001836879112,0.001789285586,-0.0003364688711,0.001452816715
6.6,0.0003400772013,0.0006618852939,0.001001962495,0.003279699512,-0.0005685714877,0.002711128025,0.004114669024,-0.0005084242807,0.003606244743,0.002790346963,-0.0004076471352,0.002382699828,0.003736672258,-0.0002835412501,0.003453131008,0.001845980292,-0.0005537550149,0.001292225277,0.002293198078,-0.0001867406416,0.002106457437,0.001804441492,-0.0004550264108,0.001349415081,0.003357151391,0.0001300094689,0.00348716086,0.001417349614,0.0002691237703,0.001686473384,0.004579948465,-0.000722899597,0.003857048868,0.004408936148,-0.001345028143,0.003063908004,0.006261836709,-0.001916987344,0.004344849365,0.002433306112,-0.001012590178,0.001420715935,0.00368812969,-0.001098316603,0.002589813087,0.002727586478,-0.0007526716654,0.001974914813,0.004041285509,-0.001028445564,0.003012839945,0.001502208398,-0.0005108184324,0.0009913899651,0.002798007786,-0.0005312062936,0.002266801493,0.002087463435,-0.000148359446,0.001939103989,0.005291683325,-0.0003289866898,0.004962696636,0.003242816513,-0.0006644607176,0.002578355796,0.002989367006,-3.055750437e-05,0.002958809502,0.0002133968716,0.00104828177,0.001261678641,0.0033994097,-0.001435607395,0.001963802306,0.002386329744,-0.001164883765,0.001221445979,0.003644245524,-0.001161594389,0.002482651135,0.00365717135,-0.001484712498,0.002172458853,0.002926965335,-0.0006537865818,0.002273178753,0.002031084335,-0.0006209953339,0.001410089001,0.003358655854,-0.0005378774043,0.00282077845,0.002726962142,-0.0005718080103,0.002155154132,0.002808740031,-0.0002655363064,0.002543203724,0.001985167822,-0.0001906556645,0.001794512157,0.001886161718,-0.000114788266,0.001771373452,0.001738549265,-0.0003356332154,0.001402916049
6.7,0.0003452968842,0.0006783704701,0.001023667354,0.00324336315,-0.0005604276278,0.002682935522,0.004133547399,-0.0005047846053,0.003628762794,0.00278422159,-0.0004058935142,0.002378328075,0.0037370751,-0.0002868184185,0.003450256682,0.001817295663,-0.0005512505914,0.001266045072,0.002258149079,-0.0001897852238,0.002068363855,0.00174841666,-0.0004529506119,0.001295466048,0.003322759515,0.0001182579986,0.003441017514,0.001369125409,0.0002642388045,0.001633364214,0.004545472055,-0.000727394246,0.003818077809,0.004334936764,-0.00133352861,0.003001408154,0.006182154921,-0.001918777169,0.004263377752,0.002381931329,-0.001004638125,0.001377293204,0.003625302243,-0.001098500818,0.002526801425,0.002676104475,-0.000754028855,0.00192207562,0.003933217797,-0.001020607674,0.002912610123,0.001459526117,-0.0005080536055,0.0009514725117,0.002725429285,-0.0005361129974,0.002189316288,0.002045769358,-0.0001447537452,0.001901015612,0.005275723239,-0.0003327654415,0.004942957797,0.003190861148,-0.0006532515597,0.002537609588,0.00298520601,-3.273281721e-05,0.002952473193,0.0002273189693,0.001064246579,0.001291565548,0.003361596963,-0.001436148063,0.0019254489,0.002345925809,-0.001158025817,0.001187899993,0.003590892055,-0.001176448926,0.002414443129,0.003602387504,-0.001489665718,0.002112721786,0.002869043452,-0.0006518769227,0.002217166529,0.001979265142,-0.0006197233933,0.001359541749,0.003280492423,-0.000536955376,0.002743537047,0.002656632579,-0.0005708904445,0.002085742134,0.002713812148,-0.0002509650236,0.002462847124,0.001890810803,-0.0001823061177,0.001708504686,0.00183334898,-0.0001280155158,0.001705333465,0.001686866771,-0.0003344076059,0.001352459165
6.8,0.0003485532857,0.0006944710819,0.001043024368,0.003203572402,-0.0005520518469,0.002651520555,0.004145439258,-0.0005009308794,0.003644508379,0.002773754222,-0.0004038931982,0.002369861024,0.003730824029,-0.000289808156,0.003441015873,0.00178685372,-0.0005483981103,0.001238455609,0.002221275463,-0.0001924975564,0.002028777906,0.001692427974,-0.0004507146349,0.001241713339,0.00328364374,0.0001066105879,0.003390254328,0.00131934088,0.0002596192026,0.001578960082,0.00450593117,-0.0007314005077,0.003774530662,0.004258088509,-0.00132115411,0.002936934399,0.006098146735,-0.001919142841,0.004179003893,0.002329021567,-0.0009959697091,0.001333051858,0.003560546934,-0.001098073215,0.002462473719,0.002623310562,-0.0007550166559,0.001868293906,0.003824218561,-0.001012972558,0.002811246003,0.001415928622,-0.0005050578606,0.0009108707609,0.002650811211,-0.0005403738875,0.002110437324,0.002001992131,-0.0001411579603,0.001860834171,0.00525185971,-0.0003366057695,0.004915253941,0.00313404257,-0.00064139315,0.00249264942,0.002975905467,-3.483519189e-05,0.002941070275,0.0002396353836,0.001080251715,0.001319887099,0.003322262709,-0.001435748091,0.001886514619,0.002303664172,-0.001150284185,0.001153379988,0.003535207585,-0.001191256772,0.002343950813,0.003544503902,-0.001493084828,0.002051419075,0.002809051754,-0.000649223562,0.002159828193,0.001925476216,-0.0006176353618,0.001307840854,0.003200516142,-0.0005358967822,0.00266461936,0.002584080197,-0.0005692856654,0.002014794532,0.002614566112,-0.0002343192359,0.002380246877,0.001794187157,-0.0001732344037,0.001620952753,0.00177936075,-0.0001404187411,0.001638942009,0.001634315664,-0.000332676617,0.001301639047
6.9,0.0003499195777,0.000710162797,0.001060082375,0.003160455012,-0.0005434439118,0.0026170111,0.004150414813,-0.0004968665325,0.003653548281,0.002759047246,-0.0004016629078,0.002357384339,0.00371807152,-0.000292517393,0.003425554127,0.001754788408,-0.0005452295552,0.001209558853,0.002182758757,-0.0001948961501,0.001987862607,0.001636732886,-0.0004483629669,0.001188369919,0.003239998614,9.508023224e-05,0.003335078846,0.001268226466,0.0002552473546,0.001523473821,0.004461635526,-0.000734932095,0.003726703431,0.004178592869,-0.00130792913,0.002870663738,0.006010161785,-0.001918107929,0.004092053856,0.002274747376,-0.0009866326407,0.001288114735,0.003494080067,-0.001097060934,0.002397019134,0.002569356717,-0.0007556510961,0.001813705621,0.003714581344,-0.001005573684,0.00270900766,0.001371506563,-0.0005018575094,0.0008696490536,0.002574287586,-0.0005439003877,0.002030387198,0.001956287758,-0.0001375904194,0.001818697338,0.005220343941,-0.0003405027053,0.004879841236,0.003072621547,-0.0006289226466,0.002443698901,0.002961675413,-3.686202179e-05,0.002924813391,0.0002504135194,0.001096270094,0.001346683614,0.003281515043,-0.001434429299,0.001847085744,0.002259706516,-0.001141692438,0.001118014078,0.00347722257,-0.001205854026,0.002271368544,0.003483734694,-0.001494977162,0.001988757532,0.002747195185,-0.0006458506599,0.002101344525,0.001869851883,-0.0006147078228,0.00125514406,0.003118960847,-0.0005347669946,0.002584193853,0.00250945432,-0.0005669703728,0.001942483948,0.002511393689,-0.0002157010753,0.002295692613,0.00169560884,-0.0001634852644,0.001532123575,0.001724240681,-0.000151869569,0.001572371112,0.001580970998,-0.0003303346636,0.001250636334
