Time,S1D1HbO,S1D1HbR,S1D1HbT,S2D2HbO,S2D2HbR,S2D2HbT,S3D3HbO,S3D3HbR,S3D3HbT,S4D4HbO,S4D4HbR,S4D4HbT,S5D5HbO,S5D5HbR,S5D5HbT,S6D6HbO,S6D6HbR,S6D6HbT,S7D7HbO,S7D7HbR,S7D7HbT,S8D8HbO,S8D8HbR,S8D8HbT,S9D9HbO,S9D9HbR,S9D9HbT,S10D10HbO,S10D10HbR,S10D10HbT,S11D11HbO,S11D11HbR,S11D11HbT,S12D12HbO,S12D12HbR,S12D12HbT,S13D13HbO,S13D13HbR,S13D13HbT,S14D14HbO,S14D14HbR,S14D14HbT,S15D15HbO,S15D15HbR,S15D15HbT,S16D16HbO,S16D16HbR,S16D16HbT,S17D17HbO,S17D17HbR,S17D17HbT,S18D18HbO,S18D18HbR,S18D18HbT,S19D19HbO,S19D19HbR,S19D19HbT,S20D20HbO,S20D20HbR,S20D20HbT,S21D21HbO,S21D21HbR,S21D21HbT,S22D22HbO,S22D22HbR,S22D22HbT,S23D23HbO,S23D23HbR,S23D23HbT,S24D24HbO,S24D24HbR,S24D24HbT,S25D25HbO,S25D25HbR,S25D25HbT,S26D26HbO,S26D26HbR,S26D26HbT,S27D27HbO,S27D27HbR,S27D27HbT,S28D28HbO,S28D28HbR,S28D28HbT,S29D29HbO,S29D29HbR,S29D29HbT,S30D30HbO,S30D30HbR,S30D30HbT,S31D31HbO,S31D31HbR,S31D31HbT,S32D32HbO,S32D32HbR,S32D32HbT,S33D33HbO,S33D33HbR,S33D33HbT,S34D34HbO,S34D34HbR,S34D34HbT,S35D35HbO,S35D35HbR,S35D35HbT,S36D36HbO,S36D36HbR,S36D36HbT,
-10,2.531266931e-03,1.329401461e-03,3.860668392e-03,9.484123396e-04,6.140982119e-04,1.562510551e-03,6.450224688e-04,7.055920866e-04,1.350614555e-03,6.684979650e-05,4.274814062e-04,4.943312027e-04,9.023377565e-04,3.593514113e-04,1.261689168e-03,7.609967543e-04,3.969798348e-04,1.157976589e-03,1.376592853e-03,1.763596720e-04,1.552952525e-03,2.266273572e-03,-3.521579733e-06,2.262751992e-03,1.745260691e-04,1.065166463e-04,2.810427153e-04,1.518755964e-03,-4.119778824e-05,1.477558176e-03,1.360701569e-03,2.996189868e-04,1.660320556e-03,5.702110538e-04,2.077184514e-03,2.647395568e-03,1.417473542e-03,5.766683469e-04,1.994141889e-03,9.949917323e-04,-1.676998759e-04,8.272918564e-04,1.354999314e-03,-3.336642319e-04,1.021335082e-03,1.659808899e-03,4.889504830e-05,1.708703948e-03,1.695982686e-03,1.148851569e-05,1.707471202e-03,1.189244143e-03,2.683636913e-04,1.457607835e-03,1.461694429e-03,-9.204226301e-05,1.369652166e-03,1.615394767e-03,5.320328579e-05,1.668598052e-03,5.946444584e-04,5.129283509e-04,1.107572809e-03,1.428565905e-03,2.914285865e-04,1.719994491e-03,6.777513536e-04,9.215321771e-04,1.599283531e-03,1.260995921e-04,4.406234504e-04,5.667230426e-04,1.742816741e-03,-2.147871998e-04,1.528029541e-03,8.235678262e-04,-4.801406827e-05,7.755537579e-04,2.042499885e-03,-4.848336888e-04,1.557666196e-03,2.729028940e-03,-3.954022952e-04,2.333626645e-03,1.505095564e-03,2.026375048e-04,1.707733069e-03,1.215559458e-03,-2.788921505e-04,9.366673079e-04,2.517935731e-03,6.485690263e-05,2.582792633e-03,-1.901723539e-04,1.828771954e-03,1.638599600e-03,2.260011173e-03,-8.796353977e-04,1.380375776e-03,1.651510865e-03,-5.832162803e-04,1.068294585e-03,2.216780211e-03,-5.103599547e-04,1.706420257e-03,6.061901828e-04,2.804023625e-04,8.865925453e-04
-9.9,2.610764251e-03,1.304408002e-03,3.915172253e-03,1.014984082e-03,5.934282236e-04,1.608412305e-03,7.538434515e-04,6.843029160e-04,1.438146368e-03,1.438557576e-04,4.024614724e-04,5.463172300e-04,1.002284015e-03,3.221624059e-04,1.324446421e-03,7.599768391e-04,3.823625159e-04,1.142339355e-03,1.393054484e-03,1.587299648e-04,1.551784449e-03,2.278107284e-03,-1.425565128e-05,2.263851632e-03,2.514159203e-04,8.029444478e-05,3.317103650e-04,1.538692908e-03,-4.521460389e-05,1.493478304e-03,1.449329546e-03,2.620926520e-04,1.711422198e-03,5.709216115e-04,2.054557163e-03,2.625478775e-03,1.505075758e-03,5.014970464e-04,2.006572804e-03,1.005640577e-03,-1.593330936e-04,8.463074836e-04,1.445502719e-03,-3.341483425e-04,1.111354376e-03,1.689373609e-03,4.573576277e-05,1.735109372e-03,1.810943360e-03,-3.789607637e-05,1.773047283e-03,1.198924756e-03,2.510927320e-04,1.450017488e-03,1.443901897e-03,-7.780490434e-05,1.366096993e-03,1.634428718e-03,7.847773098e-05,1.712906449e-03,6.429568510e-04,4.778903911e-04,1.120847242e-03,1.466627092e-03,2.751430754e-04,1.741770168e-03,7.837824568e-04,8.918496447e-04,1.675632102e-03,1.356716380e-04,4.202426596e-04,5.559142975e-04,1.747598044e-03,-2.242958053e-04,1.523302239e-03,8.715767508e-04,-6.715369474e-05,8.044230561e-04,2.047378610e-03,-4.635543922e-04,1.583824218e-03,2.801413880e-03,-3.895073213e-04,2.411906559e-03,1.492872423e-03,1.876901502e-04,1.680562573e-03,1.223331566e-03,-2.954084389e-04,9.279231273e-04,2.530028632e-03,5.125594058e-05,2.581284573e-03,-1.701473154e-04,1.811649342e-03,1.641502026e-03,2.290663495e-03,-8.714210107e-04,1.419242484e-03,1.524091750e-03,-5.005649420e-04,1.023526808e-03,2.195371836e-03,-5.142114350e-04,1.681160401e-03,5.073567079e-04,3.614723906e-04,8.688290985e-04
-9.8,2.677517118e-03,1.276386836e-03,3.953903954e-03,1.071956677e-03,5.711957559e-04,1.643152433e-03,8.529177016e-04,6.612608490e-04,1.514178551e-03,2.168501359e-04,3.775361784e-04,5.943863143e-04,1.094053405e-03,2.854559623e-04,1.379509367e-03,7.534111098e-04,3.670195887e-04,1.120430699e-03,1.401321019e-03,1.416019715e-04,1.542922990e-03,2.280136538e-03,-2.498978433e-05,2.255146753e-03,3.197654192e-04,5.454646580e-05,3.743118850e-04,1.549686652e-03,-4.860640789e-05,1.501080244e-03,1.528567063e-03,2.251233861e-04,1.753690449e-03,5.811187541e-04,2.008923846e-03,2.590042600e-03,1.582635882e-03,4.278307007e-04,2.010466583e-03,1.007774355e-03,-1.487251498e-04,8.590492049e-04,1.523652258e-03,-3.304641796e-04,1.193188079e-03,1.707832086e-03,4.344866644e-05,1.751280752e-03,1.914491719e-03,-8.565401559e-05,1.828837704e-03,1.199816078e-03,2.337571271e-04,1.433573205e-03,1.419938178e-03,-6.403977773e-05,1.355898401e-03,1.644738797e-03,1.021080428e-04,1.746846840e-03,6.828452503e-04,4.430928729e-04,1.125938123e-03,1.495827292e-03,2.574895485e-04,1.753316840e-03,8.821223594e-04,8.601714135e-04,1.742293773e-03,1.422462080e-04,3.991990305e-04,5.414452385e-04,1.740348564e-03,-2.309414610e-04,1.509407103e-03,9.128845666e-04,-8.629103419e-05,8.265935324e-04,2.043075207e-03,-4.388278543e-04,1.604247352e-03,2.860292145e-03,-3.830534031e-04,2.477238742e-03,1.472950601e-03,1.712412142e-04,1.644191815e-03,1.222411336e-03,-3.100804003e-04,9.123309361e-04,2.527722502e-03,3.886159228e-05,2.566584094e-03,-1.479518132e-04,1.778927457e-03,1.630975644e-03,2.304709351e-03,-8.526570364e-04,1.452052314e-03,1.396868120e-03,-4.193827037e-04,9.774854163e-04,2.163638906e-03,-5.174723085e-04,1.646166598e-03,4.053817113e-04,4.383976399e-04,8.437793512e-04
-9.7,2.731504566e-03,1.245434641e-03,3.976939207e-03,1.119398000e-03,5.474897564e-04,1.666887757e-03,9.421461959e-04,6.365593288e-04,1.578705525e-03,2.857115598e-04,3.527463434e-04,6.384579033e-04,1.177349305e-03,2.493188962e-04,1.426668201e-03,7.415213170e-04,3.509856806e-04,1.092506998e-03,1.401483746e-03,1.250030882e-04,1.526486835e-03,2.272565902e-03,-3.572464916e-05,2.236841252e-03,3.794124684e-04,2.935489616e-05,4.087673645e-04,1.551816276e-03,-5.138202325e-05,1.500434252e-03,1.598086757e-03,1.887893210e-04,1.786876078e-03,6.002354271e-04,1.941348010e-03,2.541583437e-03,1.650263925e-03,3.560296520e-04,2.006293577e-03,1.001755034e-03,-1.360531206e-04,8.657019139e-04,1.589181491e-03,-3.226956936e-04,1.266485798e-03,1.715472021e-03,4.204809719e-05,1.757520118e-03,2.006385092e-03,-1.314580859e-04,1.874927007e-03,1.192313652e-03,2.164605311e-04,1.408774183e-03,1.390250016e-03,-5.093444134e-05,1.339315574e-03,1.646556533e-03,1.238178533e-04,1.770374386e-03,7.146339041e-04,4.085657656e-04,1.123199670e-03,1.516017891e-03,2.386135140e-04,1.754631405e-03,9.725247579e-04,8.265817921e-04,1.799106550e-03,1.460687303e-04,3.775945035e-04,5.236632338e-04,1.721488666e-03,-2.348910768e-04,1.486597589e-03,9.473681152e-04,-1.053139101e-04,8.420542051e-04,2.029804239e-03,-4.108923721e-04,1.618911867e-03,2.905805391e-03,-3.763983150e-04,2.529407076e-03,1.445735311e-03,1.533126517e-04,1.599047963e-03,1.212906059e-03,-3.228588348e-04,8.900472242e-04,2.511520816e-03,2.762911057e-05,2.539149927e-03,-1.227091215e-04,1.730218471e-03,1.607509349e-03,2.302447989e-03,-8.238015664e-04,1.478646422e-03,1.271985282e-03,-3.415576576e-04,9.304276244e-04,2.121461804e-03,-5.196651668e-04,1.601796637e-03,3.016691895e-04,5.107764847e-04,8.124456742e-04
-9.6,2.772759613e-03,1.211664970e-03,3.984424582e-03,1.157418058e-03,5.224075249e-04,1.679825583e-03,1.021479777e-03,6.103068412e-04,1.631786618e-03,3.503224498e-04,3.281296359e-04,6.784520856e-04,1.251899805e-03,2.138381677e-04,1.465737973e-03,7.245261226e-04,3.343231549e-04,1.058849278e-03,1.393671730e-03,1.089586383e-04,1.502630369e-03,2.255625470e-03,-4.644438849e-05,2.209181082e-03,4.302507256e-04,4.805872277e-06,4.350565979e-04,1.545208257e-03,-5.355150182e-05,1.491656755e-03,1.657594544e-03,1.531685249e-04,1.810763069e-03,6.274392832e-04,1.853327026e-03,2.480766310e-03,1.708174999e-03,2.863904742e-04,1.994565473e-03,9.880380400e-04,-1.215453606e-04,8.664926794e-04,1.641891360e-03,-3.109269735e-04,1.330964386e-03,1.712638483e-03,4.154460553e-05,1.754183088e-03,2.086436532e-03,-1.749988489e-04,1.911437683e-03,1.176854261e-03,1.993065755e-04,1.376160836e-03,1.355296435e-03,-3.865148213e-05,1.316644953e-03,1.640133489e-03,1.433575692e-04,1.783491059e-03,7.386801898e-04,3.743353185e-04,1.113015508e-03,1.527088186e-03,2.186929831e-04,1.745781169e-03,1.054762793e-03,7.911759721e-04,1.845938765e-03,1.473821022e-04,3.555340432e-04,5.029161454e-04,1.691539883e-03,-2.363533083e-04,1.455186575e-03,9.749378608e-04,-1.241080825e-04,8.508297783e-04,2.007812188e-03,-3.800188049e-04,1.627793383e-03,2.938195185e-03,-3.698948164e-04,2.568300369e-03,1.411648672e-03,1.339654499e-04,1.545614122e-03,1.194998581e-03,-3.337226349e-04,8.612759461e-04,2.482010185e-03,1.749838010e-05,2.499508565e-03,-9.356665942e-05,1.665374515e-03,1.571807856e-03,2.284370184e-03,-7.855058722e-04,1.498864312e-03,1.151508343e-03,-2.689248482e-04,8.825834945e-04,2.068753756e-03,-5.203013560e-04,1.548452400e-03,1.975604317e-04,5.783244625e-04,7.758848941e-04
-9.5,2.801369800e-03,1.175207468e-03,3.976577268e-03,1.186168437e-03,4.960540052e-04,1.682222442e-03,1.090916239e-03,5.826256929e-04,1.673541932e-03,4.105703584e-04,3.037214808e-04,7.142918392e-04,1.317460490e-03,1.791008049e-04,1.496561295e-03,7.026432142e-04,3.171200335e-04,1.019763248e-03,1.378052033e-03,9.349171359e-05,1.471543746e-03,2.229564073e-03,-5.711255504e-05,2.172451518e-03,4.722303721e-04,-1.901164355e-05,4.532187285e-04,1.530035389e-03,-5.512613239e-05,1.474909257e-03,1.706833791e-03,1.183389229e-04,1.825172714e-03,6.616729139e-04,1.746722671e-03,2.408395585e-03,1.756664933e-03,2.191479526e-04,1.975812885e-03,9.671593918e-04,-1.054731431e-04,8.616862487e-04,1.681652490e-03,-2.952424230e-04,1.386410067e-03,1.699722750e-03,4.194653241e-05,1.741669282e-03,2.154506895e-03,-2.159864610e-04,1.938520434e-03,1.153908628e-03,1.823982813e-04,1.336306909e-03,1.315545308e-03,-2.732754861e-05,1.288217760e-03,1.625742920e-03,1.605071199e-04,1.786250040e-03,7.553689833e-04,3.404225290e-04,1.095791512e-03,1.528969860e-03,1.979338416e-04,1.726903701e-03,1.128632801e-03,7.540600755e-04,1.882692877e-03,1.464221960e-04,3.331241501e-04,4.795463460e-04,1.651112824e-03,-2.355708430e-04,1.415541981e-03,9.955390935e-04,-1.425580137e-04,8.529810799e-04,1.977377410e-03,-3.465082329e-04,1.630869177e-03,2.957788772e-03,-3.638801308e-04,2.593908642e-03,1.371123910e-03,1.132997732e-04,1.484423684e-03,1.168943597e-03,-3.426784418e-04,8.262651553e-04,2.439849702e-03,8.397201669e-06,2.448246904e-03,-5.972823007e-05,1.584474371e-03,1.524746141e-03,2.251148311e-03,-7.385975896e-04,1.512550721e-03,1.037372594e-03,-2.032170943e-04,8.341554995e-04,2.005480266e-03,-5.189009759e-04,1.486579290e-03,9.432716426e-05,6.408614255e-04,7.351885898e-04
-9.4,2.817478188e-03,1.136207313e-03,3.953685501e-03,1.205842419e-03,4.685410066e-04,1.674383426e-03,1.150497645e-03,5.536504715e-04,1.704148117e-03,4.663506106e-04,2.795561250e-04,7.459067356e-04,1.373818084e-03,1.451937174e-04,1.519011801e-03,6.760929872e-04,2.994880550e-04,9.755810422e-04,1.354830776e-03,7.862275844e-05,1.433453535e-03,2.194644755e-03,-6.766964383e-05,2.126975111e-03,5.053583234e-04,-4.200726953e-05,4.633510539e-04,1.506516070e-03,-5.611870810e-05,1.450397362e-03,1.745589986e-03,8.437804882e-05,1.829968034e-03,7.017031863e-04,1.623678529e-03,2.325381715e-03,1.796084718e-03,1.544799353e-04,1.950564654e-03,9.397217188e-04,-8.814259479e-05,8.515791240e-04,1.708409596e-03,-2.757298984e-04,1.432679698e-03,1.677155417e-03,4.325890027e-05,1.720414317e-03,2.210498047e-03,-2.541523807e-04,1.956345666e-03,1.123974922e-03,1.658373057e-04,1.289812227e-03,1.271469455e-03,-1.707096764e-05,1.254398488e-03,1.603683613e-03,1.750763164e-04,1.778759930e-03,7.651074914e-04,3.068421783e-04,1.071949670e-03,1.521642109e-03,1.765641930e-04,1.698206302e-03,1.193958569e-03,7.153512112e-04,1.909309780e-03,1.434136936e-04,3.104714021e-04,4.538850957e-04,1.600894368e-03,-2.328125637e-04,1.368081804e-03,1.009153980e-03,-1.605480861e-04,8.486058937e-04,1.938815813e-03,-3.106918208e-04,1.628123993e-03,2.964982684e-03,-3.586666944e-04,2.606315989e-03,1.324601661e-03,9.145238432e-05,1.416054045e-03,1.135061156e-03,-3.497567811e-04,7.853043750e-04,2.385760447e-03,2.445202971e-07,2.386004967e-03,-2.049743133e-05,1.487820269e-03,1.467322837e-03,2.203622124e-03,-6.840602026e-04,1.519561921e-03,9.313376811e-04,-1.460195224e-04,7.853181587e-04,1.931678505e-03,-5.150107712e-04,1.416667734e-03,-6.836673452e-06,6.982968294e-04,6.914601559e-04
-9.3,2.821284251e-03,1.094824656e-03,3.916108907e-03,1.216675102e-03,4.399864155e-04,1.656661517e-03,1.200306971e-03,5.235262311e-04,1.723833202e-03,5.175689381e-04,2.556676915e-04,7.732366296e-04,1.420793727e-03,1.122033807e-04,1.532997107e-03,6.451028519e-04,2.815606740e-04,9.266635259e-04,1.324254047e-03,6.436905835e-05,1.388623106e-03,2.151141906e-03,-7.803230785e-05,2.073109598e-03,5.296973209e-04,-6.409064628e-05,4.656066746e-04,1.474913135e-03,-5.654387239e-05,1.418369263e-03,1.773694733e-03,5.136274431e-05,1.825057478e-03,7.461785254e-04,1.486531016e-03,2.232709542e-03,1.826816431e-03,9.251308714e-05,1.919329518e-03,9.063789729e-04,-6.988646185e-05,8.364925111e-04,1.722185868e-03,-2.524852864e-04,1.469700581e-03,1.645403270e-03,4.548005962e-05,1.690883330e-03,2.254348097e-03,-2.892511261e-04,1.965096970e-03,1.087573502e-03,1.497221753e-04,1.237295677e-03,1.223540313e-03,-7.956829657e-06,1.215583483e-03,1.574283213e-03,1.869047254e-04,1.761187938e-03,7.683191988e-04,2.736030442e-04,1.041922243e-03,1.505136582e-03,1.548280860e-04,1.659964668e-03,1.250595398e-03,6.751774911e-04,1.925772889e-03,1.385658423e-04,2.876810186e-04,4.262468608e-04,1.541633927e-03,-2.283659252e-04,1.313268001e-03,1.015803156e-03,-1.779640860e-04,8.378390702e-04,1.892490541e-03,-2.729319667e-04,1.619558575e-03,2.960225611e-03,-3.545350122e-04,2.605690599e-03,1.272526846e-03,6.859186099e-05,1.341118707e-03,1.093728573e-03,-3.550059931e-04,7.387225797e-04,2.320514375e-03,-7.046728739e-06,2.313467646e-03,2.467346245e-05,1.375944258e-03,1.400617720e-03,2.142780863e-03,-6.230110396e-04,1.519769823e-03,8.349481156e-04,-9.872847109e-05,7.362196445e-04,1.847473844e-03,-5.082189131e-04,1.339254931e-03,-1.048257327e-04,7.506153106e-04,6.457895779e-04
-9.2,2.813044202e-03,1.051233812e-03,3.864278014e-03,1.218942818e-03,4.105135078e-04,1.629456326e-03,1.240463557e-03,4.924065028e-04,1.732870060e-03,5.641430142e-04,2.320911237e-04,7.962341379e-04,1.458244945e-03,8.021544427e-05,1.538460389e-03,6.099110085e-04,2.634906618e-04,8.734016702e-04,1.286607789e-03,5.074433215e-05,1.337352122e-03,2.099339147e-03,-8.809416420e-05,2.011244983e-03,5.453636070e-04,-8.517282438e-05,4.601907827e-04,1.435531588e-03,-5.641841907e-05,1.379113169e-03,1.791028235e-03,1.936886044e-05,1.810397096e-03,7.936879097e-04,1.337722208e-03,2.131410118e-03,1.849252954e-03,3.332782237e-05,1.882580776e-03,8.678207838e-04,-5.105554342e-05,8.167652403e-04,1.723086666e-03,-2.256180359e-04,1.497468630e-03,1.604967562e-03,4.859805968e-05,1.653565621e-03,2.286026995e-03,-3.210621064e-04,1.964964888e-03,1.045242827e-03,1.341451143e-04,1.179387941e-03,1.172218598e-03,-2.033768465e-08,1.172198260e-03,1.537898963e-03,1.958627400e-04,1.733761703e-03,7.654364858e-04,2.407093923e-04,1.006145878e-03,1.479541174e-03,1.329791565e-04,1.612520331e-03,1.298433393e-03,6.336778777e-04,1.932111270e-03,1.320682737e-04,2.648554896e-04,3.969237633e-04,1.474128311e-03,-2.225295797e-04,1.251598731e-03,1.015545788e-03,-1.946945629e-04,8.208512246e-04,1.838822580e-03,-2.336240152e-04,1.605198565e-03,2.944002784e-03,-3.517292971e-04,2.592273487e-03,1.215345194e-03,4.491241114e-05,1.260257605e-03,1.045372036e-03,-3.584860909e-04,6.868859451e-04,2.244922772e-03,-1.356771333e-05,2.231355059e-03,7.613099459e-05,1.249622883e-03,1.325753878e-03,2.069742396e-03,-5.566779752e-04,1.513064420e-03,7.495011425e-04,-6.251652023e-05,6.869846223e-04,1.753090865e-03,-4.981656621e-04,1.254925203e-03,-1.986346922e-04,7.978616129e-04,5.992269207e-04
-9.1,2.793070453e-03,1.005622123e-03,3.798692576e-03,1.212961448e-03,3.802504024e-04,1.593211850e-03,1.271117781e-03,4.604512221e-04,1.731569003e-03,6.060027910e-04,2.088629290e-04,8.148657200e-04,1.486066276e-03,4.931431329e-05,1.535380590e-03,5.707690587e-04,2.454469515e-04,8.162160103e-04,1.242216444e-03,3.775854503e-05,1.279974989e-03,2.039527606e-03,-9.772794467e-05,1.941799662e-03,5.525234505e-04,-1.051676770e-04,4.473557736e-04,1.388715216e-03,-5.576154294e-05,1.332953673e-03,1.797520376e-03,-1.152912310e-05,1.785991253e-03,8.428121610e-04,1.179723131e-03,2.022535292e-03,1.863784212e-03,-2.303826779e-05,1.840745944e-03,8.247573113e-04,-3.200960601e-05,7.927477053e-04,1.711302877e-03,-1.952570020e-04,1.516045875e-03,1.556381917e-03,5.258811389e-05,1.608970031e-03,2.305530911e-03,-3.493908019e-04,1.956140109e-03,9.975357755e-04,1.191881143e-04,1.116723890e-03,1.117943901e-03,6.748683469e-06,1.124692584e-03,1.494915453e-03,2.018547772e-04,1.696770230e-03,7.568930087e-04,2.081633233e-04,9.650563320e-04,1.445002386e-03,1.112744570e-04,1.556276843e-03,1.337399705e-03,5.910017153e-04,1.928401420e-03,1.240876280e-04,2.420934272e-04,3.661810552e-04,1.399206107e-03,-2.156067910e-04,1.183599316e-03,1.008478032e-03,-2.106318740e-04,7.978461579e-04,1.778298414e-03,-1.931976537e-04,1.585100760e-03,2.916823149e-03,-3.504557960e-04,2.566367353e-03,1.153499800e-03,2.062708601e-05,1.174126886e-03,9.904581127e-04,-3.602632062e-04,6.301949065e-04,2.159825568e-03,-1.941326011e-05,2.140412308e-03,1.339706103e-04,1.109894165e-03,1.243864775e-03,1.985731275e-03,-4.863743297e-04,1.499356945e-03,6.760220749e-04,-3.830496074e-05,6.377171141e-04,1.648857325e-03,-4.845489059e-04,1.164308419e-03,-2.873661302e-04,8.401216296e-04,5.527554994e-04
-9,2.761730257e-03,9.581885867e-04,3.719918844e-03,1.199083764e-03,3.493295315e-04,1.548413296e-03,1.292446044e-03,4.278246102e-04,1.720270654e-03,6.430904639e-04,1.860216047e-04,8.291120686e-04,1.504189459e-03,1.958269342e-05,1.523772153e-03,5.279441733e-04,2.276100744e-04,7.555542477e-04,1.191440725e-03,2.541798146e-05,1.216858707e-03,1.972005068e-03,-1.067888159e-04,1.865216252e-03,5.513891858e-04,-1.239934244e-04,4.273957614e-04,1.334842724e-03,-5.459505449e-05,1.280247669e-03,1.793151261e-03,-4.125865714e-05,1.751892604e-03,8.921607034e-04,1.014975552e-03,1.907136255e-03,1.870790747e-03,-7.658735503e-05,1.794203392e-03,7.779043275e-04,-1.310702211e-05,7.647973054e-04,1.687114622e-03,-1.615560121e-04,1.525558610e-03,1.500210156e-03,5.741083899e-05,1.557620995e-03,2.312875962e-03,-3.740680939e-04,1.938807869e-03,9.450158070e-04,1.049193886e-04,1.049935196e-03,1.061126367e-03,1.240740810e-05,1.073533775e-03,1.445739720e-03,2.048250357e-04,1.650564756e-03,7.431175098e-04,1.759674617e-04,9.190849715e-04,1.401726514e-03,8.996874527e-05,1.491695259e-03,1.367459893e-03,5.473078557e-04,1.914767749e-03,1.147659296e-04,2.194887669e-04,3.342546965e-04,1.317713402e-03,-2.079002410e-04,1.109813161e-03,9.947308222e-04,-2.256731381e-04,7.690576840e-04,1.711471588e-03,-1.521162512e-04,1.559355337e-03,2.879209342e-03,-3.508823532e-04,2.528326989e-03,1.087428326e-03,-4.038499096e-06,1.083389826e-03,9.294848152e-04,-3.604039166e-04,5.690808986e-04,2.066082910e-03,-2.468291784e-05,2.041399992e-03,1.980003600e-04,9.580682089e-04,1.156068569e-03,1.892057250e-03,-4.134711694e-04,1.478586080e-03,6.152447936e-04,-2.674142383e-05,5.885033697e-04,1.535202114e-03,-4.671249902e-04,1.068077124e-03,-3.702330831e-04,8.774994935e-04,5.072664104e-04
-8.9,2.719443977e-03,9.091422653e-04,3.628586242e-03,1.177696404e-03,3.178869553e-04,1.495583359e-03,1.304647214e-03,3.946930142e-04,1.699340228e-03,6.753610926e-04,1.636076647e-04,8.389687573e-04,1.512584333e-03,-8.898946036e-06,1.503685387e-03,4.817217762e-04,2.101660800e-04,6.918878563e-04,1.134675243e-03,1.372555980e-05,1.148400803e-03,1.897076643e-03,-1.151188807e-04,1.781957763e-03,5.422154300e-04,-1.415742549e-04,4.006411751e-04,1.274324094e-03,-5.294350883e-05,1.221380585e-03,1.777952111e-03,-6.974983863e-05,1.708202272e-03,9.403930342e-04,8.458553341e-04,1.786248368e-03,1.870640873e-03,-1.273560013e-04,1.743284872e-03,7.279677395e-04,5.307304783e-06,7.332750443e-04,1.650896198e-03,-1.246996372e-04,1.526196560e-03,1.437044874e-03,6.301035575e-05,1.500055229e-03,2.308094272e-03,-3.949480032e-04,1.913146269e-03,8.882532084e-04,9.139091483e-05,9.796441232e-04,1.002142402e-03,1.705758472e-05,1.019199986e-03,1.390794707e-03,2.047650750e-04,1.595559782e-03,7.245299543e-04,1.441277140e-04,8.686576683e-04,1.349980185e-03,6.930929504e-05,1.419289480e-03,1.388618780e-03,5.027633607e-04,1.891382140e-03,1.042212246e-04,1.971303383e-04,3.013515629e-04,1.230501771e-03,-1.997080162e-04,1.030793755e-03,9.744680819e-04,-2.397215330e-04,7.347465490e-04,1.638957356e-03,-1.108719863e-04,1.528085370e-03,2.831690013e-03,-3.531372430e-04,2.478552770e-03,1.017560729e-03,-2.885083808e-05,9.887098906e-04,8.629724426e-04,-3.589695103e-04,5.040029323e-04,1.964569314e-03,-2.948297522e-05,1.935086339e-03,2.677249198e-04,7.957261220e-04,1.063451042e-03,1.790093067e-03,-3.393651713e-04,1.450727896e-03,5.675927645e-04,-2.817788970e-05,5.394148748e-04,1.412649180e-03,-4.457051181e-04,9.669440617e-04,-4.465591091e-04,9.100963209e-04,4.635372118e-04
-8.8,2.666683458e-03,8.587003978e-04,3.525383856e-03,1.149216931e-03,2.860614915e-04,1.435278423e-03,1.307940772e-03,3.612227639e-04,1.669163536e-03,7.027842163e-04,1.416633111e-04,8.444475274e-04,1.511260938e-03,-3.605299705e-05,1.475207941e-03,4.324082148e-04,1.933000702e-04,6.257082850e-04,1.072346360e-03,2.681331038e-06,1.075027691e-03,1.815056862e-03,-1.225528109e-04,1.692504052e-03,5.252957363e-04,-1.578419118e-04,3.674538244e-04,1.207597435e-03,-5.083417815e-05,1.156763257e-03,1.752006653e-03,-9.693618367e-05,1.655070469e-03,9.862288863e-04,6.746542202e-04,1.660883106e-03,1.863685745e-03,-1.754054673e-04,1.688280277e-03,6.756278137e-04,2.291453152e-05,6.985423453e-04,1.603121969e-03,-8.490995569e-05,1.518212014e-03,1.367506408e-03,6.931222932e-05,1.436818637e-03,2.291235284e-03,-4.119060765e-04,1.879329207e-03,8.278217194e-04,7.863739956e-05,9.064591189e-04,9.413346121e-04,2.084044271e-05,9.621750548e-04,1.330512461e-03,2.017209085e-04,1.532233370e-03,7.015396452e-04,1.126559578e-04,8.141956030e-04,1.290090376e-03,4.953096030e-05,1.339621337e-03,1.400920919e-03,4.575418261e-04,1.858462745e-03,9.255010329e-05,1.751017416e-04,2.676518449e-04,1.138417842e-03,-1.913198854e-04,9.470979565e-04,9.478856666e-04,-2.526880875e-04,6.951975791e-04,1.561421955e-03,-6.997587160e-05,1.491446083e-03,2.774794053e-03,-3.573064217e-04,2.417487631e-03,9.443172816e-04,-5.357152434e-05,8.907457572e-04,7.914550905e-04,-3.560120097e-04,4.354430809e-04,1.856169707e-03,-3.392845707e-05,1.822241250e-03,3.423498834e-04,6.247041036e-04,9.670539870e-04,1.681249072e-03,-2.654405172e-04,1.415808555e-03,5.331590861e-04,-4.264792537e-05,4.905111608e-04,1.281809548e-03,-4.201481579e-04,8.616613902e-04,-5.157802364e-04,9.379979240e-04,4.222176876e-04
-8.7,2.603970411e-03,8.070863717e-04,3.411056783e-03,1.114090861e-03,2.539937620e-04,1.368084623e-03,1.302565794e-03,3.275781568e-04,1.630143951e-03,7.253457143e-04,1.202319242e-04,8.455776385e-04,1.500272107e-03,-6.180538335e-05,1.438466724e-03,3.803317884e-04,1.771906020e-04,5.575223904e-04,1.004909983e-03,-7.716937054e-06,9.971930455e-04,1.726272227e-03,-1.289243218e-04,1.597347906e-03,5.009594315e-04,-1.727370642e-04,3.282223673e-04,1.135125923e-03,-4.829685945e-05,1.086829064e-03,1.715452293e-03,-1.227554046e-04,1.592696888e-03,1.028453000e-03,5.035740772e-04,1.532027077e-03,1.850251322e-03,-2.208087581e-04,1.629442563e-03,6.215250697e-04,3.943244201e-05,6.609575118e-04,1.544371329e-03,-4.245392094e-05,1.501917408e-03,1.292240651e-03,7.622231113e-05,1.368462962e-03,2.262372327e-03,-4.248402893e-04,1.837532038e-03,7.642951449e-04,6.667692258e-05,8.309720675e-04,8.790152327e-04,2.392982952e-05,9.029450622e-04,1.265327831e-03,1.957970682e-04,1.461124899e-03,6.745440756e-04,8.157248059e-05,7.561165562e-04,1.222443036e-03,3.085131646e-05,1.253294353e-03,1.404450357e-03,4.118214571e-04,1.816271814e-03,7.983110922e-05,1.534814475e-04,2.333125567e-04,1.042293215e-03,-1.830131332e-04,8.592800816e-04,9.152102064e-04,-2.644936589e-04,6.507165475e-04,1.479568871e-03,-2.994410565e-05,1.449624765e-03,2.709045554e-03,-3.634294355e-04,2.345616118e-03,8.681069133e-04,-7.795977803e-05,7.901471353e-04,7.154734932e-04,-3.515737878e-04,3.638997054e-04,1.741776201e-03,-3.814408433e-05,1.703632117e-03,4.208059758e-04,4.470579512e-04,8.678639270e-04,1.566944605e-03,-1.930275137e-04,1.373917091e-03,5.116917222e-04,-6.984865409e-05,4.418430681e-04,1.143375323e-03,-3.903553974e-04,7.530199255e-04,-5.774509153e-04,9.612741235e-04,3.838232082e-04
-8.6,2.531874091e-03,7.545278632e-04,3.286401954e-03,1.072788159e-03,2.218252115e-04,1.294613371e-03,1.288779581e-03,2.939196637e-04,1.582699244e-03,7.430486077e-04,9.935754348e-05,8.424061512e-04,1.479715223e-03,-8.608623767e-05,1.393628986e-03,3.258412206e-04,1.620051499e-04,4.878463705e-04,9.328485375e-04,-1.747321510e-05,9.153753224e-04,1.631063374e-03,-1.340731002e-04,1.496990274e-03,4.695682001e-04,-1.862102972e-04,2.833579029e-04,1.057394136e-03,-4.536356246e-05,1.012030573e-03,1.668480115e-03,-1.471502005e-04,1.521329915e-03,1.065919361e-03,3.347271529e-04,1.400646514e-03,1.830632199e-03,-2.636383275e-04,1.566993871e-03,5.662500469e-04,5.462192453e-05,6.208719714e-04,1.475331040e-03,2.349841198e-06,1.477680881e-03,1.211914241e-03,8.362778689e-05,1.295542028e-03,2.221612782e-03,-4.336742953e-04,1.787938486e-03,6.982433667e-04,5.551330945e-05,7.537566762e-04,8.154713561e-04,2.652433475e-05,8.419956908e-04,1.195672147e-03,1.871566420e-04,1.382828789e-03,6.439272748e-04,5.090798870e-05,6.948352635e-04,1.147479087e-03,1.346608625e-05,1.160945173e-03,1.399329280e-03,3.657830793e-04,1.765112360e-03,6.612815176e-05,1.323430339e-04,1.984711856e-04,9.429345778e-04,-1.750480921e-04,7.678864857e-04,8.766967887e-04,-2.750707156e-04,6.016260731e-04,1.394124026e-03,8.716179066e-06,1.402840205e-03,2.634957532e-03,-3.714940202e-04,2.263463512e-03,7.893259241e-04,-1.017759146e-04,6.875500095e-04,6.355687649e-04,-3.456902251e-04,2.898785398e-04,1.622284563e-03,-4.226375556e-05,1.580020807e-03,5.017946088e-04,2.650057356e-04,7.668003444e-04,1.448578676e-03,-1.233645329e-04,1.325214143e-03,5.025936889e-04,-1.091357461e-04,3.934579428e-04,9.981198294e-04,-3.562754740e-04,6.418443554e-04,-6.312528890e-04,9.799852505e-04,3.487323615e-04
-8.5,2.451007554e-03,7.012553187e-04,3.152262873e-03,1.025798790e-03,1.896970392e-04,1.215495829e-03,1.266855465e-03,2.604023771e-04,1.527257842e-03,7.559120333e-04,7.908431912e-05,8.349963525e-04,1.449732328e-03,-1.088305899e-04,1.340901738e-03,2.693018100e-04,1.478961944e-04,4.171980044e-04,8.566666693e-04,-2.659276954e-05,8.300738998e-04,1.529786941e-03,-1.378518919e-04,1.391935050e-03,4.315122416e-04,-1.982226452e-04,2.332895963e-04,9.749034388e-04,-4.206806877e-05,9.328353700e-04,1.611333388e-03,-1.700690418e-04,1.441264347e-03,1.097556495e-03,1.701353099e-04,1.267691805e-03,1.805091662e-03,-3.039583731e-04,1.501133289e-03,5.103372494e-04,6.828935053e-05,5.786265999e-04,1.396795030e-03,4.912527886e-05,1.445920309e-03,1.127206830e-03,9.140093322e-05,1.218607763e-03,2.169111995e-03,-4.383625333e-04,1.730749462e-03,6.302275777e-04,4.513996505e-05,6.753675427e-04,7.509696895e-04,2.883971164e-05,7.798094012e-04,1.121966409e-03,1.760177063e-04,1.297984115e-03,6.100571626e-04,2.070523371e-05,6.307623963e-04,1.065687600e-03,-2.454867347e-06,1.063232733e-03,1.385715569e-03,3.196082183e-04,1.705323787e-03,5.149363339e-05,1.117555078e-04,1.632491412e-04,8.411147805e-04,-1.676641939e-04,6.734505865e-04,8.326251127e-04,-2.843648769e-04,5.482602358e-04,1.305821117e-03,4.551863467e-05,1.351339752e-03,2.553022826e-03,-3.814291081e-04,2.171593718e-03,7.083567566e-04,-1.247859325e-04,5.835708241e-04,5.522759061e-04,-3.383925923e-04,2.138833137e-04,1.498589776e-03,-4.642872940e-05,1.452161046e-03,5.838528257e-04,8.085384387e-05,6.647066695e-04,1.327501799e-03,-5.756798648e-05,1.269933812e-03,5.049428758e-04,-1.595365316e-04,3.454063442e-04,8.469041769e-04,-3.179215392e-04,5.289826377e-04,-6.770043309e-04,9.941898810e-04,3.171855501e-04
-8.4,2.362022356e-03,6.475005912e-04,3.009522947e-03,9.736272270e-04,1.577489584e-04,1.131376185e-03,1.237080283e-03,2.271746887e-04,1.464254972e-03,7.639687627e-04,5.945573808e-05,8.234245008e-04,1.410508800e-03,-1.299790942e-04,1.280529705e-03,2.110897039e-04,1.349978799e-04,3.460875839e-04,7.768857422e-04,-3.508179795e-05,7.418039442e-04,1.422817774e-03,-1.401334138e-04,1.282684361e-03,3.872062441e-04,-2.087456838e-04,1.784605603e-04,8.881666524e-04,-3.844530491e-05,8.497213475e-04,1.544305020e-03,-1.914668555e-04,1.352838164e-03,1.122373153e-03,1.172198190e-05,1.134095134e-03,1.773867606e-03,-3.418230808e-04,1.432044525e-03,4.542614610e-04,8.028685626e-05,5.345483173e-04,1.309662899e-03,9.743389315e-05,1.407096792e-03,1.038801372e-03,9.940483075e-05,1.138206202e-03,2.105092559e-03,-4.388978980e-04,1.666194661e-03,5.607950264e-04,3.554450574e-05,5.963395321e-04,6.857596500e-04,3.110224634e-05,7.168618963e-04,1.044615007e-03,1.626466120e-04,1.207261619e-03,5.732822069e-04,-8.979284064e-06,5.643029229e-04,9.775975054e-04,-1.677116683e-05,9.608263386e-04,1.363799822e-03,2.734772626e-04,1.637277085e-03,3.597161986e-05,9.178367575e-05,1.277552956e-04,7.375653620e-04,-1.610769154e-04,5.764884466e-04,7.832946402e-04,-2.923363511e-04,4.909582891e-04,1.215387693e-03,8.000544596e-05,1.295393139e-03,2.463702622e-03,-3.930969011e-04,2.070605721e-03,6.255664885e-04,-1.467661202e-04,4.788003683e-04,4.661163415e-04,-3.297084115e-04,1.364079300e-04,1.371580601e-03,-5.078472222e-05,1.320795878e-03,6.654303889e-04,-1.030844756e-04,5.623459133e-04,1.204990151e-03,3.389423679e-06,1.208379575e-03,5.175282666e-04,-2.197802465e-04,2.977480201e-04,6.906869393e-04,-2.753942029e-04,4.152927364e-04,-7.146659781e-04,1.003951773e-03,2.892857949e-04
-8.3,2.265602169e-03,5.934954587e-04,2.859097628e-03,9.167862935e-04,1.261177960e-04,1.042904090e-03,1.199752663e-03,1.943772011e-04,1.394129864e-03,7.672624516e-04,4.051354798e-05,8.077759996e-04,1.362271745e-03,-1.494787984e-04,1.212792946e-03,1.515849542e-04,1.234235761e-04,2.750085303e-04,6.940378979e-04,-4.294712269e-05,6.510907752e-04,1.310551408e-03,-1.408164102e-04,1.169734998e-03,3.370857163e-04,-2.177613390e-04,1.193243774e-04,7.977028166e-04,-3.453059919e-05,7.631722174e-04,1.467734988e-03,-2.113055374e-04,1.256429450e-03,1.139463850e-03,-1.387053895e-04,1.000758460e-03,1.737182097e-03,-3.772791630e-04,1.359902934e-03,3.984344128e-04,9.051295637e-05,4.889473692e-04,1.214938232e-03,1.467707836e-04,1.361709016e-03,9.473742113e-04,1.074994634e-04,1.054873675e-03,2.029867729e-03,-4.353217068e-04,1.594546022e-03,4.904738836e-04,2.671321259e-05,5.171870962e-04,6.200754904e-04,3.354241187e-05,6.536179023e-04,9.640015713e-04,1.473485407e-04,1.111350112e-03,5.339282724e-04,-3.807306881e-05,4.958552035e-04,8.837697725e-04,-2.937566953e-05,8.543941030e-04,1.333802759e-03,2.275676958e-04,1.561370455e-03,1.960173045e-05,7.248848950e-05,9.209021995e-05,6.329705187e-04,-1.554752534e-04,4.774952653e-04,7.290198746e-04,-2.989612835e-04,4.300585911e-04,1.123531673e-03,1.117525419e-04,1.235284215e-03,2.367415911e-03,-4.062865587e-04,1.961129352e-03,5.413054550e-04,-1.675067782e-04,3.737986767e-04,3.775897480e-04,-3.196584680e-04,5.793127993e-05,1.242133301e-03,-5.547796470e-05,1.186655337e-03,7.449706006e-04,-2.845703056e-04,4.604002950e-04,1.082224422e-03,5.869305544e-05,1.140917477e-03,5.388980177e-04,-2.883413140e-04,2.505567038e-04,5.305337811e-04,-2.289028843e-04,3.016308968e-04,-7.443409028e-04,1.009346143e-03,2.650052400e-04
-8.2,2.162456119e-03,5.394700377e-04,2.701926157e-03,8.557910227e-04,9.493609497e-05,9.507271177e-04,1.155183218e-03,1.621418989e-04,1.317325117e-03,7.658458956e-04,2.229659369e-05,7.881424893e-04,1.305289432e-03,-1.672839181e-04,1.138005514e-03,9.116503125e-05,1.132641686e-04,2.044291999e-04,6.086606225e-04,-5.019598000e-05,5.584646425e-04,1.193406074e-03,-1.398300842e-04,1.053575989e-03,2.816041835e-04,-2.252616536e-04,5.634252992e-05,7.040329779e-04,-3.035906499e-05,6.736739129e-04,1.382008771e-03,-2.295543257e-04,1.152454446e-03,1.148013942e-03,-2.794787936e-04,8.685351481e-04,1.695254289e-03,-4.103698327e-04,1.284884456e-03,3.432013173e-04,9.891455578e-05,4.421158731e-04,1.113726013e-03,1.965634075e-04,1.310289421e-03,8.535870916e-04,1.155466602e-04,9.691337519e-04,1.943863477e-03,-4.277325016e-04,1.516130975e-03,4.197687277e-04,1.863493844e-05,4.384036661e-04,5.541389313e-04,3.638808198e-05,5.905270133e-04,8.804873374e-04,1.304564588e-04,1.010943796e-03,4.922968455e-04,-6.648492859e-05,4.258119169e-04,7.847910730e-04,-4.019840332e-05,7.445926697e-04,1.295973682e-03,1.820524628e-04,1.478026144e-03,2.424198581e-06,5.392733340e-05,5.635153199e-05,5.279627353e-04,-1.510194054e-04,3.769433300e-04,6.701269313e-04,-3.042328067e-04,3.658941246e-04,1.030928095e-03,1.403749552e-04,1.171303050e-03,2.264534542e-03,-4.207128413e-04,1.843821701e-03,4.559071149e-04,-1.868152460e-04,2.690918689e-04,2.871665769e-04,-3.082519621e-04,-2.108538523e-05,1.111104910e-03,-6.065027611e-05,1.050454634e-03,8.209882357e-04,-4.615140800e-04,3.594741557e-04,9.602760628e-04,1.076929571e-04,1.067969020e-03,5.674190288e-04,-3.634928344e-04,2.039261943e-04,3.676240588e-04,-1.787820498e-04,1.888420090e-04,-7.662671948e-04,1.010465188e-03,2.441979932e-04
-8.1,2.053312374e-03,4.856513129e-04,2.538963687e-03,7.911532342e-04,6.433088642e-05,8.554841206e-04,1.103696802e-03,1.305915757e-04,1.234288378e-03,7.597809620e-04,4.839864735e-06,7.646208267e-04,1.239872327e-03,-1.833565798e-04,1.056515748e-03,3.020074801e-05,1.045860708e-04,1.347868189e-04,5.212923110e-04,-5.683596894e-05,4.644563421e-04,1.071823657e-03,-1.371365924e-04,9.346870648e-04,2.212313157e-04,-2.312486470e-04,-1.001733128e-05,6.076773604e-04,-2.596530463e-05,5.817120558e-04,1.287557012e-03,-2.461901141e-04,1.041366898e-03,1.147303626e-03,-4.090926755e-04,7.382109506e-04,1.648318314e-03,-4.411391255e-04,1.207179189e-03,2.888381156e-04,1.054895830e-04,3.943276986e-04,1.007226232e-03,2.461748570e-04,1.253401089e-03,7.580824537e-04,1.234131251e-04,8.814955787e-04,1.847632788e-03,-4.162893381e-04,1.431343450e-03,3.491565870e-04,1.130508326e-05,3.604616702e-04,4.881633366e-04,3.985724485e-05,5.280205814e-04,7.944112114e-04,1.123199152e-04,9.067311266e-04,4.486651654e-04,-9.410232657e-05,3.545628388e-04,6.812688605e-04,-4.921026026e-05,6.320586002e-04,1.250589951e-03,1.370985929e-04,1.387688543e-03,-1.551427380e-05,3.615432669e-05,2.064005289e-05,4.231203108e-04,-1.478385761e-04,2.752817348e-04,6.069518153e-04,-3.081614819e-04,2.987903334e-04,9.382076724e-04,1.655326724e-04,1.103740345e-03,2.155386037e-03,-4.360213204e-04,1.719364717e-03,3.696896172e-04,-2.045186189e-04,1.651709983e-04,1.952830665e-04,-2.954824064e-04,-1.001993399e-04,9.793263798e-04,-6.643351768e-05,9.128928621e-04,8.921386504e-04,-6.320397259e-04,2.600989245e-04,8.401004405e-04,1.499037506e-04,9.900041911e-04,6.013461621e-04,-4.433664312e-04,1.579797309e-04,2.032506585e-04,-1.255008156e-04,7.774984293e-05,-7.808064086e-04,1.007423090e-03,2.266166812e-04
-8,1.938912153e-03,4.322618432e-04,2.371173996e-03,7.233771150e-04,3.442267012e-05,7.577997851e-04,1.045635735e-03,9.983945972e-05,1.145475195e-03,7.491397951e-04,-1.182611060e-05,7.373136845e-04,1.166374992e-03,-1.976675148e-04,9.687074775e-04,-3.094514813e-05,9.742821864e-05,6.648307051e-05,4.324685277e-04,-6.287517492e-05,3.695933528e-04,9.462694720e-04,-1.327316907e-04,8.135377813e-04,1.564514971e-04,-2.357341640e-04,-7.928266692e-05,5.091533988e-04,-2.138339929e-05,4.877699995e-04,1.184855573e-03,-2.611976789e-04,9.236578944e-04,1.136711351e-03,-5.262236695e-04,6.104876819e-04,1.596645438e-03,-4.696371427e-04,1.127008295e-03,2.355502052e-04,1.102887459e-04,3.458389511e-04,8.967201241e-04,2.949123039e-04,1.191632428e-03,6.614818223e-04,1.309717490e-04,7.924535714e-04,1.741858896e-03,-4.012083206e-04,1.340650575e-03,2.790834161e-04,4.729508793e-06,2.838129249e-04,4.223592594e-04,4.415049983e-05,4.665097592e-04,7.060904278e-04,9.329475885e-05,7.993851866e-04,4.032875095e-04,-1.207893839e-04,2.824981256e-04,5.738274420e-04,-5.642606579e-05,5.174013762e-04,1.197956760e-03,9.286615594e-05,1.290822916e-03,-3.415497079e-05,1.922073518e-05,-1.493423561e-05,3.189665523e-04,-1.460290444e-04,1.729375078e-04,5.398397073e-04,-3.107748902e-04,2.290648170e-04,8.459500235e-04,1.869348912e-04,1.032884915e-03,2.040261551e-03,-4.517991186e-04,1.588462432e-03,2.829578207e-04,-2.204657884e-04,6.249203228e-05,1.023392644e-04,-2.813260374e-04,-1.789867729e-04,8.475958013e-04,-7.294422570e-05,7.746515756e-04,9.572721823e-04,-7.945341122e-04,1.627380702e-04,7.225331767e-04,1.850010910e-04,9.075342677e-04,6.388913968e-04,-5.260106814e-04,1.128807154e-04,3.881191460e-05,-6.966601862e-05,-3.085410401e-05,-7.884301295e-04,1.000360493e-03,2.119303637e-04
-7.9,1.820003968e-03,3.795184556e-04,2.199522424e-03,6.529556016e-04,5.324548756e-06,6.582801504e-04,9.813624025e-04,6.998896998e-05,1.051351372e-03,7.340060254e-04,-2.767550530e-05,7.063305201e-04,1.085197351e-03,-2.101966865e-04,8.750006648e-04,-9.191864886e-05,9.179879802e-05,-1.198508367e-07,3.427182142e-04,-6.832237338e-05,2.743958408e-04,8.172308586e-04,-1.266437224e-04,6.905871362e-04,8.776212694e-05,-2.387394737e-04,-1.509773467e-04,4.089737040e-04,-1.664701348e-05,3.923266905e-04,1.074424714e-03,-2.745696908e-04,7.998550228e-04,1.115719268e-03,-6.297495271e-04,4.859697413e-04,1.540563977e-03,-4.959251473e-04,1.044638830e-03,1.834728245e-04,1.134154266e-04,2.968882511e-04,7.835469654e-04,3.420406522e-04,1.125587618e-03,5.643856075e-04,1.381019460e-04,7.024875535e-04,1.627347954e-03,-3.827545240e-04,1.244593430e-03,2.099615258e-04,-1.073414449e-06,2.088881113e-04,3.569397129e-04,4.944384083e-05,4.063835537e-04,6.158207098e-04,7.373446157e-05,6.895551714e-04,3.563964463e-04,-1.463863702e-04,2.100100761e-04,4.631042820e-04,-6.190671444e-05,4.011975676e-04,1.138406411e-03,4.950752901e-05,1.187913940e-03,-5.342296433e-05,3.175454856e-06,-5.024750947e-05,2.159704160e-04,-1.456532620e-04,7.031715402e-05,4.691440196e-04,-3.121164065e-04,1.570276131e-04,7.546822242e-04,2.043418165e-04,9.590240408e-04,1.919424112e-03,-4.675890155e-04,1.451835096e-03,1.960037737e-04,-2.345281447e-04,-3.852437108e-05,8.699226351e-06,-2.657432693e-04,-2.570440430e-04,7.166715462e-04,-8.027920578e-05,6.363923404e-04,1.015470060e-03,-9.476779985e-04,6.779206191e-05,6.082879766e-04,2.128165964e-04,8.211045730e-04,6.782814210e-04,-6.094419422e-04,6.883947881e-05,-1.242014534e-04,-1.202091989e-05,-1.362223733e-04,-7.897046831e-04,9.894482487e-04,1.997435656e-04
-7.8,1.697337744e-03,3.276307958e-04,2.024968540e-03,5.803671242e-04,-2.285851206e-05,5.575086121e-04,9.112602254e-04,4.113359230e-05,9.523938177e-04,7.144748200e-04,-4.268707753e-05,6.717877425e-04,9.967841956e-04,-2.209337973e-04,7.758503983e-04,-1.523767870e-04,8.767350742e-05,-6.470327957e-05,2.525593476e-04,-7.318721775e-05,1.793721298e-04,6.852147554e-04,-1.189312907e-04,5.662834647e-04,1.567120806e-05,-2.402944938e-04,-2.246232858e-04,3.076433422e-04,-1.178949113e-05,2.958538510e-04,9.568266229e-04,-2.863064469e-04,6.705201759e-04,1.083923802e-03,-7.187716623e-04,3.651521393e-04,1.480469060e-03,-5.200776297e-04,9.603914306e-04,1.326734130e-04,1.150232891e-04,2.476967021e-04,6.690715179e-04,3.868021967e-04,1.055873715e-03,4.673721904e-04,1.446899211e-04,6.120621115e-04,1.505014285e-03,-3.612323254e-04,1.143781960e-03,1.421685297e-04,-6.073894165e-06,1.360946355e-04,2.921233106e-04,5.588214802e-05,3.480054586e-04,5.238753714e-04,5.398314757e-05,5.778585190e-04,3.082037023e-04,-1.707116126e-04,1.374920897e-04,3.497457346e-04,-6.576006331e-05,2.839856713e-04,1.072296767e-03,7.166899411e-06,1.079463666e-03,-7.322463526e-05,-1.193459217e-05,-8.515922744e-05,1.145484950e-04,-1.467409229e-04,-3.219242796e-05,3.952245015e-04,-3.122435067e-04,8.298099480e-05,6.648801574e-04,2.175651166e-04,8.824452741e-04,1.793114339e-03,-4.829051306e-04,1.310209208e-03,1.091048469e-04,-2.465988022e-04,-1.374939552e-04,-8.530695331e-05,-2.486833665e-04,-3.339903199e-04,5.872650981e-04,-8.851246078e-05,4.987526373e-04,1.066061611e-03,-1.090456563e-03,-2.439495194e-05,4.979580107e-04,2.333299458e-04,7.312879566e-04,7.177993727e-04,-6.916873915e-04,2.611198113e-05,-2.842225541e-04,4.655952817e-05,-2.376630260e-04,-7.852745423e-04,9.748910575e-04,1.896165152e-04
-7.7,1.571658511e-03,2.767998399e-04,1.848458350e-03,5.060723812e-04,-5.003028453e-05,4.560420967e-04,8.357330258e-04,1.335691850e-05,8.490899443e-04,6.906516241e-04,-5.684381513e-05,6.338078089e-04,9.016227933e-04,-2.298786225e-04,6.717441708e-04,-2.119920908e-04,8.499656129e-05,-1.269955295e-04,1.624942108e-04,-7.748047047e-05,8.501374033e-05,5.507444052e-04,-1.096801382e-04,4.410642670e-04,-5.930570644e-05,-2.404367571e-04,-2.997424636e-04,2.056564513e-04,-6.843902231e-06,1.988125491e-04,8.326615511e-04,-2.964154225e-04,5.362461286e-04,1.041051902e-03,-7.926427788e-04,2.484091235e-04,1.416819089e-03,-5.421791649e-04,8.746399238e-04,8.315675284e-05,1.153112257e-04,1.984679785e-04,5.546447213e-04,4.284424175e-04,9.830871388e-04,3.709952143e-04,1.506294340e-04,5.216246483e-04,1.375862008e-03,-3.369761869e-04,1.038885821e-03,7.604738357e-05,-1.023392865e-05,6.581345491e-05,2.281348786e-04,6.357338930e-05,2.917082679e-04,4.305038796e-04,3.436970674e-05,4.648735863e-04,2.589012989e-04,-1.935661290e-04,6.533516988e-05,2.344021964e-04,-6.814028709e-05,1.662619094e-04,1.000009123e-03,-3.402005690e-05,9.659890665e-04,-9.344662825e-05,-2.606429271e-05,-1.195109210e-04,1.506767493e-05,-1.492916296e-04,-1.342239546e-04,3.184446741e-04,-3.112260078e-04,7.218666262e-06,5.769697657e-04,2.264679240e-04,8.034376897e-04,1.661553760e-03,-4.972487007e-04,1.164305059e-03,2.252061789e-05,-2.565907782e-04,-2.340701603e-04,-1.793786871e-04,-2.300918524e-04,-4.094705395e-04,4.600336829e-04,-9.769337571e-05,3.623403072e-04,1.108626483e-03,-1.222153570e-03,-1.135270872e-04,3.920223787e-04,2.466566877e-04,6.386790664e-04,7.558125427e-04,-7.708221620e-04,-1.500961930e-05,-4.396300457e-04,1.050793043e-04,-3.345507414e-04,-7.758449646e-04,9.569305325e-04,1.810855679e-04
-7.6,1.443699757e-03,2.272165321e-04,1.670916290e-03,4.305111508e-04,-7.610371417e-05,3.544074366e-04,7.552036657e-04,-1.326714220e-05,7.419365235e-04,6.626505099e-04,-7.013258060e-05,5.925179293e-04,8.002394378e-04,-2.370411730e-04,5.631982648e-04,-2.704574270e-04,8.368412313e-05,-1.867733039e-04,7.300491223e-05,-8.121435751e-05,-8.209445272e-06,4.143555768e-04,-9.899984406e-05,3.153557327e-04,-1.366486959e-04,-2.392103572e-04,-3.758590530e-04,1.034927668e-04,-1.843006141e-06,1.016497606e-04,7.025634948e-04,-3.049107679e-04,3.976527269e-04,9.869801607e-04,-8.509954095e-04,1.359847512e-04,1.350120825e-03,-5.623157972e-04,7.878050276e-04,3.487362386e-05,1.145153095e-04,1.493889333e-04,4.415639293e-04,4.662383360e-04,9.078022652e-04,2.757799619e-04,1.558227249e-04,4.316026868e-04,1.240965315e-03,-3.103419402e-04,9.306233749e-04,1.190629823e-05,-1.351073439e-05,-1.604436165e-06,1.652044926e-04,7.258368402e-05,2.377881766e-04,3.359313885e-04,1.520211295e-05,3.511335014e-04,2.086638652e-04,-2.147403437e-04,-6.076478513e-06,1.177232719e-04,-6.924501279e-05,4.847825906e-05,9.219460886e-04,-7.392636003e-05,8.480197286e-04,-1.139555908e-04,-3.917045883e-05,-1.531260496e-04,-8.215250139e-05,-1.532773970e-04,-2.354298984e-04,2.391695902e-04,-3.091444157e-04,-6.997482551e-05,4.913270776e-04,2.309649405e-04,7.222920181e-04,1.524946880e-03,-5.101223079e-04,1.014824572e-03,-6.350951681e-05,-2.644347470e-04,-3.279442638e-04,-2.732381690e-04,-2.099188706e-04,-4.831570396e-04,3.355736058e-04,-1.078454632e-04,2.277281426e-04,1.142988714e-03,-1.342339132e-03,-1.993504180e-04,2.908566061e-04,2.530322208e-04,5.438888270e-04,7.907886804e-04,-8.450017339e-04,-5.421305352e-05,-5.887779488e-04,1.624412666e-04,-4.263366823e-04,-7.621615635e-04,9.358440256e-04,1.736824621e-04
-7.5,1.314177014e-03,1.790605164e-04,1.493237530e-03,3.540995368e-04,-1.010011975e-04,2.530983393e-04,6.701131671e-04,-3.867407143e-05,6.314390956e-04,6.305935467e-04,-8.254399126e-05,5.480495554e-04,6.931961928e-04,-2.424417500e-04,4.507544428e-04,-3.274890342e-04,8.362895726e-05,-2.438600769e-04,-1.545023627e-05,-8.440289835e-05,-9.985313462e-05,2.765934524e-04,-8.702097036e-05,1.895724820e-04,-2.158361682e-04,-2.366650463e-04,-4.525012144e-04,1.614866724e-06,3.180896445e-06,4.795763169e-06,5.671965584e-04,-3.118127486e-04,2.553838098e-04,9.217518496e-04,-8.937635273e-04,2.798832229e-05,1.280908945e-03,-5.805644022e-04,7.003445427e-04,-1.226701130e-05,1.128980779e-04,1.006310666e-04,3.310406110e-04,4.995237607e-04,8.305643717e-04,1.822205089e-04,1.601809899e-04,3.424014987e-04,1.101447758e-03,-2.816968708e-04,8.197508877e-04,-4.998215566e-05,-1.585934605e-05,-6.584150171e-05,1.035660464e-04,8.293402213e-05,1.865000685e-04,2.403611219e-04,-3.238911287e-06,2.371222106e-04,1.576524811e-04,-2.340216815e-04,-7.636920036e-05,3.532466712e-07,-6.930917245e-05,-6.895592578e-05,8.385301254e-04,-1.124338220e-04,7.260963034e-04,-1.345980903e-04,-5.121222199e-05,-1.858103123e-04,-1.768378770e-04,-1.586437654e-04,-3.354816424e-04,1.577650137e-04,-3.060883671e-04,-1.483233534e-04,4.082773390e-04,2.310234998e-04,6.393008388e-04,1.383483195e-03,-5.210412069e-04,8.624419876e-04,-1.487664548e-04,-2.700768833e-04,-4.188433381e-04,-3.666231795e-04,-1.881264074e-04,-5.547495868e-04,2.144159708e-04,-1.189647530e-04,9.545121781e-05,1.169208083e-03,-1.450860612e-03,-2.816525292e-04,1.947458268e-04,2.527934341e-04,4.475392608e-04,8.213043732e-04,-9.124923755e-04,-9.118800229e-05,-7.300324292e-04,2.174777619e-04,-5.125546673e-04,-7.449841760e-04,9.119352163e-04,1.669510403e-04
-7.4,1.183782338e-03,1.324987869e-04,1.316281125e-03,2.772282263e-04,-1.246547627e-04,1.525734636e-04,5.809209563e-04,-6.280848806e-05,5.181124682e-04,5.946121498e-04,-9.407263890e-05,5.005395109e-04,5.810886691e-04,-2.461109394e-04,3.349777297e-04,-3.828271571e-04,8.470538189e-05,-2.981217752e-04,-1.024392521e-04,-8.706194399e-05,-1.895011960e-04,1.380114305e-04,-7.389302430e-05,6.411840620e-05,-2.963467708e-04,-2.328555107e-04,-5.292022815e-04,-9.953332969e-05,8.196203484e-06,-9.133712621e-05,4.272525187e-04,-3.171470370e-04,1.101054817e-04,8.455873953e-04,-9.211902499e-04,-7.560285467e-05,1.209728214e-03,-5.969869651e-04,6.127412493e-04,-5.838350331e-05,1.107365977e-04,5.235309441e-05,2.241786405e-04,5.277091675e-04,7.518878080e-04,9.077814849e-05,1.636245772e-04,2.544027257e-04,9.584605190e-04,-2.514077003e-04,7.070528187e-04,-1.093819738e-04,-1.723447103e-05,-1.266164448e-04,4.345590755e-05,9.459929204e-05,1.380551996e-04,1.439805795e-04,-2.070731205e-05,1.232732675e-04,1.060195779e-04,-2.512019291e-04,-1.451823512e-04,-1.170733635e-04,-6.859500494e-05,-1.856683684e-04,7.502029556e-04,-1.494331023e-04,6.007698534e-04,-1.552006454e-04,-6.215168590e-05,-2.173523313e-04,-2.687574984e-04,-1.653099517e-04,-4.340674501e-04,7.459848130e-05,-3.021550926e-04,-2.275566113e-04,3.280940420e-04,2.266657639e-04,5.547598059e-04,1.237340606e-03,-5.295415216e-04,7.077990845e-04,-2.330487563e-04,-2.734770500e-04,-5.065258063e-04,-4.592816479e-04,-1.646932314e-04,-6.239748793e-04,9.702635828e-05,-1.310179381e-04,-3.399157978e-05,1.187567954e-03,-1.547837469e-03,-3.602695153e-04,1.038992810e-04,2.463598545e-04,3.502591356e-04,8.460509303e-04,-9.717027616e-04,-1.256518313e-04,-8.618114559e-04,2.689897307e-04,-5.928217252e-04,-7.250563287e-04,8.855165199e-04,1.604601912e-04
-7.3,1.053179959e-03,8.768422297e-05,1.140864182e-03,2.002619932e-04,-1.470061516e-04,5.325584165e-05,4.881056260e-04,-8.562396852e-05,4.024816575e-04,5.548500756e-04,-1.047175482e-04,4.501325274e-04,4.645445436e-04,-2.480895203e-04,2.164550233e-04,-4.362354519e-04,8.677436955e-05,-3.494610823e-04,-1.875581620e-04,-8.920887348e-05,-2.767670354e-04,-8.284503369e-07,-5.978294942e-05,-6.061139976e-05,-3.776607320e-04,-2.278407454e-04,-6.055014774e-04,-1.995270177e-04,1.317228461e-05,-1.863547331e-04,2.834491523e-04,-3.209438529e-04,-3.749470063e-05,7.588871993e-04,-9.338182367e-04,-1.749310374e-04,1.137123179e-03,-6.116337259e-04,5.254894534e-04,-1.036068353e-04,1.083110726e-04,4.704237260e-06,1.219590303e-04,5.502983242e-04,6.722573545e-04,1.879953335e-06,1.660836748e-04,1.679636281e-04,8.131608320e-04,-2.198285383e-04,5.933322937e-04,-1.660932464e-04,-1.759219583e-05,-1.836854422e-04,-1.488871548e-05,1.075094210e-04,9.262070553e-05,4.697046105e-05,-3.699940153e-05,9.971059521e-06,5.391392707e-05,-2.660839380e-04,-2.121700109e-04,-2.339365919e-04,-6.737880769e-05,-3.013153996e-04,6.574253632e-04,-1.848237236e-04,4.726016395e-04,-1.755705129e-04,-7.195476975e-05,-2.475252827e-04,-3.577209937e-04,-1.731690441e-04,-5.308900377e-04,-9.958489288e-06,-2.974477317e-04,-3.074062210e-04,2.509978596e-04,2.179718409e-04,4.689697005e-04,1.086691194e-03,-5.351862900e-04,5.515049043e-04,-3.161680844e-04,-2.746073547e-04,-5.907754390e-04,-5.509690202e-04,-1.396172620e-04,-6.905862822e-04,-1.619131889e-05,-1.439417778e-04,-1.601330967e-04,1.198553531e-03,-1.633649663e-03,-4.350961313e-04,1.846330894e-05,2.342165864e-04,2.526798954e-04,8.638410962e-04,-1.021214449e-03,-1.573733523e-04,-9.826241185e-04,3.157900391e-04,-6.668340794e-04,-7.030756937e-04,8.568885916e-04,1.538128979e-04
-7.2,9.230025702e-04,4.475426325e-05,9.677568335e-04,1.235399793e-04,-1.680066243e-04,-4.446664500e-05,3.921648116e-04,-1.070829009e-04,2.850819107e-04,5.114665593e-04,-1.144826158e-04,3.969839435e-04,3.442216150e-04,-2.484282214e-04,9.579339359e-05,-4.875006405e-04,8.968869125e-05,-3.978119493e-04,-2.704323889e-04,-9.086214766e-05,-3.612945366e-04,-1.393554372e-04,-4.487336182e-05,-1.842287990e-04,-4.592611247e-04,-2.216834163e-04,-6.809445410e-04,-2.979606929e-04,1.807972478e-05,-2.798809681e-04,1.365283145e-04,-3.232370803e-04,-1.867087658e-04,6.622285322e-04,-9.324622826e-04,-2.702337504e-04,1.063633404e-03,-6.245512000e-04,4.390822036e-04,-1.480672996e-04,1.058946283e-04,-4.217267139e-05,2.522554954e-05,5.669033230e-04,5.921288726e-04,-8.408396943e-05,1.674998783e-04,8.341590888e-05,6.666919099e-04,-1.872919914e-04,4.793999185e-04,-2.199497825e-04,-1.689196541e-05,-2.368417479e-04,-7.123304309e-05,1.215522969e-04,5.031925385e-05,-5.048637591e-05,-5.195989115e-05,-1.024462671e-04,1.484846777e-06,-2.784878506e-04,-2.770030038e-04,-3.496361233e-04,-6.593602046e-05,-4.155721437e-04,5.606766253e-04,-2.185140057e-04,3.421626196e-04,-1.954980481e-04,-8.059209782e-05,-2.760901459e-04,-4.435759915e-04,-1.820885650e-04,-6.256645566e-04,-9.552872907e-05,-2.920731734e-04,-3.876019025e-04,1.771545366e-04,2.050837557e-04,3.822382923e-04,9.317087198e-04,-5.375707739e-04,3.941379459e-04,-3.979443860e-04,-2.734511769e-04,-6.713955629e-04,-6.414476420e-04,-1.129158078e-04,-7.543634497e-04,-1.248884359e-04,-1.576450647e-04,-2.825335006e-04,1.202816067e-03,-1.708908265e-03,-5.060921979e-04,-6.147002429e-05,2.169007874e-04,1.554307631e-04,8.736158652e-04,-1.059805203e-03,-1.861893379e-04,-1.091109953e-03,3.567482279e-04,-7.343617247e-04,-6.796724616e-04,8.263244739e-04,1.466520123e-04
-7.1,7.938475585e-04,3.830013001e-06,7.976775715e-04,4.737593004e-05,-1.876163299e-04,-1.402403998e-04,2.936131727e-04,-1.271563431e-04,1.664568295e-04,4.646380329e-04,-1.233768117e-04,3.412612212e-04,2.208042802e-04,-2.471872984e-04,-2.638301821e-05,-5.364328109e-04,9.329729835e-05,-4.431355126e-04,-3.507183872e-04,-9.204090344e-05,-4.427592907e-04,-2.769922428e-04,-2.935989898e-05,-3.063521417e-04,-5.406354144e-04,-2.144490988e-04,-7.550845132e-04,-3.944487473e-04,2.289050770e-05,-3.715582396e-04,-1.274703283e-05,-3.240634723e-04,-3.368105052e-04,5.563561354e-04,-9.181644613e-04,-3.618083260e-04,9.897884358e-04,-6.357866999e-04,3.540017359e-04,-1.918825857e-04,1.037438511e-04,-8.813873465e-05,-6.532978227e-05,5.772566494e-04,5.119268672e-04,-1.667648051e-04,1.678281611e-04,1.063356045e-06,5.201643862e-04,-1.541043313e-04,3.660600549e-04,-2.708156275e-04,-1.509895805e-05,-2.859145856e-04,-1.253508817e-04,1.365787904e-04,1.122790866e-05,-1.481983091e-04,-6.548448005e-05,-2.136827892e-04,-5.111488052e-05,-2.882568891e-04,-3.393717696e-04,-4.635959292e-04,-6.452664577e-05,-5.281225750e-04,4.604529921e-04,-2.504209130e-04,2.100320791e-04,-2.147608395e-04,-8.803977820e-05,-3.028006177e-04,-5.262059615e-04,-1.919113035e-04,-7.181172650e-04,-1.817297195e-04,-2.861392369e-04,-4.678689564e-04,1.066714563e-04,1.882087663e-04,2.948802227e-04,7.725765966e-04,-5.363281577e-04,2.362484389e-04,-4.782020031e-04,-2.700031306e-04,-7.482051337e-04,-7.304861023e-04,-8.462501117e-05,-8.151111134e-04,-2.287655340e-04,-1.720126126e-04,-4.007781466e-04,1.201125584e-03,-1.774408927e-03,-5.732833426e-04,-1.358595047e-04,1.949919901e-04,5.913248537e-05,8.744516738e-04,-1.086464978e-03,-2.120133041e-04,-1.186079500e-03,3.908356705e-04,-7.952438294e-04,-6.554003137e-04,7.940629656e-04,1.386626519e-04
-7,6.662727958e-04,-3.498423155e-05,6.312885643e-04,-2.794209755e-05,-2.058033600e-04,-2.337454575e-04,1.929785079e-04,-1.458238851e-04,4.715462284e-05,4.145577968e-04,-1.314141157e-04,2.831436811e-04,9.499817312e-05,-2.444359570e-04,-1.494377839e-04,-5.828656902e-04,9.744817809e-05,-4.854175121e-04,-4.281056913e-04,-9.276463817e-05,-5.208703295e-04,-4.131598151e-04,-1.344761642e-05,-4.266074315e-04,-6.212773275e-04,-2.062053209e-04,-8.274826485e-04,-4.886266274e-04,2.757816734e-05,-4.610484600e-04,-1.635970013e-04,-3.234619287e-04,-4.870589300e-04,4.421639112e-04,-8.921350232e-04,-4.499711120e-04,9.160970340e-04,-6.453832422e-04,2.707137918e-04,-2.351467697e-04,1.020898949e-04,-1.330568748e-04,-1.491782387e-04,5.812180913e-04,4.320398526e-04,-2.458597788e-04,1.670382025e-04,-7.882157630e-05,3.746394687e-04,-1.205435846e-04,2.540958841e-04,-3.185820503e-04,-1.218667006e-05,-3.307687204e-04,-1.770332127e-04,1.524099771e-04,-2.462323562e-05,-2.459613458e-04,-7.751879523e-05,-3.234801410e-04,-1.037276316e-04,-2.952622929e-04,-3.989899245e-04,-5.752673502e-04,-6.338307680e-05,-6.386504270e-04,3.572651037e-04,-2.804699168e-04,7.679518693e-05,-2.331289642e-04,-9.428000626e-05,-3.274089705e-04,-6.055283723e-04,-2.024563545e-04,-8.079847268e-04,-2.681759656e-04,-2.797514814e-04,-5.479274470e-04,3.959425946e-05,1.676191399e-04,2.072133994e-04,6.094965811e-04,-5.311368497e-04,7.835973139e-05,-5.567665450e-04,-2.642706441e-04,-8.210371891e-04,-8.178569420e-04,-5.480000067e-05,-8.726569427e-04,-3.275687177e-04,-1.869094094e-04,-5.144781271e-04,1.194318503e-03,-1.831078598e-03,-6.367600948e-04,-2.047157892e-04,1.691058021e-04,-3.560998710e-05,8.655704691e-04,-1.100410201e-03,-2.348397318e-04,-1.266553597e-03,4.171682643e-04,-8.493853331e-04,-6.307391349e-04,7.603101306e-04,1.295709956e-04
-6.9,5.407922506e-04,-7.160136854e-05,4.691908821e-04,-1.021524136e-04,-2.225427808e-04,-3.246951944e-04,9.079690658e-05,-1.630734814e-04,-7.227657479e-05,3.614341810e-04,-1.386132997e-04,2.228208813e-04,-3.247634262e-05,-2.402516606e-04,-2.727280032e-04,-6.266561283e-04,1.019899683e-04,-5.246661600e-04,-5.023189900e-04,-9.305300151e-05,-5.953719915e-04,-5.472834318e-04,2.653158855e-06,-5.446302730e-04,-7.006887867e-04,-1.970204626e-04,-8.977092493e-04,-5.801522175e-04,3.211796230e-05,-5.480342552e-04,-3.152296676e-04,-3.214727745e-04,-6.367024420e-04,3.206687362e-04,-8.556897159e-04,-5.350209797e-04,8.430284578e-04,-6.533644770e-04,1.896639809e-04,-2.779202237e-04,1.011307802e-04,-1.767894435e-04,-2.259589793e-04,5.787753672e-04,3.528163879e-04,-3.211158302e-04,1.651145917e-04,-1.560012385e-04,2.311160491e-04,-8.686024940e-05,1.442557997e-04,-3.631664595e-04,-8.139026554e-06,-3.713054861e-04,-2.260968159e-04,1.688452275e-04,-5.725158832e-05,-3.435572048e-04,-8.805524521e-05,-4.316124500e-04,-1.561909906e-04,-2.994071535e-04,-4.555981441e-04,-6.841301366e-04,-6.270183880e-05,-7.468319754e-04,2.516347828e-04,-3.085949939e-04,-5.696021110e-05,-2.503702915e-04,-9.930155390e-05,-3.496718454e-04,-6.814927810e-04,-2.135201385e-04,-8.950129195e-04,-3.544822120e-04,-2.730102283e-04,-6.274924403e-04,-2.409420547e-05,1.436471685e-04,1.195529630e-04,4.427003877e-04,-5.217307596e-04,-7.903037187e-05,-6.334615827e-04,-2.562774570e-04,-8.897390396e-04,-9.033326333e-04,-2.351658080e-05,-9.268492141e-04,-4.210888428e-04,-2.021836883e-04,-6.232725310e-04,1.183245605e-03,-1.879923423e-03,-6.966778179e-04,-2.681053645e-04,1.398904757e-04,-1.282148887e-04,8.463517292e-04,-1.101098378e-03,-2.547466491e-04,-1.331795743e-03,4.350412043e-04,-8.967545388e-04,-6.061040802e-04,7.252451608e-04,1.191410806e-04
-6.8,4.178720318e-04,-1.059520193e-04,3.119200125e-04,-1.750202066e-04,-2.378158265e-04,-4.128360331e-04,-1.239172304e-05,-1.789011781e-04,-1.912929011e-04,3.054885016e-04,-1.449976491e-04,1.604908525e-04,-1.608905777e-04,-2.347193293e-04,-3.956099071e-04,-6.676822858e-04,1.067730047e-04,-5.609092811e-04,-5.731194506e-04,-9.292572881e-05,-6.660451794e-04,-6.787983527e-04,1.873107014e-05,-6.600672826e-04,-7.783815482e-04,-1.869627336e-04,-9.653442819e-04,-6.687068452e-04,3.648707966e-05,-6.322197656e-04,-4.668457550e-04,-3.181370794e-04,-7.849828344e-04,1.929819294e-04,-8.101970552e-04,-6.172151259e-04,7.709896613e-04,-6.597150823e-04,1.112745790e-04,-3.202210174e-04,1.010258207e-04,-2.191951967e-04,-2.954742041e-04,5.700385309e-04,2.745643267e-04,-3.923313370e-04,1.620566589e-04,-2.302746781e-04,9.052420933e-05,-5.328178513e-05,3.724242420e-05,-4.045129688e-04,-2.951531098e-06,-4.074644999e-04,-2.723902813e-04,1.856691882e-04,-8.672109305e-05,-4.407508850e-04,-9.712943648e-05,-5.378803215e-04,-2.083384668e-04,-3.006295329e-04,-5.089679997e-04,-7.896917738e-04,-6.263926404e-05,-8.523310378e-04,1.440919799e-04,-3.347387737e-04,-1.906467938e-04,-2.662550007e-04,-1.031002383e-04,-3.693552390e-04,-7.540779621e-04,-2.248774228e-04,-9.789553849e-04,-4.402658879e-04,-2.660080933e-04,-7.062739812e-04,-8.447063690e-05,1.166770160e-04,3.220637915e-05,2.724658720e-04,-5.079123032e-04,-2.354464313e-04,-7.081047617e-04,-2.460682770e-04,-9.541730387e-04,-9.866804729e-04,9.125403005e-06,-9.775550699e-04,-5.091618029e-04,-2.176691661e-04,-7.268309690e-04,1.168726121e-03,-1.921979401e-03,-7.532532799e-04,-3.261546589e-04,1.080249748e-04,-2.181296841e-04,8.163416465e-04,-1.088239163e-03,-2.718975161e-04,-1.381333388e-03,4.439523953e-04,-9.373809929e-04,-5.818552140e-04,6.890277323e-04,1.071725184e-04
-6.7,2.979274561e-04,-1.379850955e-04,1.599423607e-04,-2.463372571e-04,-2.516093099e-04,-4.979465670e-04,-1.160466296e-04,-1.933106824e-04,-3.093573120e-04,2.469540695e-04,-1.505946029e-04,9.635946655e-05,-2.895127209e-04,-2.279304271e-04,-5.174431480e-04,-7.058401657e-04,1.116500693e-04,-5.941900964e-04,-6.403045860e-04,-9.240274862e-05,-7.327073346e-04,-8.071541400e-04,3.457817058e-05,-7.725759694e-04,-8.538783892e-04,-1.760994856e-04,-1.029977875e-03,-7.539954143e-04,4.066483780e-05,-7.133305765e-04,-6.176423622e-04,-3.134961470e-04,-9.311385093e-04,6.028221112e-05,-7.570391947e-04,-6.967569836e-04,7.003069490e-04,-6.643647945e-04,3.594215445e-05,-3.620185442e-04,1.018925722e-04,-2.601259721e-04,-3.576754558e-04,5.552295041e-04,1.975540483e-04,-4.593555154e-04,1.578790313e-04,-3.014764841e-04,-4.627495741e-05,-2.002106299e-05,-6.629602040e-05,-4.425922909e-04,3.368068918e-06,-4.392242220e-04,-3.157961615e-04,2.026567242e-04,-1.131394373e-04,-5.372862351e-04,-1.048163842e-04,-6.421026194e-04,-2.599999600e-04,-2.989053484e-04,-5.589053084e-04,-8.914856515e-04,-6.331013613e-05,-9.547957877e-04,3.517242065e-05,-3.588527022e-04,-3.236802815e-04,-2.805592113e-04,-1.056793818e-04,-3.862385931e-04,-8.232868413e-04,-2.362832514e-04,-1.059570093e-03,-5.251477961e-04,-2.588278880e-04,-7.839756841e-04,-1.416632358e-04,8.713553216e-05,-5.452770369e-05,9.913661570e-05,-4.895654669e-04,-3.904288512e-04,-7.805041562e-04,-2.337129183e-04,-1.014217075e-03,-1.067657054e-03,4.299755764e-05,-1.024659497e-03,-5.916678575e-04,-2.331874390e-04,-8.248552965e-04,1.151513340e-03,-1.958265165e-03,-8.067518256e-04,-3.790501910e-04,7.421548744e-05,-3.048347036e-04,7.752573654e-04,-1.061797785e-03,-2.865404198e-04,-1.414967071e-03,4.436152017e-04,-9.713518697e-04,-5.583048545e-04,6.518055357e-04,9.350068116e-05
-6.6,1.813214065e-04,-1.676681756e-04,1.365323094e-05,-3.159205193e-04,-2.639153093e-04,-5.798358285e-04,-2.196275694e-04,-2.063128152e-04,-4.259403846e-04,1.860766392e-04,-1.554352785e-04,3.064136071e-05,-4.176116630e-04,-2.199819537e-04,-6.375936167e-04,-7.410389086e-04,1.164771908e-04,-6.245617178e-04,-7.037065193e-04,-9.150449407e-05,-7.952110134e-04,-9.318179441e-04,4.999507951e-05,-8.818228646e-04,-9.267141277e-04,-1.644969121e-04,-1.091211040e-03,-8.357457239e-04,4.463289702e-05,-7.911128269e-04,-7.668158291e-04,-3.075912307e-04,-1.074407060e-03,-7.621198426e-05,-6.975770230e-04,-7.737890073e-04,6.312190520e-04,-6.671817027e-04,-3.596265074e-05,-4.032303114e-04,1.038058385e-04,-2.994244729e-04,-4.126441497e-04,5.346687895e-04,1.220246398e-04,-5.220856839e-04,1.526132275e-04,-3.694724564e-04,-1.784864289e-04,1.271402650e-05,-1.657724024e-04,-4.773991516e-04,1.079887653e-05,-4.666002750e-04,-3.562295767e-04,2.195760712e-04,-1.366535054e-04,-6.328795941e-04,-1.112260808e-04,-7.441056749e-04,-3.110018270e-04,-2.942509428e-04,-6.052527698e-04,-9.890683891e-04,-6.478893114e-05,-1.053857320e-03,-7.458413157e-05,-3.808970754e-04,-4.554812070e-04,-2.930683676e-04,-1.070502164e-04,-4.001185839e-04,-8.891389221e-04,-2.474768458e-04,-1.136615768e-03,-6.087511765e-04,-2.515407458e-04,-8.602919223e-04,-1.958404051e-04,5.548295562e-05,-1.403574495e-04,-7.685877102e-05,-4.666659034e-04,-5.435246744e-04,-8.504560462e-04,-2.193086007e-04,-1.069764647e-03,-1.146003062e-03,7.793824925e-05,-1.068064812e-03,-6.685291993e-04,-2.485509991e-04,-9.170801984e-04,1.132270963e-03,-1.989736491e-03,-8.574655277e-04,-4.270325549e-04,3.918802850e-05,-3.878445264e-04,7.229885954e-04,-1.021989258e-03,-2.990006630e-04,-1.432766933e-03,4.339610974e-04,-9.988058361e-04,-5.357237188e-04,6.137220380e-04,7.799831916e-05
-6.5,6.836387009e-05,-1.949876454e-04,-1.266237753e-04,-3.836097103e-04,-2.747312331e-04,-6.583409434e-04,-3.225955151e-04,-2.179249271e-04,-5.405204422e-04,1.231155866e-04,-1.595539008e-04,-3.643831416e-05,-5.444603134e-04,-2.109753693e-04,-7.554356827e-04,-7.731962987e-04,1.211149690e-04,-6.520813297e-04,-7.631892296e-04,-9.025235918e-05,-8.534415887e-04,-1.052277178e-03,6.479675406e-05,-9.874804239e-04,-9.964370363e-04,-1.522199362e-04,-1.148656972e-03,-9.137075987e-04,4.837551640e-05,-8.653320823e-04,-9.135646519e-04,-3.004633862e-04,-1.214028038e-03,-2.152757022e-04,-6.331094281e-04,-8.483851303e-04,5.638823606e-04,-6.679753121e-04,-1.040929515e-04,-4.437229686e-04,1.067980564e-04,-3.369249122e-04,-4.605698411e-04,5.087608757e-04,4.819103462e-05,-5.804634929e-04,1.463099358e-04,-4.341535571e-04,-3.053808615e-04,4.471458336e-05,-2.606662781e-04,-5.089477952e-04,1.930548166e-05,-4.896423135e-04,-3.936345599e-04,2.361907094e-04,-1.574438505e-04,-7.272134400e-04,-1.164981842e-04,-8.437116242e-04,-3.611672165e-04,-2.867249752e-04,-6.478921917e-04,-1.082016651e-03,-6.711369450e-05,-1.149130345e-03,-1.846354897e-04,-4.008409053e-04,-5.854763950e-04,-3.035812288e-04,-1.072322479e-04,-4.108134767e-04,-9.516613921e-04,-2.581875603e-04,-1.209848952e-03,-6.907000898e-04,-2.442047067e-04,-9.349047964e-04,-2.471989256e-04,2.220367204e-05,-2.249952535e-04,-2.549921399e-04,-4.392863980e-04,-6.942785379e-04,-9.177441081e-04,-2.029805864e-04,-1.120724695e-03,-1.221438871e-03,1.137481863e-04,-1.107690684e-03,-7.397067180e-04,-2.635661304e-04,-1.003272848e-03,1.111553619e-03,-2.017243541e-03,-9.056899222e-04,-4.703872062e-04,3.678240802e-06,-4.667089654e-04,6.595971682e-04,-9.692633401e-04,-3.096661719e-04,-1.435056724e-03,4.151307384e-04,-1.019925986e-03,-5.143482157e-04,5.749244079e-04,6.057619219e-05
-6.4,-4.068768186e-05,-2.199486816e-04,-2.606363635e-04,-4.492643454e-04,-2.840603060e-04,-7.333246515e-04,-4.244139515e-04,-2.281702975e-04,-6.525842490e-04,5.834473363e-05,-1.629871759e-04,-1.046424423e-04,-6.693395446e-04,-2.010154508e-04,-8.703549955e-04,-8.022357544e-04,1.254301137e-04,-6.768056407e-04,-8.186457194e-04,-8.866908335e-05,-9.073148027e-04,-1.168041495e-03,7.881778206e-05,-1.089223713e-03,-1.062611048e-03,-1.393320648e-04,-1.201943112e-03,-9.876525056e-04,5.187984554e-05,-9.357726601e-04,-1.057093409e-03,-2.921533607e-04,-1.349246769e-03,-3.557149494e-04,-5.648291574e-04,-9.205441068e-04,4.983833573e-04,-6.665068014e-04,-1.681234441e-04,-4.833177738e-04,1.108608584e-04,-3.724569154e-04,-5.017291482e-04,4.779790369e-04,-2.375011123e-05,-6.344713607e-04,1.390415402e-04,-4.954298205e-04,-4.263013392e-04,7.577143661e-05,-3.505299025e-04,-5.372672501e-04,2.883606374e-05,-5.084311863e-04,-4.279798512e-04,2.522605128e-04,-1.757193384e-04,-8.199335006e-04,-1.207953122e-04,-9.407288128e-04,-4.103173677e-04,-2.764294719e-04,-6.867468396e-04,-1.169924291e-03,-7.029156465e-05,-1.240215856e-03,-2.944389120e-04,-4.186616750e-04,-7.131005870e-04,-3.119149162e-04,-1.062536546e-04,-4.181685707e-04,-1.010880461e-03,-2.681420874e-04,-1.279022549e-03,-7.706181392e-04,-2.368641005e-04,-1.007482240e-03,-2.959536100e-04,-1.220295440e-05,-3.081565644e-04,-4.346292361e-04,-4.075972840e-04,-8.422265201e-04,-9.821388198e-04,-1.848823578e-04,-1.167021178e-03,-1.293661125e-03,1.501861811e-04,-1.143474943e-03,-8.051976835e-04,-2.780346443e-04,-1.083232328e-03,1.089786878e-03,-2.041494086e-03,-9.517072074e-04,-5.094366571e-04,-3.157965175e-05,-5.410163088e-04,5.853113716e-04,-9.042816254e-04,-3.189702538e-04,-1.422389564e-03,3.874550370e-04,-1.034934527e-03,-4.943884663e-04,5.355694366e-04,4.118097034e-05
-6.3,-1.456274904e-04,-2.425750080e-04,-3.882024984e-04,-5.127606560e-04,-2.919123598e-04,-8.046730159e-04,-5.245512658e-04,-2.370774603e-04,-7.616287261e-04,-7.947743630e-06,-1.657736199e-04,-1.737213636e-04,-7.915432620e-04,-1.902090479e-04,-9.817523099e-04,-8.280850372e-04,1.292962623e-04,-6.987887749e-04,-8.699957202e-04,-8.677886190e-05,-9.567745821e-04,-1.278644064e-03,9.191596421e-05,-1.186728100e-03,-1.124818700e-03,-1.258951872e-04,-1.250713887e-03,-1.057373845e-03,5.513617653e-05,-1.002237669e-03,-1.196617969e-03,-2.827015405e-04,-1.479319509e-03,-4.963975262e-04,-4.937899454e-04,-9.901874716e-04,4.347518835e-04,-6.625036091e-04,-2.277517256e-04,-5.217989654e-04,1.159479138e-04,-4.058510516e-04,-5.364673084e-04,4.428498443e-04,-9.361746402e-05,-6.841291879e-04,1.309042681e-04,-5.532249198e-04,-5.406756931e-04,1.056810358e-04,-4.349946572e-04,-5.623974128e-04,3.931992375e-05,-5.230774891e-04,-4.592555254e-04,2.675430626e-04,-1.917124628e-04,-9.106518319e-04,-1.242945420e-04,-1.034946374e-03,-4.582739885e-04,-2.635098791e-04,-7.217838676e-04,-1.252400953e-03,-7.430414417e-05,-1.326705097e-03,-4.034532207e-04,-4.343450224e-04,-8.377982431e-04,-3.179108258e-04,-1.041517652e-04,-4.220625910e-04,-1.066813865e-03,-2.770718737e-04,-1.343885739e-03,-8.481281221e-04,-2.295496783e-04,-1.077677800e-03,-3.423286158e-04,-4.723197061e-05,-3.895605864e-04,-6.150312027e-04,-3.718624340e-04,-9.868936367e-04,-1.043396211e-03,-1.651960605e-04,-1.208592271e-03,-1.362340989e-03,1.869660336e-04,-1.175374956e-03,-8.650351324e-04,-2.917546896e-04,-1.156789822e-03,1.067248106e-03,-2.063026022e-03,-9.957779158e-04,-5.445338640e-04,-6.586590160e-05,-6.103997656e-04,5.005152566e-04,-8.278906126e-04,-3.273753560e-04,-1.395523461e-03,3.514330676e-04,-1.044090393e-03,-4.760342426e-04,4.958252277e-04,1.979098510e-05
-6.2,-2.463005780e-04,-2.629082083e-04,-5.092087863e-04,-5.739886652e-04,-2.983046721e-04,-8.722933373e-04,-6.224837835e-04,-2.446794093e-04,-8.671631928e-04,-7.546009143e-05,-1.679528579e-04,-2.434129493e-04,-9.103841844e-04,-1.786637292e-04,-1.089047914e-03,-8.506763660e-04,1.325939017e-04,-7.180824643e-04,-9.171838168e-04,-8.460718072e-05,-1.001790998e-03,-1.383642461e-03,1.039736227e-04,-1.279668839e-03,-1.182664389e-03,-1.119694558e-04,-1.294633845e-03,-1.122687486e-03,5.813807157e-05,-1.064549415e-03,-1.331371437e-03,-2.721480440e-04,-1.603519481e-03,-6.362653443e-04,-4.208993915e-04,-1.057164736e-03,3.729737917e-04,-6.556774666e-04,-2.827036748e-04,-5.589226280e-04,1.219789232e-04,-4.369437048e-04,-5.651830617e-04,4.039378837e-04,-1.612451780e-04,-7.294903966e-04,1.220188965e-04,-6.074715001e-04,-6.480262193e-04,1.342508914e-04,-5.137753279e-04,-5.843861776e-04,5.066480481e-05,-5.337213728e-04,-4.874706012e-04,2.817958612e-04,-2.056747401e-04,-9.989549034e-04,-1.271778133e-04,-1.126132717e-03,-5.048620406e-04,-2.481537620e-04,-7.530158026e-04,-1.329072861e-03,-7.911149123e-05,-1.408184353e-03,-5.111407989e-04,-4.478843338e-04,-9.590251327e-04,-3.214407045e-04,-1.009735991e-04,-4.224143035e-04,-1.119465070e-03,-2.847196866e-04,-1.404184757e-03,-9.228526659e-04,-2.222790012e-04,-1.145131667e-03,-3.865494933e-04,-8.238309011e-05,-4.689325834e-04,-7.953616090e-04,-3.324323184e-04,-1.127793927e-03,-1.101256166e-03,-1.441325257e-04,-1.245388692e-03,-1.427125004e-03,2.237569352e-04,-1.203368069e-03,-9.192881226e-04,-3.045218379e-04,-1.223809960e-03,1.044052567e-03,-2.082190297e-03,-1.038137730e-03,-5.760522056e-04,-9.849288891e-05,-6.745450945e-04,4.057373737e-04,-7.410950612e-04,-3.353576875e-04,-1.355401506e-03,3.077132129e-04,-1.047688293e-03,-4.594567525e-04,4.558688567e-04,-3.587895757e-06
-6.1,-3.426015824e-04,-2.810065050e-04,-6.236080874e-04,-6.328493905e-04,-3.032625895e-04,-9.361119800e-04,-7.176984144e-04,-2.510127097e-04,-9.687111241e-04,-1.438776653e-04,-1.695649249e-04,-3.134425902e-04,-1.025199287e-03,-1.664863917e-04,-1.191685679e-03,-8.699476318e-04,1.352104035e-04,-7.347372283e-04,-9.601773531e-04,-8.218046613e-05,-1.042357819e-03,-1.482619273e-03,1.148967808e-04,-1.367722492e-03,-1.235777404e-03,-9.761337291e-05,-1.333390776e-03,-1.183431786e-03,6.088232449e-05,-1.122549462e-03,-1.460609873e-03,-2.605329810e-04,-1.721142854e-03,-7.743265639e-04,-3.469395025e-04,-1.121266066e-03,3.130074938e-04,-6.457474533e-04,-3.327399595e-04,-5.944246979e-04,1.288444968e-04,-4.655802011e-04,-5.883162706e-04,3.618313974e-04,-2.264848732e-04,-7.706365552e-04,1.125290102e-04,-6.581075451e-04,-7.479689588e-04,1.612993479e-04,-5.866696109e-04,-6.032873036e-04,6.275463478e-05,-5.405326688e-04,-5.126505792e-04,2.947793267e-04,-2.178712525e-04,-1.084413171e-03,-1.296224788e-04,-1.214035650e-03,-5.499117490e-04,-2.305879041e-04,-7.804996531e-04,-1.399585539e-03,-8.465459347e-05,-1.484240133e-03,-6.169689866e-04,-4.592802526e-04,-1.076249239e-03,-3.224120143e-04,-9.677644598e-05,-4.191884603e-04,-1.168819410e-03,-2.908444810e-04,-1.459663891e-03,-9.944153786e-04,-2.150566074e-04,-1.209471986e-03,-4.288352536e-04,-1.171720018e-04,-5.460072554e-04,-9.746956864e-04,-2.897355024e-04,-1.264431189e-03,-1.155441011e-03,-1.219294177e-04,-1.277370428e-03,-1.487638007e-03,2.601889301e-04,-1.227449077e-03,-9.680613261e-04,-3.161310295e-04,-1.284192356e-03,1.020147460e-03,-2.099142842e-03,-1.078995381e-03,-6.043692769e-04,-1.288273278e-04,-7.331966047e-04,3.016383840e-04,-6.450314236e-04,-3.433930395e-04,-1.303135350e-03,2.570798257e-04,-1.046055525e-03,-4.448060465e-04,4.158806922e-04,-2.892535427e-05
-6,-4.344728860e-04,-2.969431572e-04,-7.314160432e-04,-6.892518779e-04,-3.068198165e-04,-9.960716944e-04,-8.096940977e-04,-2.561165823e-04,-1.065810680e-03,-2.128727483e-04,-1.706495645e-04,-3.835223128e-04,-1.135353928e-03,-1.537819531e-04,-1.289135881e-03,-8.858442386e-04,1.370410041e-04,-7.488032345e-04,-9.989635878e-04,-7.952554989e-05,-1.078489138e-03,-1.575182227e-03,1.246126899e-04,-1.450569537e-03,-1.283814514e-03,-8.288410391e-05,-1.366698618e-03,-1.239466574e-03,6.336876698e-05,-1.176097807e-03,-1.583617064e-03,-2.478968156e-04,-1.831513880e-03,-9.096367247e-04,-2.726032452e-04,-1.182239970e-03,2.548069220e-04,-6.324682400e-04,-3.776613180e-04,-6.280289484e-04,1.364119909e-04,-4.916169575e-04,-6.063367304e-04,3.171286570e-04,-2.892080734e-04,-8.076706071e-04,1.025965204e-04,-7.050740867e-04,-8.402025613e-04,1.866496221e-04,-6.535529392e-04,-6.191587456e-04,7.544844879e-05,-5.437102968e-04,-5.348340947e-04,3.062600278e-04,-2.285740669e-04,-1.166589472e-03,-1.317928092e-04,-1.298382282e-03,-5.932589823e-04,-2.110739136e-04,-8.043328960e-04,-1.463607333e-03,-9.085693667e-05,-1.554464270e-03,-7.204107383e-04,-4.685401860e-04,-1.188950924e-03,-3.207720838e-04,-9.162843923e-05,-4.124005230e-04,-1.214841580e-03,-2.952242756e-04,-1.510065856e-03,-1.062441863e-03,-2.078739311e-04,-1.270315794e-03,-4.693905201e-04,-1.511415612e-04,-6.205320813e-04,-1.152029666e-03,-2.442690599e-04,-1.396298726e-03,-1.205655154e-03,-9.884681852e-05,-1.304501972e-03,-1.543486756e-03,2.958627436e-04,-1.247624012e-03,-1.011493189e-03,-3.263790587e-04,-1.337872247e-03,9.953137114e-04,-2.113843278e-03,-1.118529566e-03,-6.298474064e-04,-1.563131009e-04,-7.861605073e-04,1.889915388e-04,-5.409376268e-04,-3.519460880e-04,-1.239989311e-03,2.004455308e-04,-1.039543780e-03,-4.322046515e-04,3.760344752e-04,-5.617017631e-05
-5.9,-5.219017133e-04,-3.108047274e-04,-8.327064407e-04,-7.431099276e-04,-3.090183603e-04,-1.052128288e-03,-8.979823242e-04,-2.600320163e-04,-1.158014341e-03,-2.821034441e-04,-1.712454492e-04,-4.533488934e-04,-1.240244589e-03,-1.406521933e-04,-1.380896782e-03,-8.983209117e-04,1.379904270e-04,-7.603304847e-04,-1.033546183e-03,-7.666890616e-05,-1.110215089e-03,-1.660964004e-03,1.330663565e-04,-1.527897647e-03,-1.326462287e-03,-6.783795405e-05,-1.394300241e-03,-1.290671273e-03,6.559995282e-05,-1.225071320e-03,-1.699708483e-03,-2.342807940e-04,-1.933989277e-03,-1.041280945e-03,-1.985311838e-04,-1.239812129e-03,1.983454895e-04,-6.156589592e-04,-4.173134697e-04,-6.594567868e-04,1.445324663e-04,-5.149243206e-04,-6.197327200e-04,2.704235986e-04,-3.493091214e-04,-8.407094722e-04,9.239511125e-05,-7.483143609e-04,-9.244945098e-04,2.101234020e-04,-7.143711078e-04,-6.320615257e-04,8.858123875e-05,-5.434802870e-04,-5.540689217e-04,3.160137190e-04,-2.380552027e-04,-1.245046463e-03,-1.338328275e-04,-1.378879290e-03,-6.347440393e-04,-1.899028564e-04,-8.246468957e-04,-1.520832850e-03,-9.762587194e-05,-1.618458722e-03,-8.209450195e-04,-4.756779030e-04,-1.296622923e-03,-3.165112414e-04,-8.560898298e-05,-4.021202244e-04,-1.257473508e-03,-2.976572344e-04,-1.555130743e-03,-1.126560430e-03,-2.007093988e-04,-1.327269829e-03,-5.083984905e-04,-1.838707032e-04,-6.922691937e-04,-1.326290487e-03,-1.965877299e-04,-1.522878217e-03,-1.251586748e-03,-7.516086998e-05,-1.326747618e-03,-1.594264286e-03,3.303624838e-04,-1.263901803e-03,-1.049753340e-03,-3.350670566e-04,-1.384820397e-03,9.691744898e-04,-2.126058712e-03,-1.156884222e-03,-6.528176424e-04,-1.804883478e-04,-8.333059902e-04,6.865313045e-05,-4.301173538e-04,-3.614642234e-04,-1.167364630e-03,1.388471321e-04,-1.028517498e-03,-4.217376429e-04,3.364821907e-04,-8.525545214e-05
-5.8,-6.049163613e-04,-3.226894009e-04,-9.276057621e-04,-7.943388697e-04,-3.099080745e-04,-1.104246944e-03,-9.820880363e-04,-2.628009420e-04,-1.244888978e-03,-3.512125287e-04,-1.713892506e-04,-5.226017793e-04,-1.339301157e-03,-1.271947105e-04,-1.466495867e-03,-9.073432381e-04,1.379744990e-04,-7.693687391e-04,-1.063941656e-03,-7.363572545e-05,-1.137577382e-03,-1.739622557e-03,1.402169934e-04,-1.599405564e-03,-1.363439519e-03,-5.253091259e-05,-1.415970432e-03,-1.336942923e-03,6.758075765e-05,-1.269362165e-03,-1.808235173e-03,-2.197274468e-04,-2.027962620e-03,-1.168365442e-03,-1.253356589e-04,-1.293701100e-03,1.436317428e-04,-5.952259096e-04,-4.515941668e-04,-6.884390665e-04,1.530481920e-04,-5.353908745e-04,-6.289993721e-04,2.222901608e-04,-4.067092113e-04,-8.698774688e-04,8.210295418e-05,-7.877745146e-04,-1.000673223e-03,2.315397192e-04,-7.691335034e-04,-6.420592063e-04,1.019668566e-04,-5.400923497e-04,-5.704080669e-04,3.238277628e-04,-2.465803041e-04,-1.319354894e-03,-1.358606508e-04,-1.455215545e-03,-6.742098644e-04,-1.673894585e-04,-8.415993228e-04,-1.570986513e-03,-1.048540221e-04,-1.675840535e-03,-9.180577076e-04,-4.807132334e-04,-1.398770941e-03,-3.096655079e-04,-7.880883057e-05,-3.884743384e-04,-1.296632763e-03,-2.979612063e-04,-1.594593970e-03,-1.186403135e-03,-1.935291277e-04,-1.379932262e-03,-5.460156496e-04,-2.149795303e-04,-7.609951798e-04,-1.496348205e-03,-1.472914518e-04,-1.643639657e-03,-1.292912222e-03,-5.115654604e-05,-1.344068768e-03,-1.639556614e-03,3.632700978e-04,-1.276286517e-03,-1.083040624e-03,-3.420025280e-04,-1.425043152e-03,9.412094575e-04,-2.135371856e-03,-1.194162398e-03,-6.735721295e-04,-2.009920272e-04,-8.745641568e-04,-5.847391935e-05,-3.139007318e-04,-3.723746511e-04,-1.086783289e-03,7.344035444e-05,-1.013342935e-03,-4.134403161e-04,2.973360849e-04,-1.161042312e-04
-5.7,-6.835820622e-04,-3.327054266e-04,-1.016287489e-03,-8.428529977e-04,-3.095457291e-04,-1.152398727e-03,-1.061552096e-03,-2.644655179e-04,-1.326017614e-03,-4.198273806e-04,-1.711146116e-04,-5.909419923e-04,-1.431989806e-03,-1.135019480e-04,-1.545491754e-03,-9.128892026e-04,1.369215888e-04,-7.759676137e-04,-1.090176426e-03,-7.044899384e-05,-1.160625420e-03,-1.810842721e-03,1.460351928e-04,-1.664807529e-03,-1.394499991e-03,-3.701915419e-05,-1.431519145e-03,-1.378194857e-03,6.931794234e-05,-1.308876914e-03,-1.908588297e-03,-2.042811726e-04,-2.112869470e-03,-1.290022341e-03,-5.360474562e-05,-1.343627086e-03,9.071167468e-05,-5.711752653e-04,-4.804635906e-04,-7.147278764e-04,1.617994599e-04,-5.529284166e-04,-6.346287644e-04,1.732675771e-04,-4.613611872e-04,-8.953017554e-04,7.189591809e-05,-8.234058373e-04,-1.068629558e-03,2.507210041e-04,-8.179085542e-04,-6.492182547e-04,1.154024808e-04,-5.338157738e-04,-5.839068987e-04,3.295029604e-04,-2.544039383e-04,-1.389103379e-03,-1.379642088e-04,-1.527067588e-03,-7.115013891e-04,-1.438657698e-04,-8.553671589e-04,-1.613827028e-03,-1.124204935e-04,-1.726247521e-03,-1.011243505e-03,-4.836718097e-04,-1.494915315e-03,-3.003191389e-04,-7.132965377e-05,-3.716487927e-04,-1.332213052e-03,-2.959720035e-04,-1.628185056e-03,-1.241608039e-03,-1.862882856e-04,-1.427896324e-03,-5.823687135e-04,-2.441308127e-04,-8.264995262e-04,-1.661033539e-03,-9.701108352e-05,-1.758044622e-03,-1.329303844e-03,-2.712046563e-05,-1.356424310e-03,-1.678952910e-03,3.941805076e-04,-1.284772403e-03,-1.111582178e-03,-3.470009738e-04,-1.458583152e-03,9.107732133e-04,-2.141193174e-03,-1.230419960e-03,-6.923634478e-04,-2.175614166e-04,-9.099248644e-04,-1.914741809e-04,-1.936082398e-04,-3.850824208e-04,-9.998702831e-04,5.489464453e-06,-9.943808186e-04,-4.072881000e-04,2.586546332e-04,-1.486334668e-04
-5.6,-7.579969103e-04,-3.409696727e-04,-1.098966583e-03,-8.885640032e-04,-3.079937254e-04,-1.196557729e-03,-1.135935503e-03,-2.650676282e-04,-1.401003132e-03,-4.875615027e-04,-1.704511941e-04,-6.580126968e-04,-1.517816796e-03,-9.966030987e-05,-1.617477106e-03,-9.149506405e-04,1.347739199e-04,-7.801767206e-04,-1.112284632e-03,-6.712871889e-05,-1.179413351e-03,-1.874339031e-03,1.505009458e-04,-1.723838085e-03,-1.419435397e-03,-2.135939586e-05,-1.440794793e-03,-1.414356245e-03,7.081974419e-05,-1.343536501e-03,-2.000204466e-03,-1.879888510e-04,-2.188193317e-03,-1.405427705e-03,1.611422473e-05,-1.389313480e-03,3.966011574e-05,-5.436168109e-04,-5.039566952e-04,-7.381058987e-04,1.706296798e-04,-5.674762189e-04,-6.371036763e-04,1.238501265e-04,-5.132535498e-04,-9.171096167e-04,6.194169385e-05,-8.551679229e-04,-1.128325669e-03,2.675046702e-04,-8.608209990e-04,-6.536102955e-04,1.286743255e-04,-5.249359701e-04,-5.946220883e-04,3.328554183e-04,-2.617666700e-04,-1.453908226e-03,-1.401982050e-04,-1.594106431e-03,-7.464670572e-04,-1.196739065e-04,-8.661409637e-04,-1.649153095e-03,-1.201914782e-04,-1.769344574e-03,-1.100008834e-03,-4.845848424e-04,-1.584593676e-03,-2.886066599e-04,-6.328310069e-05,-3.518897606e-04,-1.364087836e-03,-2.915412919e-04,-1.655629128e-03,-1.291823080e-03,-1.789328895e-04,-1.470755970e-03,-6.175535747e-04,-2.710293539e-04,-8.885829286e-04,-1.819160541e-03,-4.639281316e-05,-1.865553354e-03,-1.360439615e-03,-3.334315901e-06,-1.363773931e-03,-1.712058170e-03,4.227159157e-04,-1.289342255e-03,-1.135632381e-03,-3.498877558e-04,-1.485520137e-03,8.771165835e-04,-2.142776520e-03,-1.265659937e-03,-7.094046510e-04,-2.300278191e-04,-9.394324700e-04,-3.294388602e-04,-7.052816839e-05,-3.999670286e-04,-9.083337600e-04,-6.364987570e-05,-9.719836357e-04,-4.031941224e-04,2.204387579e-04,-1.827553646e-04
-5.5,-8.282879368e-04,-3.476062726e-04,-1.175894209e-03,-9.313803193e-04,-3.053187261e-04,-1.236699045e-03,-1.204824540e-03,-2.646486627e-04,-1.469473203e-03,-5.540172563e-04,-1.694239557e-04,-7.234412120e-04,-1.596332617e-03,-8.574942474e-05,-1.682082041e-03,-9.135339110e-04,1.314886686e-04,-7.820452424e-04,-1.130306420e-03,-6.369135315e-05,-1.193997774e-03,-1.929859157e-03,1.536024240e-04,-1.776256733e-03,-1.438078025e-03,-5.609088945e-06,-1.443687114e-03,-1.445372147e-03,7.209554944e-05,-1.373276598e-03,-2.082571247e-03,-1.709004089e-04,-2.253471656e-03,-1.513825614e-03,8.334172217e-05,-1.430483892e-03,-9.433477334e-06,-5.127615248e-04,-5.221950022e-04,-7.583918690e-04,1.793883790e-04,-5.790034899e-04,-6.368944289e-04,7.448301767e-05,-5.624114113e-04,-9.354264960e-04,5.239465128e-05,-8.830318447e-04,-1.179805656e-03,2.817568585e-04,-8.980487971e-04,-6.553168227e-04,1.415643654e-04,-5.137524573e-04,-6.026120636e-04,3.337188369e-04,-2.688932267e-04,-1.513420823e-03,-1.425828870e-04,-1.656003710e-03,-7.789615133e-04,-9.515833998e-05,-8.741198533e-04,-1.676809787e-03,-1.280201470e-04,-1.804829934e-03,-1.183875220e-03,-4.834890010e-04,-1.667364221e-03,-2.747134764e-04,-5.478950521e-05,-3.295029816e-04,-1.392115980e-03,-2.845357030e-04,-1.676651683e-03,-1.336710947e-03,-1.714017962e-04,-1.508112743e-03,-6.516357731e-04,-2.954205038e-04,-9.470562769e-04,-1.969551270e-03,3.917639365e-06,-1.965633630e-03,-1.386014323e-03,1.993128731e-05,-1.366083035e-03,-1.738505102e-03,4.485371399e-04,-1.289967962e-03,-1.155469727e-03,-3.505008023e-04,-1.505970529e-03,8.394111207e-04,-2.139238094e-03,-1.299826973e-03,-7.248651486e-04,-2.383168116e-04,-9.631819603e-04,-4.714628201e-04,5.408677699e-05,-4.173760432e-04,-8.139418205e-04,-1.325556391e-04,-9.464974596e-04,-4.010143355e-04,1.826377530e-04,-2.183765824e-04
-5.4,-8.946070246e-04,-3.527453221e-04,-1.247352347e-03,-9.712069638e-04,-3.015903672e-04,-1.272797331e-03,-1.267835542e-03,-2.632495711e-04,-1.531085113e-03,-6.187887997e-04,-1.680526841e-04,-7.868414838e-04,-1.667135371e-03,-7.184160662e-05,-1.738976978e-03,-9.086590254e-04,1.270383525e-04,-7.816206729e-04,-1.144286075e-03,-6.014942509e-05,-1.204435500e-03,-1.977187481e-03,1.553358204e-04,-1.821851661e-03,-1.450302611e-03,1.017341350e-05,-1.440129197e-03,-1.471203348e-03,7.315561889e-05,-1.398047730e-03,-2.155231861e-03,-1.530693211e-04,-2.308301182e-03,-1.614546571e-03,1.476906314e-04,-1.466855939e-03,-5.648168062e-05,-4.789138241e-04,-5.353955047e-04,-7.754415602e-04,1.879320679e-04,-5.875094923e-04,-6.344561641e-04,2.556367720e-05,-6.088924869e-04,-9.503739343e-04,4.339127259e-05,-9.069826617e-04,-1.223202326e-03,2.933846683e-04,-9.298176582e-04,-6.544350736e-04,1.538572718e-04,-5.005778018e-04,-6.079375439e-04,3.319467697e-04,-2.759907743e-04,-1.567330865e-03,-1.451051560e-04,-1.712436021e-03,-8.088470340e-04,-7.065878605e-05,-8.795058201e-04,-1.696694142e-03,-1.357466447e-04,-1.832440787e-03,-1.262382496e-03,-4.804264701e-04,-1.742808966e-03,-2.588740281e-04,-4.597642802e-05,-3.048504561e-04,-1.416146949e-03,-2.748386709e-04,-1.690985620e-03,-1.375953650e-03,-1.636287174e-04,-1.539582368e-03,-6.846523738e-04,-3.170881752e-04,-1.001740549e-03,-2.111058525e-03,5.329029660e-05,-2.057768229e-03,-1.405750592e-03,4.242329179e-05,-1.363327300e-03,-1.757961272e-03,4.713497686e-04,-1.286611503e-03,-1.171390424e-03,-3.486942947e-04,-1.520084719e-03,7.967787390e-04,-2.129580835e-03,-1.332802096e-03,-7.388631850e-04,-2.424523805e-04,-9.813155655e-04,-6.166236998e-04,1.790089569e-04,-4.376147429e-04,-7.184946590e-04,-1.997721866e-04,-9.182668456e-04,-4.005545805e-04,1.451594062e-04,-2.553951743e-04
-5.3,-9.571262603e-04,-3.565214999e-04,-1.313647760e-03,-1.007945368e-03,-2.968800310e-04,-1.304825399e-03,-1.324618297e-03,-2.609111190e-04,-1.585529416e-03,-6.814642819e-04,-1.663516793e-04,-8.478159612e-04,-1.729872470e-03,-5.800153267e-05,-1.787874002e-03,-9.003569733e-04,1.214097562e-04,-7.789472171e-04,-1.154269508e-03,-5.651140884e-05,-1.210780917e-03,-2.016148258e-03,1.557062986e-04,-1.860441960e-03,-1.456026988e-03,2.592849242e-05,-1.430098495e-03,-1.491825371e-03,7.401074997e-05,-1.417814621e-03,-2.217788295e-03,-1.345531207e-04,-2.352341415e-03,-1.707012088e-03,2.088798233e-04,-1.498132264e-03,-1.014165691e-04,-4.424568430e-04,-5.438734121e-04,-7.891445174e-04,1.961227158e-04,-5.930218016e-04,-6.302255239e-04,-2.255310017e-05,-6.527786240e-04,-9.620669168e-04,3.504619430e-05,-9.270207225e-04,-1.258737517e-03,3.023442122e-04,-9.563933048e-04,-6.510823645e-04,1.653464016e-04,-4.857359629e-04,-6.106605935e-04,3.274140190e-04,-2.832465746e-04,-1.615365954e-03,-1.477210672e-04,-1.763087021e-03,-8.359922833e-04,-4.650397934e-05,-8.824962627e-04,-1.708758213e-03,-1.431996066e-04,-1.851957819e-03,-1.335091446e-03,-4.754451554e-04,-1.810536601e-03,-2.413669910e-04,-3.697706044e-05,-2.783440514e-04,-1.436023525e-03,-2.623553802e-04,-1.698378905e-03,-1.409255764e-03,-1.555441486e-04,-1.564799913e-03,-7.166156574e-04,-3.358515940e-04,-1.052467251e-03,-2.242584598e-03,1.011254415e-04,-2.141459156e-03,-1.419408769e-03,6.391339426e-05,-1.355495375e-03,-1.770130054e-03,4.909047936e-04,-1.279225260e-03,-1.183699164e-03,-3.443432654e-04,-1.528042429e-03,7.483270261e-04,-2.112727850e-03,-1.364400824e-03,-7.514592437e-04,-2.425591228e-04,-9.940183664e-04,-7.639541017e-04,3.030232050e-04,-4.609308967e-04,-6.237925454e-04,-2.638477466e-04,-8.876402920e-04,-4.015751864e-04,1.078807475e-04,-2.936944389e-04
-5.2,-1.016032592e-03,-3.590724637e-04,-1.375105056e-03,-1.041492832e-03,-2.912596793e-04,-1.332752511e-03,-1.374858122e-03,-2.576742837e-04,-1.632532406e-03,-7.416272239e-04,-1.643294543e-04,-9.059566782e-04,-1.784240711e-03,-4.428615797e-05,-1.828526869e-03,-8.886660702e-04,1.146014376e-04,-7.740646326e-04,-1.160301209e-03,-5.278188136e-05,-1.213083091e-03,-2.046607634e-03,1.547292147e-04,-1.891878419e-03,-1.455211731e-03,4.159463752e-05,-1.413617094e-03,-1.507226695e-03,7.467181424e-05,-1.432554881e-03,-2.269902901e-03,-1.154139788e-04,-2.385316879e-03,-1.790724863e-03,2.667324574e-04,-1.523992406e-03,-1.442064206e-04,-4.038293718e-04,-5.480357924e-04,-7.994180227e-04,2.038238321e-04,-5.955941907e-04,-6.246182754e-04,-6.954762937e-05,-6.941659047e-04,-9.706104017e-04,2.744894719e-05,-9.431614545e-04,-1.286716889e-03,3.086435363e-04,-9.780733523e-04,-6.453965614e-04,1.758381453e-04,-4.695584161e-04,-6.108418699e-04,3.200170609e-04,-2.908248090e-04,-1.657289728e-03,-1.503582701e-04,-1.807647999e-03,-8.602692489e-04,-2.300571971e-05,-8.832749686e-04,-1.713008606e-03,-1.501998741e-04,-1.863208480e-03,-1.401586174e-03,-4.685989518e-04,-1.870185126e-03,-2.225079524e-04,-2.792839068e-05,-2.504363431e-04,-1.451581694e-03,-2.470199393e-04,-1.698601633e-03,-1.436346385e-03,-1.470771590e-04,-1.583423544e-03,-7.475187789e-04,-3.515597704e-04,-1.099078549e-03,-2.363096084e-03,1.468666756e-04,-2.216229409e-03,-1.426794683e-03,8.420505284e-05,-1.342589630e-03,-1.774748177e-03,5.069961091e-04,-1.267752068e-03,-1.192699080e-03,-3.373485838e-04,-1.530047663e-03,6.931889209e-04,-2.087567026e-03,-1.394378106e-03,-7.626535680e-04,-2.388586335e-04,-1.001512202e-03,-9.124148422e-04,4.249197186e-04,-4.874951236e-04,-5.316012603e-04,-3.233727751e-04,-8.549740354e-04,-4.037934622e-04,7.065888153e-05,-3.331345807e-04
-5.1,-1.071522047e-03,-3.605370381e-04,-1.432059085e-03,-1.071741655e-03,-2.848008900e-04,-1.356542545e-03,-1.418277653e-03,-2.535807700e-04,-1.671858423e-03,-7.988581007e-04,-1.619884542e-04,-9.608465549e-04,-1.829985815e-03,-3.074488747e-05,-1.860730702e-03,-8.736291536e-04,1.066212152e-04,-7.670079384e-04,-1.162421377e-03,-4.896197569e-05,-1.211383352e-03,-2.068474184e-03,1.524306283e-04,-1.916043555e-03,-1.447859378e-03,5.710777439e-05,-1.390751603e-03,-1.517406954e-03,7.514925993e-05,-1.442257694e-03,-2.311299432e-03,-9.571928564e-05,-2.407018717e-03,-1.865250353e-03,3.211600214e-04,-1.544090331e-03,-1.848708027e-04,-3.634969052e-04,-5.483677079e-04,-8.062012176e-04,2.108956981e-04,-5.953055195e-04,-6.180286016e-04,-1.151272176e-04,-7.331558192e-04,-9.760958400e-04,2.066143397e-05,-9.554344060e-04,-1.307521270e-03,3.123410344e-04,-9.951802352e-04,-6.375324019e-04,1.851547201e-04,-4.523776818e-04,-6.085378412e-04,3.096746729e-04,-2.988631683e-04,-1.692900248e-03,-1.529182684e-04,-1.845818517e-03,-8.815504404e-04,-4.528027779e-07,-8.820032432e-04,-1.709503430e-03,-1.565655511e-04,-1.866068981e-03,-1.461476893e-03,-4.599480221e-04,-1.921424915e-03,-2.026404975e-04,-1.896904598e-05,-2.216095435e-04,-1.462649097e-03,-2.288033483e-04,-1.691452445e-03,-1.456980920e-03,-1.381571025e-04,-1.595138022e-03,-7.773421292e-04,-3.640843085e-04,-1.141426438e-03,-2.471635830e-03,1.900113215e-04,-2.281624509e-03,-1.427764857e-03,1.031386441e-04,-1.324626213e-03,-1.771584425e-03,5.194578253e-04,-1.252126600e-03,-1.198682858e-03,-3.276414218e-04,-1.526324280e-03,6.305673655e-04,-2.053005239e-03,-1.422437873e-03,-7.723890347e-04,-2.316603963e-04,-1.004049431e-03,-1.060869945e-03,5.434902578e-04,-5.173796869e-04,-4.436149045e-04,-3.770179140e-04,-8.206328185e-04,-4.068864418e-04,3.334102099e-05,-3.735454208e-04
-5,-1.123793960e-03,-3.610534018e-04,-1.484847362e-03,-1.098578469e-03,-2.775742677e-04,-1.376152736e-03,-1.454639416e-03,-2.486735944e-04,-1.703313010e-03,-8.527375032e-04,-1.593249376e-04,-1.012062441e-03,-1.866902604e-03,-1.741998934e-05,-1.884322593e-03,-8.552931613e-04,9.748524633e-05,-7.578079150e-04,-1.160664137e-03,-4.505005043e-05,-1.205714188e-03,-2.081698346e-03,1.488468850e-04,-1.932851461e-03,-1.434013714e-03,7.240086025e-05,-1.361612854e-03,-1.522375966e-03,7.545268922e-05,-1.446923277e-03,-2.341764477e-03,-7.554209076e-05,-2.417306568e-03,-1.930197561e-03,3.721381177e-04,-1.558059444e-03,-2.234930395e-04,-3.219234223e-04,-5.454164618e-04,-8.094525305e-04,2.171926163e-04,-5.922599143e-04,-6.108281835e-04,-1.590194915e-04,-7.698476750e-04,-9.785992909e-04,1.471603118e-05,-9.638832597e-04,-1.321596202e-03,3.135410676e-04,-1.008055135e-03,-6.276555692e-04,1.931360145e-04,-4.345195547e-04,-6.038006761e-04,2.963301369e-04,-3.074705392e-04,-1.722029152e-03,-1.552792879e-04,-1.877308440e-03,-8.997078456e-04,2.089468755e-05,-8.788131580e-04,-1.698348841e-03,-1.621168001e-04,-1.860465642e-03,-1.514403650e-03,-4.495591041e-04,-1.963962754e-03,-1.821264000e-04,-1.023680534e-05,-1.923632053e-04,-1.469044015e-03,-2.077211646e-04,-1.676765179e-03,-1.470943940e-03,-1.287154160e-04,-1.599659356e-03,-8.060583057e-04,-3.733128441e-04,-1.179371150e-03,-2.567333652e-03,2.301180786e-04,-2.337215574e-03,-1.422229104e-03,1.205933282e-04,-1.301635776e-03,-1.760442023e-03,5.281627210e-04,-1.232279302e-03,-1.201924996e-03,-3.151870757e-04,-1.517112071e-03,5.597856677e-04,-2.008024752e-03,-1.448239084e-03,-7.805611079e-04,-2.213473667e-04,-1.001908475e-03,-1.208065075e-03,6.575243952e-04,-5.505406801e-04,-3.614150156e-04,-4.235722956e-04,-7.849873111e-04,-4.104947693e-04,-4.227927497e-06,-4.147226968e-04
-4.9,-1.173045653e-03,-3.607574448e-04,-1.533803097e-03,-1.121884452e-03,-2.696491978e-04,-1.391533650e-03,-1.483749470e-03,-2.429976274e-04,-1.726747098e-03,-9.028516452e-04,-1.563292103e-04,-1.059180856e-03,-1.894836341e-03,-4.347181314e-06,-1.899183522e-03,-8.337112777e-04,8.721916105e-05,-7.464921167e-04,-1.155057454e-03,-4.104240826e-05,-1.196099862e-03,-2.086271184e-03,1.440235958e-04,-1.942247588e-03,-1.413759132e-03,8.740392601e-05,-1.326355206e-03,-1.522153943e-03,7.559048899e-05,-1.446563454e-03,-2.361149575e-03,-5.496134318e-05,-2.416110919e-03,-1.985203317e-03,4.196794809e-04,-1.565523836e-03,-2.602270514e-04,-2.795502874e-04,-5.397773387e-04,-8.091513773e-04,2.225641505e-04,-5.865872268e-04,-6.033631731e-04,-2.009684777e-04,-8.043316508e-04,-9.781820656e-04,9.614372339e-06,-9.685676933e-04,-1.329441493e-03,3.123889342e-04,-1.017052559e-03,-6.159370149e-04,1.996412142e-04,-4.162958007e-04,-5.966821826e-04,2.799552576e-04,-3.167269250e-04,-1.744541407e-03,-1.573001389e-04,-1.901841546e-03,-9.146137866e-04,4.080981410e-05,-8.738039725e-04,-1.679696665e-03,-1.666796068e-04,-1.846376272e-03,-1.560040965e-03,-4.375058626e-04,-1.997546828e-03,-1.613351057e-04,-1.865841499e-06,-1.632009472e-04,-1.470575880e-03,-1.838404343e-04,-1.654416314e-03,-1.478053491e-03,-1.186876311e-04,-1.596741122e-03,-8.336349849e-04,-3.791448408e-04,-1.212779826e-03,-2.649417836e-03,2.668134019e-04,-2.382604434e-03,-1.410150835e-03,1.364854997e-04,-1.273665336e-03,-1.741164455e-03,5.330219860e-04,-1.208142469e-03,-1.202673882e-03,-2.999888991e-04,-1.502662781e-03,4.803387731e-04,-1.951731883e-03,-1.471393110e-03,-7.870363390e-04,-2.083550898e-04,-9.953914288e-04,-1.352619787e-03,7.658108786e-04,-5.868089079e-04,-2.864282526e-04,-4.619808105e-04,-7.484090631e-04,-4.142267250e-04,-4.220059300e-05,-4.564273180e-04
-4.8,-1.219467886e-03,-3.597812826e-04,-1.579249169e-03,-1.141536880e-03,-2.610937223e-04,-1.402630602e-03,-1.505461468e-03,-2.365999783e-04,-1.742061446e-03,-9.487998885e-04,-1.529864020e-04,-1.101786291e-03,-1.913684803e-03,8.443682425e-06,-1.905241121e-03,-8.089464053e-04,7.586034588e-05,-7.330860594e-04,-1.145624810e-03,-3.693389493e-05,-1.182558705e-03,-2.082222852e-03,1.380144325e-04,-1.944208420e-03,-1.387219617e-03,1.020445502e-04,-1.285175066e-03,-1.516772425e-03,7.556942002e-05,-1.441203005e-03,-2.369373434e-03,-3.406197885e-05,-2.403435413e-03,-2.029919900e-03,4.638075652e-04,-1.566112335e-03,-2.952946874e-04,-2.367843723e-04,-5.320790596e-04,-8.053017406e-04,2.268595842e-04,-5.784421563e-04,-5.959493834e-04,-2.407333560e-04,-8.366827394e-04,-9.748938330e-04,5.327537487e-06,-9.695662956e-04,-1.331602724e-03,3.090668993e-04,-1.022535825e-03,-6.025489033e-04,2.045505326e-04,-3.979983707e-04,-5.872411673e-04,2.605556898e-04,-3.266854775e-04,-1.760335251e-03,-1.588248940e-04,-1.919160145e-03,-9.261429341e-04,5.910135293e-05,-8.670415811e-04,-1.653742499e-03,-1.700892260e-04,-1.823831725e-03,-1.598102828e-03,-4.238692278e-04,-2.021972056e-03,-1.406324452e-04,6.016178410e-06,-1.346162668e-04,-1.467046993e-03,-1.572858121e-04,-1.624332805e-03,-1.478166062e-03,-1.080155412e-04,-1.586181604e-03,-8.600368390e-04,-3.814899571e-04,-1.241526796e-03,-2.717228122e-03,2.997973758e-04,-2.417430747e-03,-1.391545945e-03,1.507651856e-04,-1.240780759e-03,-1.713643016e-03,5.339861725e-04,-1.179656843e-03,-1.201143483e-03,-2.820923382e-04,-1.483235821e-03,3.919384198e-04,-1.883394220e-03,-1.491455801e-03,-7.916772857e-04,-1.931456098e-04,-9.848228955e-04,-1.493043268e-03,8.671515469e-04,-6.258917209e-04,-2.198881496e-04,-4.913762324e-04,-7.112643820e-04,-4.176614124e-04,-8.072348535e-05,-4.983848977e-04
-4.7,-1.263241059e-03,-3.582518611e-04,-1.621492920e-03,-1.157411859e-03,-2.519743498e-04,-1.409386209e-03,-1.519679838e-03,-2.295302096e-04,-1.749210048e-03,-9.902030557e-04,-1.492778761e-04,-1.139480932e-03,-1.923400040e-03,2.092783426e-05,-1.902472206e-03,-7.810741099e-04,6.345979547e-05,-7.176143145e-04,-1.132388186e-03,-3.271832556e-05,-1.165106512e-03,-2.069621277e-03,1.308802681e-04,-1.938741009e-03,-1.354556769e-03,1.162486426e-04,-1.238308127e-03,-1.506275040e-03,7.539414395e-05,-1.430880896e-03,-2.366423205e-03,-1.293489842e-05,-2.379358103e-03,-2.064004168e-03,5.045332268e-04,-1.559470941e-03,-3.289729455e-04,-1.939931846e-04,-5.229661301e-04,-7.979339818e-04,2.299328902e-04,-5.680010915e-04,-5.888671871e-04,-2.780889726e-04,-8.669561597e-04,-9.687775769e-04,1.798435824e-06,-9.669791411e-04,-1.328664825e-03,3.037913235e-04,-1.024873502e-03,-5.876617033e-04,2.077665168e-04,-3.798951865e-04,-5.755520995e-04,2.381769866e-04,-3.373751129e-04,-1.769341585e-03,-1.596880489e-04,-1.929029634e-03,-9.341744793e-04,7.561449224e-05,-8.585599870e-04,-1.620722717e-03,-1.721944184e-04,-1.792917136e-03,-1.628347209e-03,-4.087376244e-04,-2.037084833e-03,-1.203685452e-04,1.329093574e-05,-1.070776095e-04,-1.458254853e-03,-1.282443868e-04,-1.586499240e-03,-1.471180748e-03,-9.664932773e-05,-1.567830075e-03,-8.852273945e-04,-3.802688117e-04,-1.265496206e-03,-2.770228300e-03,3.288475739e-04,-2.441380726e-03,-1.366481023e-03,1.634119696e-04,-1.203069054e-03,-1.677824367e-03,5.310471385e-04,-1.146777228e-03,-1.197506021e-03,-2.615878439e-04,-1.459093865e-03,2.945492112e-04,-1.802470571e-03,-1.507921360e-03,-7.943684571e-04,-1.761801283e-04,-9.705485855e-04,-1.627769772e-03,9.603869066e-04,-6.673828657e-04,-1.628042153e-04,-5.111032768e-04,-6.739074921e-04,-4.203512602e-04,-1.199328560e-04,-5.402841162e-04
-4.6,-1.304531661e-03,-3.562897323e-04,-1.660821393e-03,-1.169387498e-03,-2.423557847e-04,-1.411743283e-03,-1.526360855e-03,-2.218404596e-04,-1.748201315e-03,-1.026711032e-03,-1.451831426e-04,-1.171894175e-03,-1.923988720e-03,3.308468738e-05,-1.890904032e-03,-7.501843555e-04,5.008261269e-05,-7.001017428e-04,-1.115371452e-03,-2.838883463e-05,-1.143760286e-03,-2.048571379e-03,1.226891286e-04,-1.925882250e-03,-1.315966535e-03,1.299413923e-04,-1.186025143e-03,-1.490717297e-03,7.506676861e-05,-1.415650528e-03,-2.352354020e-03,8.323219591e-06,-2.344030801e-03,-2.087108139e-03,5.418344312e-04,-1.545273707e-03,-3.615751956e-04,-1.515030862e-04,-5.130782819e-04,-7.871033658e-04,2.316463578e-04,-5.554570080e-04,-5.823572340e-04,-3.128269316e-04,-8.951841656e-04,-9.598749909e-04,-1.053847800e-06,-9.609288387e-04,-1.321244902e-03,2.968090161e-04,-1.024435886e-03,-5.714407942e-04,2.092140654e-04,-3.622267288e-04,-5.617123912e-04,2.129103473e-04,-3.488020439e-04,-1.771521857e-03,-1.597199828e-04,-1.931241840e-03,-9.385935548e-04,9.022998933e-05,-8.483635654e-04,-1.580909735e-03,-1.728625114e-04,-1.753772246e-03,-1.650579450e-03,-3.922070415e-04,-2.042786491e-03,-1.008653092e-04,1.985206462e-05,-8.101324460e-05,-1.443995237e-03,-9.696786120e-05,-1.540963098e-03,-1.457041289e-03,-8.454952101e-05,-1.541590810e-03,-9.091700930e-04,-3.754158999e-04,-1.284585993e-03,-2.808015299e-03,3.538192135e-04,-2.454196085e-03,-1.335070869e-03,1.744310729e-04,-1.160639796e-03,-1.633717182e-03,5.242406895e-04,-1.109476493e-03,-1.191887253e-03,-2.386116130e-04,-1.430498866e-03,1.884153685e-04,-1.708637549e-03,-1.520222180e-03,-7.950379995e-04,-1.578937718e-04,-9.529317713e-04,-1.755199751e-03,1.044425086e-03,-7.107746651e-04,-1.159373697e-04,-5.207348079e-04,-6.366721776e-04,-4.218249451e-04,-1.599503736e-04,-5.817753187e-04
-4.5,-1.343488434e-03,-3.540081925e-04,-1.697496627e-03,-1.177346754e-03,-2.323006338e-04,-1.409647388e-03,-1.525511398e-03,-2.135855165e-04,-1.739096914e-03,-1.058008746e-03,-1.406819789e-04,-1.198690725e-03,-1.915510687e-03,4.489679869e-05,-1.870613888e-03,-7.163830153e-04,3.580750131e-05,-6.805755140e-04,-1.094603462e-03,-2.393833410e-05,-1.118541797e-03,-2.019214837e-03,1.135170847e-04,-1.905697753e-03,-1.271674915e-03,1.430482728e-04,-1.128626643e-03,-1.470165348e-03,7.458650640e-05,-1.395578842e-03,-2.327286878e-03,2.961035842e-05,-2.297676519e-03,-2.098875173e-03,5.756366745e-04,-1.523238499e-03,-3.934314790e-04,-1.095975961e-04,-5.030290751e-04,-7.728868793e-04,2.318733504e-04,-5.410135289e-04,-5.766179352e-04,-3.447559523e-04,-9.213738876e-04,-9.482306786e-04,-3.328708078e-06,-9.515593866e-04,-1.309981089e-03,2.883907656e-04,-1.021590323e-03,-5.540416968e-04,2.088390906e-04,-3.452026062e-04,-5.458468802e-04,1.848968155e-04,-3.609500647e-04,-1.766864005e-03,-1.587529026e-04,-1.925616908e-03,-9.392917130e-04,1.028621861e-04,-8.364295269e-04,-1.534606357e-03,-1.719841211e-04,-1.706590478e-03,-1.664654488e-03,-3.743809600e-04,-2.039035448e-03,-8.240455437e-05,2.560744010e-05,-5.679711427e-05,-1.424066783e-03,-6.377060184e-05,-1.487837385e-03,-1.435735845e-03,-7.168878170e-05,-1.507424626e-03,-9.318273973e-04,-3.668836412e-04,-1.298711039e-03,-2.830323471e-03,3.746422774e-04,-2.455681194e-03,-1.297475301e-03,1.838496157e-04,-1.113625685e-03,-1.581397457e-03,5.136491865e-04,-1.067748271e-03,-1.184365221e-03,-2.133441556e-04,-1.397709377e-03,7.407691846e-05,-1.601811758e-03,-1.527734839e-03,-7.936723177e-04,-1.386742440e-04,-9.323465617e-04,-1.873737011e-03,1.118267471e-03,-7.554695394e-04,-7.977975857e-05,-5.200821549e-04,-5.998619135e-04,-4.215929255e-04,-2.008789255e-04,-6.224718509e-04
-4.4,-1.380238234e-03,-3.515128589e-04,-1.731751093e-03,-1.181179816e-03,-2.218690767e-04,-1.403048892e-03,-1.517186573e-03,-2.048227837e-04,-1.722009357e-03,-1.083820714e-03,-1.357565097e-04,-1.219577224e-03,-1.898076501e-03,5.634878211e-05,-1.841727719e-03,-6.797938540e-04,2.072575639e-05,-6.590680976e-04,-1.070120865e-03,-1.936021953e-05,-1.089481085e-03,-1.981730406e-03,1.034499768e-04,-1.878280429e-03,-1.221933384e-03,1.554960743e-04,-1.066437309e-03,-1.444694373e-03,7.394947477e-05,-1.370744898e-03,-2.291405776e-03,5.081982784e-05,-2.240585948e-03,-2.098947269e-03,6.057946262e-04,-1.493152642e-03,-4.248709502e-04,-6.851465180e-05,-4.933856020e-04,-7.553811918e-04,2.305017385e-04,-5.248794533e-04,-5.718059820e-04,-3.737005554e-04,-9.455065374e-04,-9.338947553e-04,-5.138489940e-06,-9.390332452e-04,-1.295517242e-03,2.788218923e-04,-1.016695350e-03,-5.356049015e-04,2.066067628e-04,-3.289981387e-04,-5.281103464e-04,1.543294250e-04,-3.737809213e-04,-1.755376905e-03,-1.566278973e-04,-1.912004802e-03,-9.361675260e-04,1.134564750e-04,-8.227110510e-04,-1.482140682e-03,-1.694760979e-04,-1.651616780e-03,-1.670478347e-03,-3.553701222e-04,-2.025848469e-03,-6.521838589e-05,3.048112888e-05,-3.473725701e-05,-1.398277683e-03,-2.902317491e-05,-1.427300858e-03,-1.407295640e-03,-5.805345806e-05,-1.465349098e-03,-9.531580957e-04,-3.546463991e-04,-1.307804495e-03,-2.837025231e-03,3.913176081e-04,-2.445707623e-03,-1.253896104e-03,1.917131254e-04,-1.062182979e-03,-1.521011766e-03,4.994026115e-04,-1.021609154e-03,-1.174972266e-03,-1.860073193e-04,-1.360979585e-03,-4.762901887e-05,-1.482163266e-03,-1.529792285e-03,-7.903235559e-04,-1.188454289e-04,-9.091689848e-04,-1.981824141e-03,1.181030558e-03,-8.007935834e-04,-5.453980999e-05,-5.092003863e-04,-5.637401963e-04,-4.191577921e-04,-2.427974159e-04,-6.619552080e-04
-4.3,-1.414882163e-03,-3.489015556e-04,-1.763783719e-03,-1.180786492e-03,-2.111184415e-04,-1.391904934e-03,-1.501487707e-03,-1.956120706e-04,-1.697099777e-03,-1.103915086e-03,-1.303931764e-04,-1.234308262e-03,-1.871845183e-03,6.742628269e-05,-1.804418900e-03,-6.405601923e-04,4.939669955e-06,-6.356205223e-04,-1.041971182e-03,-1.464931138e-05,-1.056620493e-03,-1.936334759e-03,9.258556510e-05,-1.843749194e-03,-1.167014614e-03,1.672139888e-04,-9.998006256e-04,-1.414387446e-03,7.314861550e-05,-1.341238830e-03,-2.244955097e-03,7.184101743e-05,-2.173114080e-03,-2.086986108e-03,6.320819705e-04,-1.454904138e-03,-4.562082028e-04,-2.844355838e-05,-4.846517612e-04,-7.347034161e-04,2.274386896e-04,-5.072647265e-04,-5.680404971e-04,-3.994982367e-04,-9.675387338e-04,-9.169244398e-04,-6.603381389e-06,-9.235278212e-04,-1.278486754e-03,2.683921165e-04,-1.010094637e-03,-5.162524474e-04,2.025005900e-04,-3.137518575e-04,-5.086897074e-04,1.214537310e-04,-3.872359763e-04,-1.737084289e-03,-1.532036704e-04,-1.890287960e-03,-9.291288584e-04,1.219869944e-04,-8.071418640e-04,-1.423862708e-03,-1.652820081e-04,-1.589144716e-03,-1.668009405e-03,-3.352920607e-04,-2.003301466e-03,-4.948308849e-05,3.441488794e-05,-1.506820055e-05,-1.366454607e-03,6.857884173e-06,-1.359596723e-03,-1.371794139e-03,-4.364477330e-05,-1.415438912e-03,-9.731138805e-04,-3.387046762e-04,-1.311818557e-03,-2.828129895e-03,4.039128986e-04,-2.424216996e-03,-1.204575019e-03,1.980823307e-04,-1.006492688e-03,-1.452778480e-03,4.816771414e-04,-9.711013383e-04,-1.163699338e-03,-1.568603498e-04,-1.320559687e-03,-1.755868472e-04,-1.350117232e-03,-1.525704079e-03,-7.851106830e-04,-9.865704018e-05,-8.837677231e-04,-2.077983299e-03,1.231966840e-03,-8.460164583e-04,-4.013602660e-05,-4.883867141e-04,-5.285227407e-04,-4.140304166e-04,-2.857532655e-04,-6.997836821e-04
-4.2,-1.447492648e-03,-3.462642741e-04,-1.793756922e-03,-1.176079156e-03,-2.001026817e-04,-1.376181838e-03,-1.478561253e-03,-1.860152317e-04,-1.664576485e-03,-1.118107805e-03,-1.245846613e-04,-1.242692467e-03,-1.837022896e-03,7.811507161e-05,-1.758907825e-03,-5.988451020e-04,-1.143967078e-05,-6.102847728e-04,-1.010216592e-03,-9.802909100e-06,-1.020019501e-03,-1.883283378e-03,8.103527400e-05,-1.802248104e-03,-1.107208716e-03,1.781347887e-04,-9.290739277e-04,-1.379335364e-03,7.217377304e-05,-1.307161591e-03,-2.188237724e-03,9.256017655e-05,-2.095677547e-03,-2.062705764e-03,6.541984366e-04,-1.408507327e-03,-4.877347191e-04,1.047686971e-05,-4.772578493e-04,-7.109939576e-04,2.226160950e-04,-4.883778626e-04,-5.654094239e-04,-4.219966247e-04,-9.874060486e-04,-8.973850172e-04,-7.847171901e-06,-9.052321891e-04,-1.259499000e-03,2.573879318e-04,-1.002111068e-03,-4.960878279e-04,1.965231178e-04,-2.995647101e-04,-4.878064685e-04,8.656727925e-05,-4.012391893e-04,-1.712019288e-03,-1.483666458e-04,-1.860385934e-03,-9.180974175e-04,1.284550541e-04,-7.896423634e-04,-1.360142694e-03,-1.593710045e-04,-1.519513698e-03,-1.657259644e-03,-3.142703453e-04,-1.971529989e-03,-3.531688900e-05,3.736896865e-05,2.052079658e-06,-1.328453563e-03,4.342324796e-05,-1.285030315e-03,-1.329347565e-03,-2.847946769e-05,-1.357827032e-03,-9.916355444e-04,-3.190909769e-04,-1.310726521e-03,-2.803781983e-03,4.125583581e-04,-2.391223625e-03,-1.149792743e-03,2.030301088e-04,-9.467626346e-04,-1.376988498e-03,4.606922311e-04,-9.162962667e-04,-1.150501684e-03,-1.261951067e-04,-1.276696791e-03,-3.084376661e-04,-1.206347499e-03,-1.514785166e-03,-7.782140270e-04,-7.828179175e-05,-8.564958187e-04,-2.160862740e-03,1.270486933e-03,-8.903758066e-04,-3.620147734e-05,-4.581702378e-04,-4.943717151e-04,-4.057520726e-04,-3.297525297e-04,-7.355046023e-04
-4.1,-1.478111650e-03,-3.436829799e-04,-1.821794630e-03,-1.166986378e-03,-1.888718090e-04,-1.355858187e-03,-1.448598147e-03,-1.760957136e-04,-1.624693860e-03,-1.126266551e-03,-1.183317632e-04,-1.244598315e-03,-1.793862326e-03,8.840026305e-05,-1.705462063e-03,-5.548298044e-04,-2.829465529e-05,-5.831244597e-04,-9.749380686e-04,-4.821832008e-06,-9.797599006e-04,-1.822870698e-03,6.892477286e-05,-1.753945925e-03,-1.042819755e-03,1.881960865e-04,-8.546236689e-04,-1.339637321e-03,7.101207288e-05,-1.268625248e-03,-2.121613710e-03,1.128613023e-04,-2.008752408e-03,-2.025907917e-03,6.717935929e-04,-1.354114324e-03,-5.197161003e-04,4.815852163e-05,-4.715575786e-04,-6.844191209e-04,2.159952201e-04,-4.684239008e-04,-5.639751798e-04,-4.410527452e-04,-1.005027925e-03,-8.753503779e-04,-8.993795165e-06,-8.843441731e-04,-1.239128460e-03,2.460884713e-04,-9.930399890e-04,-4.751986225e-04,1.886979149e-04,-2.865007076e-04,-4.657186036e-04,5.001810516e-05,-4.157004984e-04,-1.680220340e-03,-1.420414336e-04,-1.822261774e-03,-9.030148687e-04,1.328882517e-04,-7.701266170e-04,-1.291370272e-03,-1.517368631e-04,-1.443107135e-03,-1.638295695e-03,-2.924335982e-04,-1.930729294e-03,-2.278098266e-05,3.932201628e-05,1.654103362e-05,-1.284172165e-03,8.020627669e-05,-1.203965888e-03,-1.280116516e-03,-1.258985815e-05,-1.292706374e-03,-1.008648638e-03,-2.958777510e-04,-1.304526389e-03,-2.764260077e-03,4.174419496e-04,-2.346818128e-03,-1.089867902e-03,2.066383257e-04,-8.832295767e-04,-1.294006599e-03,4.367079199e-04,-8.572986792e-04,-1.135305594e-03,-9.433008108e-05,-1.229635675e-03,-4.446183160e-04,-1.051770926e-03,-1.496389242e-03,-7.698632761e-04,-5.782092762e-05,-8.276842037e-04,-2.229282618e-03,1.296184534e-03,-9.330980845e-04,-4.209826359e-05,-4.192934961e-04,-4.613917596e-04,-3.939205072e-04,-3.747500347e-04,-7.686705418e-04
-4,-1.506749592e-03,-3.412311038e-04,-1.847980696e-03,-1.153456872e-03,-1.774713604e-04,-1.330928232e-03,-1.411832584e-03,-1.659180287e-04,-1.577750613e-03,-1.128313210e-03,-1.116449989e-04,-1.239958209e-03,-1.742661798e-03,9.826564252e-05,-1.644396156e-03,-5.087107080e-04,-4.550284706e-05,-5.542135550e-04,-9.362388642e-04,2.886741715e-07,-9.359501900e-04,-1.755428889e-03,5.639320212e-05,-1.699035687e-03,-9.741621543e-04,1.973415437e-04,-7.768206107e-04,-1.295401807e-03,6.964867879e-05,-1.225753129e-03,-2.045498708e-03,1.326271956e-04,-1.912871512e-03,-1.976505427e-03,6.844930982e-04,-1.292012329e-03,-5.523944399e-04,8.456274290e-05,-4.678316970e-04,-6.551710257e-04,2.075692458e-04,-4.476017799e-04,-5.637770994e-04,-4.565354802e-04,-1.020312580e-03,-8.509035217e-04,-1.016417324e-05,-8.610676949e-04,-1.217903167e-03,2.347622929e-04,-9.831408737e-04,-4.536595646e-04,1.790715275e-04,-2.745880372e-04,-4.427204403e-04,1.220210053e-05,-4.305183397e-04,-1.641728337e-03,-1.342006490e-04,-1.775928986e-03,-8.838490076e-04,1.353399141e-04,-7.485090935e-04,-1.217953273e-03,-1.423981107e-04,-1.360351383e-03,-1.611239275e-03,-2.699143726e-04,-1.881153648e-03,-1.188270835e-05,4.027007878e-05,2.838737043e-05,-1.233562261e-03,1.167395623e-04,-1.116822698e-03,-1.224307665e-03,3.976544989e-06,-1.220331120e-03,-1.024059797e-03,-2.691847251e-04,-1.293244522e-03,-2.709976898e-03,4.188043467e-04,-2.291172551e-03,-1.025154638e-03,2.089943332e-04,-8.161603048e-04,-1.204272243e-03,4.100228447e-04,-7.942493987e-04,-1.118015999e-03,-6.160272799e-05,-1.179618727e-03,-5.823960934e-04,-8.875449110e-04,-1.469941004e-03,-7.603202738e-04,-3.731738221e-05,-7.976376560e-04,-2.282273752e-03,1.308864318e-03,-9.734094348e-04,-5.694126601e-05,-3.726873738e-04,-4.296286398e-04,-3.782138918e-04,-4.206435166e-04,-7.988574084e-04
-3.9,-1.533384293e-03,-3.389726386e-04,-1.872356932e-03,-1.135462949e-03,-1.659419865e-04,-1.301404936e-03,-1.368539483e-03,-1.555471347e-04,-1.524086618e-03,-1.124223750e-03,-1.045455148e-04,-1.228769265e-03,-1.683763109e-03,1.076931090e-04,-1.576070000e-03,-4.606953409e-04,-6.293838066e-05,-5.236337216e-04,-8.942463017e-04,5.518303012e-06,-8.887279987e-04,-1.681325094e-03,4.359130829e-05,-1.637733786e-03,-9.015566518e-04,2.055217897e-04,-6.960348621e-04,-1.246746910e-03,6.806779912e-05,-1.178679110e-03,-1.960361188e-03,1.517405910e-04,-1.808620597e-03,-1.914527608e-03,6.919130453e-04,-1.222614563e-03,-5.859926175e-04,1.196964865e-04,-4.662961310e-04,-6.234634934e-04,1.973631180e-04,-4.261003753e-04,-5.648303143e-04,-4.683301258e-04,-1.033160440e-03,-8.241372129e-04,-1.147309277e-05,-8.356103056e-04,-1.196289981e-03,2.236613312e-04,-9.726286494e-04,-4.315343783e-04,1.677142790e-04,-2.638200994e-04,-4.191391515e-04,-2.644104996e-05,-4.455802014e-04,-1.596584319e-03,-1.248728363e-04,-1.721457155e-03,-8.605983049e-04,1.358883781e-04,-7.247099268e-04,-1.140315585e-03,-1.313990459e-04,-1.271714631e-03,-1.576266639e-03,-2.468479493e-04,-1.823114588e-03,-2.579934984e-06,4.022498968e-05,3.764505469e-05,-1.176641339e-03,1.525706149e-04,-1.024070724e-03,-1.162174545e-03,2.115779648e-05,-1.141016748e-03,-1.037755594e-03,-2.391818431e-04,-1.276937437e-03,-2.641479764e-03,4.169334323e-04,-2.224546332e-03,-9.560382642e-04,2.101871810e-04,-7.458510832e-04,-1.108297977e-03,3.809724658e-04,-7.273255112e-04,-1.098524669e-03,-2.835991618e-05,-1.126884585e-03,-7.199034092e-04,-7.150605188e-04,-1.434963928e-03,-7.498581787e-04,-1.677498296e-05,-7.666331616e-04,-2.319104255e-03,1.308566996e-03,-1.010537259e-03,-7.963034586e-05,-3.194416064e-04,-3.990719523e-04,-3.584061353e-04,-4.672727928e-04,-8.256789282e-04
-3.8,-1.557959609e-03,-3.369608747e-04,-1.894920484e-03,-1.113002782e-03,-1.543192699e-04,-1.267322052e-03,-1.319030688e-03,-1.450477259e-04,-1.464078414e-03,-1.114025493e-03,-9.706495015e-05,-1.211090443e-03,-1.617547778e-03,1.166622275e-04,-1.500885551e-03,-4.109969586e-04,-8.047424647e-05,-4.914712051e-04,-8.491116368e-04,1.085140766e-05,-8.382602292e-04,-1.600957569e-03,3.067883175e-05,-1.570278737e-03,-8.253259771e-04,2.126948768e-04,-6.126311003e-04,-1.193799666e-03,6.625371044e-05,-1.127545955e-03,-1.866718144e-03,1.700852281e-04,-1.696632916e-03,-1.840117494e-03,6.936649843e-04,-1.146452510e-03,-6.207156301e-04,1.536041112e-04,-4.671115189e-04,-5.895246093e-04,1.854315015e-04,-4.040931077e-04,-5.671224383e-04,-4.763429055e-04,-1.043465344e-03,-7.951545919e-04,-1.302625975e-05,-8.081808517e-04,-1.174677928e-03,2.130103858e-04,-9.616675419e-04,-4.088764456e-04,1.547197485e-04,-2.541566971e-04,-3.953270873e-04,-6.543392636e-05,-4.607610137e-04,-1.544827798e-03,-1.141468272e-04,-1.658974626e-03,-8.332939620e-04,1.346356861e-04,-6.986582759e-04,-1.058893799e-03,-1.188114554e-04,-1.177705254e-03,-1.533607216e-03,-2.233710788e-04,-1.756978295e-03,5.213632817e-06,3.921247559e-05,4.442610840e-05,-1.113501204e-03,1.872749753e-04,-9.262262288e-04,-1.094017143e-03,3.887869196e-05,-1.055138451e-03,-1.049603719e-03,-2.060873849e-04,-1.255691104e-03,-2.559449560e-03,4.121576464e-04,-2.147291914e-03,-8.829297378e-04,2.103038621e-04,-6.726258757e-04,-1.006665006e-03,3.499267940e-04,-6.567382118e-04,-1.076719013e-03,5.053101636e-06,-1.071665912e-03,-8.551814118e-04,-5.359220356e-04,-1.391103447e-03,-7.387385719e-04,3.818722175e-06,-7.349198497e-04,-2.339289930e-03,1.295581601e-03,-1.043708329e-03,-1.088896265e-04,-2.607720421e-04,-3.696616686e-04,-3.343720520e-04,-5.144205063e-04,-8.487925583e-04
-3.7,-1.580384060e-03,-3.352369177e-04,-1.915620978e-03,-1.086101272e-03,-1.426338804e-04,-1.228735153e-03,-1.263650971e-03,-1.344835037e-04,-1.398134475e-03,-1.097792978e-03,-8.924425566e-05,-1.187037233e-03,-1.544432483e-03,1.251498670e-04,-1.419282616e-03,-3.598285879e-04,-9.798570860e-05,-4.578142965e-04,-8.010086353e-04,1.626703033e-05,-7.847416050e-04,-1.514751524e-03,1.782129101e-05,-1.496930233e-03,-7.457908968e-04,2.188263345e-04,-5.269645623e-04,-1.136694920e-03,6.419166929e-05,-1.072503251e-03,-1.765129959e-03,1.875468658e-04,-1.577583093e-03,-1.753536761e-03,6.893653036e-04,-1.064171457e-03,-6.567459356e-04,1.863548732e-04,-4.703910624e-04,-5.535885486e-04,1.718565189e-04,-3.817320297e-04,-5.706095756e-04,-4.805045109e-04,-1.051114086e-03,-7.640694636e-04,-1.491786111e-05,-7.789873247e-04,-1.153362998e-03,2.029933900e-04,-9.503696082e-04,-3.857292676e-04,1.402034098e-04,-2.455258578e-04,-3.716507424e-04,-1.042697094e-04,-4.759204518e-04,-1.486496776e-03,-1.021715390e-04,-1.588668315e-03,-8.020000733e-04,1.317055067e-04,-6.702945666e-04,-9.741332002e-04,-1.047365763e-04,-1.078869776e-03,-1.483541985e-03,-1.996207134e-04,-1.683162698e-03,1.162204298e-05,3.727022546e-05,4.889226844e-05,-1.044313031e-03,2.204657529e-04,-8.238472786e-04,-1.020180770e-03,5.705222257e-05,-9.631285470e-04,-1.059454694e-03,-1.701645627e-04,-1.229619257e-03,-2.464696826e-03,4.048373254e-04,-2.059859500e-03,-8.062605854e-04,2.094260099e-04,-5.968345755e-04,-9.000159634e-04,3.172861351e-04,-5.827298283e-04,-1.052491980e-03,3.830431825e-05,-1.014187662e-03,-9.862363486e-04,-3.519097949e-04,-1.338146143e-03,-7.271899405e-04,2.447031932e-05,-7.027196212e-04,-2.342590164e-03,1.270439615e-03,-1.072150549e-03,-1.433140485e-04,-1.979814788e-04,-3.412955273e-04,-3.060861910e-04,-5.618106807e-04,-8.678968718e-04
-3.6,-1.600530083e-03,-3.338282197e-04,-1.934358303e-03,-1.054809908e-03,-1.309120733e-04,-1.185721981e-03,-1.202774897e-03,-1.239165213e-04,-1.326691418e-03,-1.075643873e-03,-8.113186853e-05,-1.156775742e-03,-1.464864866e-03,1.331299145e-04,-1.331734951e-03,-3.073988782e-04,-1.153533173e-04,-4.227521955e-04,-7.501318000e-04,2.173912072e-05,-7.283926792e-04,-1.423155621e-03,5.186325981e-06,-1.417969295e-03,-6.632673166e-04,2.238890879e-04,-4.393782287e-04,-1.075574519e-03,6.186871891e-05,-1.013705800e-03,-1.656195510e-03,2.040143595e-04,-1.452181150e-03,-1.655179996e-03,6.786531674e-04,-9.765268281e-04,-6.942331851e-04,2.180280758e-04,-4.762051093e-04,-5.158892864e-04,1.567462009e-04,-3.591430854e-04,-5.752128130e-04,-4.807730511e-04,-1.055985864e-03,-7.310060503e-04,-1.722901038e-05,-7.482350607e-04,-1.132536974e-03,1.937392334e-04,-9.387977401e-04,-3.621277757e-04,1.243009920e-04,-2.378267837e-04,-3.484784039e-04,-1.424221997e-04,-4.909006036e-04,-1.421630575e-03,-8.915178117e-05,-1.510782356e-03,-7.668131920e-04,1.272402689e-04,-6.395729231e-04,-8.864843528e-04,-8.930591786e-05,-9.757902707e-04,-1.426402131e-03,-1.757328039e-04,-1.602134935e-03,1.679953644e-05,3.444597568e-05,5.124551212e-05,-9.693286448e-04,2.517991324e-04,-7.175295125e-04,-9.410548811e-04,7.558105789e-05,-8.654738232e-04,-1.067143567e-03,-1.317193159e-04,-1.198862883e-03,-2.358154666e-03,3.953539081e-04,-1.962800758e-03,-7.264797599e-04,2.076275576e-04,-5.188522023e-04,-7.890445884e-04,2.834731244e-04,-5.055714640e-04,-1.025753244e-03,7.108590770e-05,-9.546673362e-04,-1.111103453e-03,-1.649298991e-04,-1.276033352e-03,-7.153925985e-04,4.516378859e-05,-6.702288099e-04,-2.328995655e-03,1.233893080e-03,-1.095102576e-03,-1.814235334e-04,-1.324105513e-04,-3.138340847e-04,-2.736197967e-04,-6.091048630e-04,-8.827246597e-04
-3.5,-1.618234435e-03,-3.327474024e-04,-1.950981838e-03,-1.019206225e-03,-1.191763667e-04,-1.138382592e-03,-1.136804887e-03,-1.134066392e-04,-1.250211527e-03,-1.047735641e-03,-7.278167668e-05,-1.120517317e-03,-1.379320375e-03,1.405731108e-04,-1.238747264e-03,-2.539116070e-04,-1.324639618e-04,-3.863755688e-04,-6.966947729e-04,2.723686195e-05,-6.694579110e-04,-1.326640040e-03,-7.059794881e-06,-1.333699835e-03,-5.780646905e-04,2.278634483e-04,-3.502012422e-04,-1.010587369e-03,5.927440144e-05,-9.513129676e-04,-1.540548087e-03,2.193808826e-04,-1.321167204e-03,-1.545587057e-03,6.612094284e-04,-8.843776289e-04,-7.332811534e-04,2.486982825e-04,-4.845828709e-04,-4.766568764e-04,1.402328554e-04,-3.364240209e-04,-5.808161943e-04,-4.771365076e-04,-1.057952702e-03,-6.960981532e-04,-2.002738175e-05,-7.161255349e-04,-1.112281770e-03,1.853107041e-04,-9.269710660e-04,-3.381011960e-04,1.071668051e-04,-2.309343909e-04,-3.261679031e-04,-1.793566604e-04,-5.055245636e-04,-1.350275805e-03,-7.534133896e-05,-1.425617144e-03,-7.278622072e-04,1.213977103e-04,-6.064644968e-04,-7.964010270e-04,-7.267975362e-05,-8.690807806e-04,-1.362568023e-03,-1.518412498e-04,-1.514409273e-03,2.092235524e-05,3.079558274e-05,5.171793798e-05,-8.888788632e-04,2.809762398e-04,-6.079026234e-04,-8.570723214e-04,9.435905206e-05,-7.627132693e-04,-1.072492101e-03,-9.109907358e-05,-1.163591174e-03,-2.240869029e-03,3.840984776e-04,-1.856770551e-03,-6.440526006e-04,2.049736287e-04,-4.390789719e-04,-6.744832716e-04,2.489214047e-04,-4.255618669e-04,-9.964405632e-04,1.031226065e-04,-8.933179567e-04,-1.227906896e-03,2.304151405e-05,-1.204865382e-03,-7.034729907e-04,6.585095924e-05,-6.376220315e-04,-2.298710866e-03,1.186881142e-03,-1.111829724e-03,-2.217209026e-04,-6.538331379e-05,-2.871042164e-04,-2.371353927e-04,-6.559006716e-04,-8.930360642e-04
