Time,S1D1HbO,S1D1HbR,S1D1HbT,S2D2HbO,S2D2HbR,S2D2HbT,S3D3HbO,S3D3HbR,S3D3HbT,S4D4HbO,S4D4HbR,S4D4HbT,S5D5HbO,S5D5HbR,S5D5HbT,S6D6HbO,S6D6HbR,S6D6HbT,S7D7HbO,S7D7HbR,S7D7HbT,S8D8HbO,S8D8HbR,S8D8HbT,S9D9HbO,S9D9HbR,S9D9HbT,S10D10HbO,S10D10HbR,S10D10HbT,S11D11HbO,S11D11HbR,S11D11HbT,S12D12HbO,S12D12HbR,S12D12HbT,S13D13HbO,S13D13HbR,S13D13HbT,S14D14HbO,S14D14HbR,S14D14HbT,S15D15HbO,S15D15HbR,S15D15HbT,S16D16HbO,S16D16HbR,S16D16HbT,S17D17HbO,S17D17HbR,S17D17HbT,S18D18HbO,S18D18HbR,S18D18HbT,S19D19HbO,S19D19HbR,S19D19HbT,S20D20HbO,S20D20HbR,S20D20HbT,S21D21HbO,S21D21HbR,S21D21HbT,S22D22HbO,S22D22HbR,S22D22HbT,S23D23HbO,S23D23HbR,S23D23HbT,S24D24HbO,S24D24HbR,S24D24HbT,S25D25HbO,S25D25HbR,S25D25HbT,S26D26HbO,S26D26HbR,S26D26HbT,S27D27HbO,S27D27HbR,S27D27HbT,S28D28HbO,S28D28HbR,S28D28HbT,S29D29HbO,S29D29HbR,S29D29HbT,S30D30HbO,S30D30HbR,S30D30HbT,S31D31HbO,S31D31HbR,S31D31HbT,S32D32HbO,S32D32HbR,S32D32HbT,S33D33HbO,S33D33HbR,S33D33HbT,S34D34HbO,S34D34HbR,S34D34HbT,S35D35HbO,S35D35HbR,S35D35HbT,S36D36HbO,S36D36HbR,S36D36HbT,
-10,8.039584341e-04,5.172536444e-06,8.091309706e-04,1.794575734e-03,2.132356530e-04,2.007811387e-03,2.143121665e-03,3.345329575e-04,2.477654623e-03,1.364361017e-03,5.403286025e-05,1.418393878e-03,1.862114594e-03,2.580276183e-04,2.120142212e-03,2.211308494e-03,9.678159502e-05,2.308090089e-03,2.097655435e-03,2.703814128e-04,2.368036848e-03,1.761305891e-03,-3.815961640e-05,1.723146275e-03,3.011105017e-03,4.807072872e-04,3.491812305e-03,1.425778276e-03,-1.021713829e-04,1.323606894e-03,2.241970947e-03,2.461770955e-04,2.488148042e-03,1.049624207e-03,7.114675783e-05,1.120770965e-03,2.277027599e-04,7.169079978e-05,2.993935597e-04,9.976192442e-04,1.836256141e-04,1.181244858e-03,3.984621658e-04,1.106731171e-04,5.091352829e-04,6.432768239e-04,-3.612765928e-05,6.071491646e-04,1.026089313e-03,-2.245484553e-04,8.015408581e-04,8.958308713e-04,-1.561784685e-04,7.396524027e-04,1.157842867e-03,-1.798803274e-05,1.139854834e-03,1.615377844e-03,-9.029122815e-05,1.525086616e-03,1.443289439e-03,-5.424822152e-05,1.389041217e-03,1.175489933e-03,3.019471966e-05,1.205684653e-03,1.852788350e-03,1.515761508e-04,2.004364500e-03,1.087774170e-03,-2.006901083e-05,1.067705159e-03,9.755362731e-04,-7.668313392e-05,8.988531392e-04,6.289919428e-04,1.211880571e-04,7.501799999e-04,8.389684258e-04,-1.859149459e-06,8.371092764e-04,7.128185787e-04,2.821973854e-04,9.950159641e-04,1.148244502e-03,4.999633154e-05,1.198240834e-03,1.736740588e-03,1.807002405e-04,1.917440828e-03,1.017865637e-03,6.587373255e-05,1.083739370e-03,1.634317524e-03,1.229351308e-05,1.646611037e-03,7.908464428e-04,-1.242069055e-04,6.666395373e-04,2.398231780e-04,-5.799756290e-05,1.818256151e-04,9.286595016e-04,-7.626832363e-05,8.523911780e-04,1.428237029e-03,-5.670126247e-05,1.371535767e-03
-9.9,8.745927989e-04,2.797152556e-05,9.025643245e-04,1.809896395e-03,2.030670460e-04,2.012963441e-03,2.126983790e-03,3.274563537e-04,2.454440144e-03,1.427346054e-03,5.900209374e-05,1.486348148e-03,1.856935495e-03,2.495544663e-04,2.106489961e-03,2.213159491e-03,1.036041893e-04,2.316763680e-03,2.121688987e-03,2.770601759e-04,2.398749163e-03,1.763554819e-03,-3.632164460e-05,1.727233174e-03,3.005525503e-03,4.722930169e-04,3.477818520e-03,1.444370501e-03,-9.700127032e-05,1.347369231e-03,2.242747324e-03,2.372200924e-04,2.479967417e-03,1.072738232e-03,7.297491377e-05,1.145713145e-03,2.721134471e-04,6.529608918e-05,3.374095363e-04,1.012993713e-03,1.813650277e-04,1.194358741e-03,4.330292843e-04,1.034653889e-04,5.364946732e-04,6.844103957e-04,-3.394716657e-05,6.504632291e-04,1.092795117e-03,-2.100279793e-04,8.827671380e-04,9.580464667e-04,-1.438371909e-04,8.142092759e-04,1.218311496e-03,-1.690483832e-05,1.201406657e-03,1.611200820e-03,-8.791687828e-05,1.523283942e-03,1.459422316e-03,-5.168680470e-05,1.407735511e-03,1.183527714e-03,2.895604851e-05,1.212483762e-03,1.786192552e-03,1.352648381e-04,1.921457390e-03,1.165610867e-03,-2.161489215e-06,1.163449378e-03,9.871327248e-04,-7.785192087e-05,9.092808040e-04,6.432402826e-04,1.157133300e-04,7.589536126e-04,8.564391487e-04,-5.364120724e-06,8.510750280e-04,7.345362713e-04,2.722318286e-04,1.006768100e-03,1.194582502e-03,5.076788538e-05,1.245350387e-03,1.793705725e-03,1.763810392e-04,1.970086764e-03,1.079143022e-03,7.077890198e-05,1.149921924e-03,1.707392313e-03,1.734609460e-05,1.724738408e-03,8.603403923e-04,-1.234471228e-04,7.368932695e-04,3.157411395e-04,-5.516214576e-05,2.605789937e-04,1.026019451e-03,-8.625038040e-05,9.397690709e-04,1.523785967e-03,-5.130159922e-05,1.472484368e-03
-9.8,9.467367452e-04,5.165852841e-05,9.983952736e-04,1.824852203e-03,1.927657427e-04,2.017617946e-03,2.112309933e-03,3.211325133e-04,2.433442446e-03,1.490780346e-03,6.448282741e-05,1.555263174e-03,1.850035533e-03,2.408881576e-04,2.090923690e-03,2.214055666e-03,1.105537296e-04,2.324609396e-03,2.145403029e-03,2.838225880e-04,2.429225617e-03,1.765808743e-03,-3.448448949e-05,1.731324254e-03,2.996253765e-03,4.633005800e-04,3.459554345e-03,1.462859170e-03,-9.139368682e-05,1.371465483e-03,2.241802936e-03,2.281819104e-04,2.469984846e-03,1.095217182e-03,7.404459262e-05,1.169261774e-03,3.186135162e-04,5.858926582e-05,3.772027820e-04,1.027208707e-03,1.788729583e-04,1.206081665e-03,4.673396413e-04,9.661864999e-05,5.639582913e-04,7.250511662e-04,-3.190745965e-05,6.931437065e-04,1.155809171e-03,-1.932955131e-04,9.625136580e-04,1.019373882e-03,-1.313515026e-04,8.880223793e-04,1.277900328e-03,-1.581122689e-05,1.262089101e-03,1.607445795e-03,-8.509393745e-05,1.522351858e-03,1.477367502e-03,-4.846870603e-05,1.428898796e-03,1.192184669e-03,2.772149969e-05,1.219906168e-03,1.719209867e-03,1.192401920e-04,1.838450059e-03,1.244182600e-03,1.593311569e-05,1.260115716e-03,9.984161013e-04,-7.888275883e-05,9.195333425e-04,6.573675549e-04,1.101585433e-04,7.675260982e-04,8.746271613e-04,-8.965322188e-06,8.656618391e-04,7.561452184e-04,2.621500183e-04,1.018295237e-03,1.240439435e-03,5.134557162e-05,1.291785006e-03,1.849153230e-03,1.715838007e-04,2.020737031e-03,1.140344113e-03,7.557928599e-05,1.215923399e-03,1.779963801e-03,2.225314118e-05,1.802216942e-03,9.299733056e-04,-1.227285133e-04,8.072447922e-04,3.928872592e-04,-5.248106703e-05,3.404061921e-04,1.123937280e-03,-9.663583289e-05,1.027301447e-03,1.618407089e-03,-4.548726611e-05,1.572919823e-03
-9.7,1.019236079e-03,7.572303815e-05,1.094959117e-03,1.839316075e-03,1.823918229e-04,2.021707898e-03,2.099134821e-03,3.155073462e-04,2.414642167e-03,1.553959643e-03,7.032335375e-05,1.624282997e-03,1.841724468e-03,2.321189869e-04,2.073843455e-03,2.213816823e-03,1.175562039e-04,2.331373027e-03,2.168572767e-03,2.905792558e-04,2.459152023e-03,1.768049350e-03,-3.266285873e-05,1.735386492e-03,2.983622883e-03,4.538099240e-04,3.437432807e-03,1.481091476e-03,-8.541399401e-05,1.395677482e-03,2.239189082e-03,2.190885872e-04,2.458277669e-03,1.117241876e-03,7.429798141e-05,1.191539857e-03,3.670970320e-04,5.174251543e-05,4.188395474e-04,1.040522294e-03,1.761735226e-04,1.216695817e-03,5.013530168e-04,9.013391960e-05,5.914869364e-04,7.652779072e-04,-3.003146876e-05,7.352464384e-04,1.215353962e-03,-1.744719432e-04,1.040882019e-03,1.079782290e-03,-1.187657392e-04,9.610165507e-04,1.336629975e-03,-1.471452765e-05,1.321915448e-03,1.604033574e-03,-8.186214444e-05,1.522171430e-03,1.496760209e-03,-4.468138261e-05,1.452078826e-03,1.201323251e-03,2.648862789e-05,1.227811878e-03,1.652556758e-03,1.036458542e-04,1.756202612e-03,1.322514095e-03,3.394772211e-05,1.356461817e-03,1.009587404e-03,-7.976657340e-05,9.298208307e-04,6.714285701e-04,1.045350265e-04,7.759635965e-04,8.936597743e-04,-1.266367742e-05,8.809960969e-04,7.776899054e-04,2.519675672e-04,1.029657473e-03,1.285887929e-03,5.175538627e-05,1.337643316e-03,1.903097541e-03,1.663093046e-04,2.069406846e-03,1.201548747e-03,8.021107506e-05,1.281759822e-03,1.852075222e-03,2.694221924e-05,1.879017441e-03,9.997906843e-04,-1.220688877e-04,8.777217965e-04,4.713385768e-04,-4.995247059e-05,4.213861062e-04,1.222218532e-03,-1.072629933e-04,1.114955538e-03,1.712055239e-03,-3.931370138e-05,1.672741537e-03
-9.6,1.090984184e-03,9.968043886e-05,1.190664623e-03,1.853147708e-03,1.720007837e-04,2.025148491e-03,2.087457902e-03,3.105202177e-04,2.397978120e-03,1.616205415e-03,7.637506153e-05,1.692580477e-03,1.832294969e-03,2.233311316e-04,2.055626101e-03,2.212280114e-03,1.245380980e-04,2.336818212e-03,2.190989977e-03,2.972433714e-04,2.488233348e-03,1.770265034e-03,-3.087089899e-05,1.739394136e-03,2.967951012e-03,4.438969160e-04,3.411847928e-03,1.498928394e-03,-7.912764830e-05,1.419800746e-03,2.234960563e-03,2.099666832e-04,2.444927246e-03,1.138987924e-03,7.368517267e-05,1.212673096e-03,4.174342721e-04,4.492631036e-05,4.623605824e-04,1.053189131e-03,1.732890588e-04,1.226478190e-03,5.350427685e-04,8.401007685e-05,6.190528453e-04,8.051814286e-04,-2.833644794e-05,7.768449807e-04,1.271706334e-03,-1.537191546e-04,1.117987179e-03,1.139246400e-03,-1.061226536e-04,1.033123747e-03,1.394516830e-03,-1.362108612e-05,1.380895744e-03,1.600891145e-03,-7.826168073e-05,1.522629464e-03,1.517226115e-03,-4.041372264e-05,1.476812392e-03,1.210800407e-03,2.525479747e-05,1.236055204e-03,1.586924892e-03,8.861960506e-05,1.675544497e-03,1.399630020e-03,5.161865478e-05,1.451248675e-03,1.020850171e-03,-8.049252366e-05,9.403576477e-04,6.854832804e-04,9.885295926e-05,7.843362397e-04,9.136685504e-04,-1.645627851e-05,8.972122719e-04,7.992275026e-04,2.416988335e-04,1.040926336e-03,1.331009371e-03,5.202577533e-05,1.383035147e-03,1.955556677e-03,1.605643853e-04,2.116121062e-03,1.262845234e-03,8.461629522e-05,1.347461529e-03,1.923753663e-03,3.134518097e-05,1.955098844e-03,1.069838593e-03,-1.214837599e-04,9.483548331e-04,5.511648507e-04,-4.757226472e-05,5.035925860e-04,1.320665012e-03,-1.179641821e-04,1.202700830e-03,1.804688483e-03,-3.283855120e-05,1.771849931e-03
-9.5,1.160937542e-03,1.230801878e-04,1.284017730e-03,1.866193053e-03,1.616429586e-04,2.027836011e-03,2.077241751e-03,3.061056934e-04,2.383347444e-03,1.676872821e-03,8.249501419e-05,1.759367835e-03,1.822015520e-03,2.146013325e-04,2.036616853e-03,2.209301245e-03,1.314274826e-04,2.340728728e-03,2.212463405e-03,3.037317019e-04,2.516195107e-03,1.772449007e-03,-2.912193630e-05,1.743327070e-03,2.949532240e-03,4.336318174e-04,3.383164057e-03,1.516245023e-03,-7.259912667e-05,1.443645896e-03,2.229171642e-03,2.008428849e-04,2.430014527e-03,1.160619350e-03,7.216568567e-05,1.232785036e-03,4.694767889e-04,3.830356511e-05,5.077803540e-04,1.065453016e-03,1.702398286e-04,1.235692845e-03,5.683937738e-04,7.824370716e-05,6.466374810e-04,8.448603562e-04,-2.683398120e-05,8.180263750e-04,1.325191292e-03,-1.312386062e-04,1.193952686e-03,1.197743471e-03,-9.346253778e-05,1.104280933e-03,1.451568100e-03,-1.253539838e-05,1.439032701e-03,1.597951674e-03,-7.433232383e-05,1.523619350e-03,1.538387133e-03,-3.575416820e-05,1.502632965e-03,1.220468228e-03,2.401714337e-05,1.244485371e-03,1.522966371e-03,7.429129936e-05,1.597257670e-03,1.474570242e-03,6.869123595e-05,1.543261477e-03,1.032404194e-03,-8.104802979e-05,9.513561640e-04,6.995933433e-04,9.312148210e-05,7.927148254e-04,9.347846456e-04,-2.033651883e-05,9.144481268e-04,8.208248359e-04,2.313569480e-04,1.052181784e-03,1.375889901e-03,5.218572177e-05,1.428075623e-03,2.006548426e-03,1.543614329e-04,2.160909859e-03,1.324324871e-03,8.874390179e-05,1.413068773e-03,1.995004726e-03,3.539929073e-05,2.030404017e-03,1.140157312e-03,-1.209841733e-04,1.019173138e-03,6.324239530e-04,-4.533506591e-05,5.870888870e-04,1.419073087e-03,-1.285669988e-04,1.290506088e-03,1.896262361e-03,-2.612008328e-05,1.870142278e-03
-9.4,1.228127731e-03,1.455123373e-04,1.373640068e-03,1.878284011e-03,1.513631923e-04,2.029647203e-03,2.068411120e-03,3.021952192e-04,2.370606339e-03,1.735356877e-03,8.854816555e-05,1.823905043e-03,1.811124585e-03,2.059979723e-04,2.017122558e-03,2.204755278e-03,1.381549795e-04,2.342910258e-03,2.232818643e-03,3.099654055e-04,2.542784048e-03,1.774597495e-03,-2.742824213e-05,1.747169253e-03,2.928629682e-03,4.230782041e-04,3.351707886e-03,1.532930126e-03,-6.589108380e-05,1.467039042e-03,2.221872279e-03,1.917436233e-04,2.413615902e-03,1.182283874e-03,6.970992848e-05,1.251993803e-03,5.230654356e-04,3.202292515e-05,5.550883607e-04,1.077541276e-03,1.670438773e-04,1.244585153e-03,6.014011395e-04,7.282907847e-05,6.742302179e-04,8.844171458e-04,-2.553008607e-05,8.588870597e-04,1.376174805e-03,-1.072681366e-04,1.268906669e-03,1.255250648e-03,-8.082297929e-05,1.174427669e-03,1.507777142e-03,-1.145952828e-05,1.496317613e-03,1.595154482e-03,-7.011287540e-05,1.525041606e-03,1.559866342e-03,-3.078929605e-05,1.529077046e-03,1.230174761e-03,2.277259219e-05,1.252947353e-03,1.461280642e-03,6.078099360e-05,1.522061635e-03,1.546403880e-03,8.492479911e-05,1.631328679e-03,1.044439718e-03,-8.141890667e-05,9.630208110e-04,7.138189428e-04,8.734875959e-05,8.011677024e-04,9.571346734e-04,-2.429422371e-05,9.328404497e-04,8.425554775e-04,2.209539766e-04,1.063509454e-03,1.420617777e-03,5.226295152e-05,1.472880729e-03,2.056087179e-03,1.477177723e-04,2.203804952e-03,1.386077084e-03,9.255053288e-05,1.478627617e-03,2.065808628e-03,3.904796337e-05,2.104856592e-03,1.210775292e-03,-1.205744355e-04,1.090200856e-03,7.151575582e-04,-4.323505708e-05,6.719225011e-04,1.517232567e-03,-1.388962694e-04,1.378336298e-03,1.986724485e-03,-1.921593820e-05,1.967508547e-03
-9.3,1.291670596e-03,1.666124943e-04,1.458283090e-03,1.889239071e-03,1.412008283e-04,2.030439899e-03,2.060853239e-03,2.987187273e-04,2.359571966e-03,1.791097992e-03,9.440926895e-05,1.885507261e-03,1.799826725e-03,1.975805550e-04,1.997407279e-03,2.198537953e-03,1.446545900e-04,2.343192543e-03,2.251898058e-03,3.158706810e-04,2.567768739e-03,1.776708544e-03,-2.580088282e-05,1.750907661e-03,2.905471334e-03,4.122922749e-04,3.317763609e-03,1.548885257e-03,-5.906383236e-05,1.489821425e-03,2.213105056e-03,1.826946424e-04,2.395799698e-03,1.204110745e-03,6.630075851e-05,1.270411504e-03,5.780407447e-04,2.621263347e-05,6.042533782e-04,1.089661957e-03,1.637170087e-04,1.253378965e-03,6.340708341e-04,6.775824569e-05,7.018290798e-04,9.239553825e-04,-2.442523316e-05,8.995301493e-04,1.425056264e-03,-8.207701605e-05,1.342979248e-03,1.311743348e-03,-6.823915944e-05,1.243504189e-03,1.563119917e-03,-1.039277145e-05,1.552727145e-03,1.592445128e-03,-6.564088732e-05,1.526804240e-03,1.581292083e-03,-2.560287295e-05,1.555689210e-03,1.239765211e-03,2.151797323e-05,1.261283184e-03,1.402403703e-03,4.819735542e-05,1.450601058e-03,1.614241715e-03,1.000969153e-04,1.714338631e-03,1.057132853e-03,-8.158966117e-05,9.755431916e-04,7.282166152e-04,8.154203096e-05,8.097586461e-04,9.808376869e-04,-2.831539309e-05,9.525222938e-04,8.644980482e-04,2.105012314e-04,1.074999280e-03,1.465282125e-03,5.228267917e-05,1.517564804e-03,2.104181723e-03,1.406550892e-04,2.244836812e-03,1.448186006e-03,9.600117807e-05,1.544187184e-03,2.136118028e-03,4.224144315e-05,2.178359472e-03,1.281705325e-03,-1.202506309e-04,1.161454694e-03,7.993881095e-04,-4.126659148e-05,7.581215180e-04,1.614926940e-03,-1.487766876e-04,1.466150253e-03,2.076010307e-03,-1.218232758e-05,2.063827979e-03
-9.2,1.350773040e-03,1.860653161e-04,1.536838356e-03,1.898865081e-03,1.311899795e-04,2.030055061e-03,2.054419467e-03,2.956060752e-04,2.350025542e-03,1.843587159e-03,9.996448459e-05,1.943551644e-03,1.788290700e-03,1.893994855e-04,1.977690185e-03,2.190567506e-03,1.508643624e-04,2.341431868e-03,2.269560895e-03,3.213792339e-04,2.590940129e-03,1.778781467e-03,-2.424969389e-05,1.754531773e-03,2.880248649e-03,4.013225466e-04,3.281571195e-03,1.564023408e-03,-5.217513716e-05,1.511848271e-03,2.202902674e-03,1.737205020e-04,2.376623176e-03,1.226210910e-03,6.193505561e-05,1.288145966e-03,6.342530175e-04,2.097633394e-05,6.552293514e-04,1.102003195e-03,1.602728802e-04,1.262276075e-03,6.664216919e-04,6.302125250e-05,7.294429444e-04,9.635785399e-04,-2.351426997e-05,9.400642699e-04,1.472260868e-03,-5.595972763e-05,1.416301141e-03,1.367194717e-03,-5.574433505e-05,1.311450382e-03,1.617552819e-03,-9.331484895e-06,1.608221334e-03,1.589775107e-03,-6.095261434e-05,1.528822492e-03,1.602300838e-03,-2.027525993e-05,1.582025578e-03,1.249083302e-03,2.025027825e-05,1.269333580e-03,1.346799528e-03,3.663634886e-05,1.383435877e-03,1.677246443e-03,1.140067218e-04,1.791253165e-03,1.070642510e-03,-8.154403724e-05,9.890984727e-04,7.428382304e-04,7.570769223e-05,8.185459227e-04,1.006003357e-03,-3.238157737e-05,9.736217796e-04,8.867360207e-04,2.000096114e-04,1.086745632e-03,1.509972068e-03,5.226696564e-05,1.562239033e-03,2.150833539e-03,1.331990375e-04,2.284032576e-03,1.510728165e-03,9.906993730e-05,1.609798102e-03,2.205857198e-03,4.493767107e-05,2.250794869e-03,1.352943427e-03,-1.200003232e-04,1.232943104e-03,8.851172078e-04,-3.942449121e-05,8.456927166e-04,1.711934286e-03,-1.580354745e-04,1.553898811e-03,2.164040182e-03,-5.073638309e-06,2.158966543e-03
-9.1,1.404737376e-03,2.036065828e-04,1.608343959e-03,1.906959617e-03,1.213599338e-04,2.028319551e-03,2.048927770e-03,2.927882167e-04,2.341715987e-03,1.892370009e-03,1.051126490e-04,1.997482658e-03,1.776648815e-03,1.814960046e-04,1.958144820e-03,2.180785987e-03,1.567269123e-04,2.337512899e-03,2.285683046e-03,3.264285629e-04,2.612111609e-03,1.780816438e-03,-2.278333566e-05,1.758033102e-03,2.853117138e-03,3.902099862e-04,3.243327124e-03,1.578266784e-03,-4.528022177e-05,1.532986562e-03,2.191285492e-03,1.648440579e-04,2.356129550e-03,1.248678040e-03,5.662504363e-05,1.305303083e-03,6.915687805e-04,1.639154614e-05,7.079603267e-04,1.114732905e-03,1.567232775e-04,1.271456183e-03,6.984867597e-04,5.860644196e-05,7.570932016e-04,1.003389120e-03,-2.278635755e-05,9.806027627e-04,1.518231930e-03,-2.922941079e-05,1.489002520e-03,1.421575548e-03,-4.337022378e-05,1.378205325e-03,1.671011441e-03,-8.269071272e-06,1.662742370e-03,1.587100412e-03,-5.608313539e-05,1.531017277e-03,1.622538422e-03,-1.488307709e-05,1.607655345e-03,1.257972316e-03,1.896705080e-05,1.276939367e-03,1.294853300e-03,2.618012316e-05,1.321033423e-03,1.734640385e-03,1.264773052e-04,1.861117690e-03,1.085108512e-03,-8.126577859e-05,1.003842733e-03,7.577305238e-04,6.985140933e-05,8.275819331e-04,1.032730570e-03,-3.646901435e-05,9.962615557e-04,9.093580285e-04,1.894898723e-04,1.098847901e-03,1.554774976e-03,5.223448502e-05,1.607009461e-03,2.196034854e-03,1.253789644e-04,2.321413818e-03,1.573770246e-03,1.017408071e-04,1.675511053e-03,2.274921802e-03,4.710332894e-05,2.322025131e-03,1.424469064e-03,-1.198031592e-04,1.304665905e-03,9.723243433e-04,-3.770394778e-05,9.346203956e-04,1.808027547e-03,-1.665046160e-04,1.641522931e-03,2.250717023e-03,2.057714432e-06,2.252774738e-03
-9,1.452962938e-03,2.190239008e-04,1.671986839e-03,1.913313113e-03,1.117355432e-04,2.025048656e-03,2.044165196e-03,2.901980880e-04,2.334363284e-03,1.937048494e-03,1.097661705e-04,2.046814665e-03,1.764996514e-03,1.739022031e-04,1.938898717e-03,2.169158945e-03,1.621898262e-04,2.331348771e-03,2.300155884e-03,3.309620932e-04,2.631117977e-03,1.782813595e-03,-2.140933632e-05,1.761404259e-03,2.824198004e-03,3.789885410e-04,3.203186545e-03,1.591543546e-03,-3.843187197e-05,1.553111674e-03,2.178258713e-03,1.560859733e-04,2.334344686e-03,1.271588477e-03,5.039940406e-05,1.321987881e-03,7.498717996e-04,1.251084934e-05,7.623826490e-04,1.127997236e-03,1.530785586e-04,1.281075794e-03,7.303122662e-04,5.450086121e-05,7.848131274e-04,1.043486723e-03,-2.222505371e-05,1.021261669e-03,1.563422705e-03,-2.211682038e-06,1.561211023e-03,1.474853869e-03,-3.114721592e-05,1.443706653e-03,1.723409565e-03,-7.196150249e-06,1.716213415e-03,1.584378832e-03,-5.106664578e-05,1.533312186e-03,1.641659641e-03,-9.499103205e-06,1.632160538e-03,1.266275532e-03,1.766678156e-05,1.283942314e-03,1.246866074e-03,1.689604398e-05,1.263762118e-03,1.785710757e-03,1.373572004e-04,1.923067957e-03,1.100650170e-03,-8.073952407e-05,1.019910646e-03,7.729342988e-04,6.397826391e-05,8.369125627e-04,1.061105357e-03,-4.054748779e-05,1.020557870e-03,9.324572752e-04,1.789528312e-04,1.111410106e-03,1.599773231e-03,5.220054163e-05,1.651973772e-03,2.239766033e-03,1.172275929e-04,2.356993626e-03,1.637365977e-03,1.040082386e-04,1.741374216e-03,2.343178629e-03,4.871497930e-05,2.391893609e-03,1.496244911e-03,-1.196319534e-04,1.376612958e-03,1.060964778e-03,-3.609999443e-05,1.024864784e-03,1.902973444e-03,-1.740230014e-04,1.728950443e-03,2.335923746e-03,9.161359985e-06,2.345085106e-03
-8.9,1.494944809e-03,2.321561857e-04,1.727100994e-03,1.917710303e-03,1.023375512e-04,2.020047854e-03,2.039889888e-03,2.877712641e-04,2.327661152e-03,1.977279813e-03,1.138515439e-04,2.091131357e-03,1.753391765e-03,1.666411456e-04,1.920032910e-03,2.155673216e-03,1.672059471e-04,2.322879163e-03,2.312883973e-03,3.349291793e-04,2.647813153e-03,1.784771443e-03,-2.013408145e-05,1.764637361e-03,2.793579921e-03,3.676858784e-04,3.161265799e-03,1.603783990e-03,-3.168054832e-05,1.572103442e-03,2.163809367e-03,1.474642726e-04,2.311273640e-03,1.294999308e-03,4.330433166e-05,1.338303639e-03,8.090598629e-04,9.364835302e-06,8.184246982e-04,1.141917733e-03,1.493481420e-04,1.291265875e-03,7.619542333e-04,5.069064248e-05,8.126448758e-04,1.083964523e-03,-2.180865773e-05,1.062155865e-03,1.608286903e-03,2.476113304e-05,1.633048036e-03,1.526993716e-03,-1.910441107e-05,1.507889305e-03,1.774637924e-03,-6.100858123e-06,1.768537066e-03,1.581566594e-03,-4.593688161e-05,1.535629712e-03,1.659327269e-03,-4.192314649e-06,1.655134955e-03,1.273836143e-03,1.634919740e-05,1.290185340e-03,1.203050736e-03,8.835878556e-06,1.211886615e-03,1.829813173e-03,1.465211973e-04,1.976334370e-03,1.117364845e-03,-7.995181903e-05,1.037413026e-03,7.884828430e-04,5.809298404e-05,8.465758271e-04,1.091197700e-03,-4.457892008e-05,1.046618780e-03,9.561294037e-04,1.684095596e-04,1.124538963e-03,1.645040046e-03,5.217728456e-05,1.697217330e-03,2.281992416e-03,1.087806428e-04,2.390773059e-03,1.701552076e-03,1.058772795e-04,1.807429355e-03,2.410464941e-03,4.976033979e-05,2.460225281e-03,1.568215463e-03,-1.194540533e-04,1.448761410e-03,1.150966508e-03,-3.460673289e-05,1.116359775e-03,1.996530328e-03,-1.804390778e-04,1.816091250e-03,2.419520328e-03,1.618911218e-05,2.435709440e-03
-8.8,1.530270074e-03,2.428921216e-04,1.773162196e-03,1.919931098e-03,9.318290934e-05,2.013114007e-03,2.035832803e-03,2.854464155e-04,2.321279219e-03,2.012773233e-03,1.173094994e-04,2.130082733e-03,1.741854469e-03,1.597271545e-04,1.901581624e-03,2.140333508e-03,1.717335184e-04,2.312067026e-03,2.323782103e-03,3.382849785e-04,2.662067082e-03,1.786684856e-03,-1.896280308e-05,1.767722052e-03,2.761320509e-03,3.563241011e-04,3.117644610e-03,1.614917053e-03,-2.507443918e-05,1.589842614e-03,2.147903682e-03,1.389939419e-04,2.286897624e-03,1.318945703e-03,3.540425644e-05,1.354349960e-03,8.690407085e-04,6.965181903e-06,8.760058904e-04,1.156588451e-03,1.455408994e-04,1.302129350e-03,7.934743373e-04,4.716123043e-05,8.406355678e-04,1.124904874e-03,-2.151086342e-05,1.103394010e-03,1.653267439e-03,5.135553885e-05,1.704622978e-03,1.577953305e-03,-7.269504853e-06,1.570683800e-03,1.824562839e-03,-4.969119917e-06,1.819593719e-03,1.578615315e-03,-4.072750378e-05,1.537887811e-03,1.675211425e-03,9.721370945e-07,1.676183562e-03,1.280497027e-03,1.501545571e-05,1.295512483e-03,1.163529389e-03,2.035191175e-06,1.165564580e-03,1.866374386e-03,1.538706852e-04,2.020245072e-03,1.135326410e-03,-7.889222109e-05,1.056434188e-03,8.043998125e-04,5.220029338e-05,8.566001059e-04,1.123057683e-03,-4.851599033e-05,1.074541692e-03,9.804691682e-04,1.578716289e-04,1.138340797e-03,1.690635739e-03,5.217406038e-05,1.742809800e-03,2.322661172e-03,1.000765363e-04,2.422737708e-03,1.766344154e-03,1.073633336e-04,1.873707487e-03,2.476587774e-03,5.023968319e-05,2.526827457e-03,1.640305058e-03,-1.192328430e-04,1.521072215e-03,1.242227297e-03,-3.321658405e-05,1.209010713e-03,2.088445874e-03,-1.856141209e-04,1.902831753e-03,2.501341179e-03,2.309514470e-05,2.524436324e-03
-8.7,1.558612441e-03,2.511677295e-04,1.809780171e-03,1.919751504e-03,8.428511834e-05,2.004036623e-03,2.031699661e-03,2.831655240e-04,2.314865185e-03,2.043286167e-03,1.200948089e-04,2.163380975e-03,1.730366582e-03,1.531662630e-04,1.883532845e-03,2.123158934e-03,1.757361887e-04,2.298895122e-03,2.332772345e-03,3.409902182e-04,2.673762563e-03,1.788543259e-03,-1.789964415e-05,1.770643615e-03,2.727447567e-03,3.449202993e-04,3.072367866e-03,1.624867970e-03,-1.865939734e-05,1.606208573e-03,2.130485493e-03,1.306866076e-04,2.261172100e-03,1.343439578e-03,2.678166297e-05,1.370221241e-03,9.297301926e-04,5.306737536e-06,9.350369301e-04,1.172074583e-03,1.416654444e-04,1.313740028e-03,8.249370276e-04,4.389745104e-05,8.688344786e-04,1.166375322e-03,-2.130163856e-05,1.145073683e-03,1.698784268e-03,7.724222938e-05,1.776026498e-03,1.627683439e-03,4.331364876e-06,1.632014804e-03,1.873025390e-03,-3.784820384e-06,1.869240569e-03,1.575470077e-03,-3.547225304e-05,1.539997824e-03,1.688990141e-03,5.933181506e-06,1.694923322e-03,1.286100832e-03,1.366832089e-05,1.299769153e-03,1.128332488e-03,-3.487033030e-06,1.124845455e-03,1.894895168e-03,1.593336819e-04,2.054228850e-03,1.154583974e-03,-7.755437248e-05,1.077029601e-03,8.206973992e-04,4.630530744e-05,8.670027066e-04,1.156712024e-03,-5.230117430e-05,1.104410850e-03,1.005566865e-03,1.473514587e-04,1.152918323e-03,1.736605593e-03,5.219788191e-05,1.788803475e-03,2.361698934e-03,9.115625956e-05,2.452855193e-03,1.831733885e-03,1.084916937e-04,1.940225579e-03,2.541324174e-03,5.016711866e-05,2.591491293e-03,1.712416431e-03,-1.189290952e-04,1.593487336e-03,1.334612986e-03,-3.191964881e-05,1.302693338e-03,2.178455702e-03,-1.894257535e-04,1.989029948e-03,2.581193833e-03,2.983608958e-05,2.611029922e-03
-8.6,1.579726159e-03,2.569630828e-04,1.836689242e-03,1.916945235e-03,7.565455658e-05,1.992599792e-03,2.027173622e-03,2.808738182e-04,2.308047441e-03,2.068620669e-03,1.221758257e-04,2.190796495e-03,1.718873545e-03,1.469567957e-04,1.865830340e-03,2.104180351e-03,1.791829177e-04,2.283363269e-03,2.339781772e-03,3.430109175e-04,2.682792690e-03,1.790329434e-03,-1.694781141e-05,1.773381622e-03,2.691960276e-03,3.334869111e-04,3.025447187e-03,1.633557502e-03,-1.247873947e-05,1.621078762e-03,2.111476072e-03,1.225503212e-04,2.234026393e-03,1.368470803e-03,1.753562662e-05,1.386006430e-03,9.910535736e-04,4.368817312e-06,9.954223909e-04,1.188413279e-03,1.377303922e-04,1.326143671e-03,8.564088620e-04,4.088350843e-05,8.972923704e-04,1.208425984e-03,-2.114817978e-05,1.187277805e-03,1.745222916e-03,1.021014635e-04,1.847324380e-03,1.676126950e-03,1.567372668e-05,1.691800677e-03,1.919841959e-03,-2.529967606e-06,1.917311991e-03,1.572069025e-03,-3.020486546e-05,1.541864159e-03,1.700351412e-03,1.063432742e-05,1.710985739e-03,1.290490641e-03,1.231231282e-05,1.302802954e-03,1.097399892e-03,-7.728579632e-06,1.089671312e-03,1.914953702e-03,1.628645835e-04,2.077818285e-03,1.175161350e-03,-7.593688012e-05,1.099224470e-03,8.373755757e-04,4.041384233e-05,8.777894180e-04,1.192161966e-03,-5.586646374e-05,1.136295502e-03,1.031505566e-03,1.368627037e-04,1.168368270e-03,1.782979192e-03,5.225404848e-05,1.835233241e-03,2.399010739e-03,8.206326650e-05,2.481074006e-03,1.897687947e-03,1.092970103e-04,2.006984957e-03,2.604423278e-03,4.957141174e-05,2.653994689e-03,1.784430562e-03,-1.185018696e-04,1.665928692e-03,1.427957676e-03,-3.070305112e-05,1.397254625e-03,2.266284018e-03,-1.917715531e-04,2.074512465e-03,2.658859410e-03,3.637120146e-05,2.695230612e-03
-8.5,1.593439696e-03,2.602981917e-04,1.853737888e-03,1.911286075e-03,6.729871331e-05,1.978584789e-03,2.021918635e-03,2.785194447e-04,2.300438080e-03,2.088620586e-03,1.235338724e-04,2.212154459e-03,1.707286983e-03,1.410900056e-04,1.848376989e-03,2.083438384e-03,1.820478072e-04,2.265486191e-03,2.344740873e-03,3.443181178e-04,2.689058991e-03,1.792018886e-03,-1.610976919e-05,1.775909116e-03,2.654830481e-03,3.220319203e-04,2.976862401e-03,1.640902460e-03,-6.572952753e-06,1.634329508e-03,2.090775148e-03,1.145894132e-04,2.205364562e-03,1.394010156e-03,7.779165166e-06,1.401789321e-03,1.052948145e-03,4.116555569e-06,1.057064700e-03,1.205615752e-03,1.337446080e-04,1.339360360e-03,8.879590651e-04,3.810294784e-05,9.260620129e-04,1.251088138e-03,-2.101587366e-05,1.230072264e-03,1.792924300e-03,1.256287657e-04,1.918553065e-03,1.723219124e-03,2.673493203e-05,1.749954056e-03,1.964806369e-03,-1.184979172e-06,1.963621390e-03,1.568344111e-03,-2.495890192e-05,1.543385209e-03,1.708996322e-03,1.502425587e-05,1.724020578e-03,1.293511104e-03,1.095370818e-05,1.304464812e-03,1.070583560e-03,-1.070405407e-05,1.059879506e-03,1.926209178e-03,1.644436360e-04,2.090652814e-03,1.197057351e-03,-7.404388503e-05,1.123013466e-03,8.544224714e-04,3.453257536e-05,8.889550468e-04,1.229382842e-03,-5.913388760e-05,1.170248954e-03,1.058359513e-03,1.264204904e-04,1.184780004e-03,1.829769958e-03,5.234688130e-05,1.882116840e-03,2.434480067e-03,7.284328133e-05,2.507323348e-03,1.964147865e-03,1.098228161e-04,2.073970681e-03,2.665610140e-03,4.849616373e-05,2.714106303e-03,1.856207621e-03,-1.179089833e-04,1.738298638e-03,1.522065304e-03,-2.955020008e-05,1.492515104e-03,2.351646544e-03,-1.925728574e-04,2.159073686e-03,2.734094354e-03,4.266287218e-05,2.776757226e-03
-8.4,1.599648990e-03,2.612281587e-04,1.860877149e-03,1.902550363e-03,5.922227496e-05,1.961772638e-03,2.015582818e-03,2.760529238e-04,2.291635742e-03,2.103168502e-03,1.241625592e-04,2.227331061e-03,1.695487895e-03,1.355506898e-04,1.831038585e-03,2.060981130e-03,1.843098333e-04,2.245290963e-03,2.347582115e-03,3.448876226e-04,2.692469738e-03,1.793579286e-03,-1.538743891e-05,1.778191847e-03,2.616003901e-03,3.105589608e-04,2.926562862e-03,1.646816786e-03,-9.793949463e-07,1.645837391e-03,2.068262508e-03,1.068043488e-04,2.175066857e-03,1.420011421e-03,-2.363980744e-06,1.417647440e-03,1.115364311e-03,4.502474520e-06,1.119866786e-03,1.223668809e-03,1.297173695e-04,1.353386179e-03,9.196591078e-04,3.553854731e-05,9.551976551e-04,1.294372948e-03,-2.086933409e-05,1.273503614e-03,1.842175041e-03,1.475409826e-04,1.989716024e-03,1.768888168e-03,3.749448488e-05,1.806382653e-03,2.007692886e-03,2.708667282e-07,2.007963753e-03,1.564222070e-03,-1.976760904e-05,1.544454461e-03,1.714642366e-03,1.905735685e-05,1.733699723e-03,1.295009537e-03,9.600315539e-06,1.304609853e-03,1.047651297e-03,-1.244477807e-05,1.035206519e-03,1.928404839e-03,1.640761895e-04,2.092481029e-03,1.220246375e-03,-7.188519849e-05,1.148361176e-03,8.718150626e-04,2.866914008e-05,9.004842027e-04,1.268324654e-03,-6.201685384e-05,1.206307800e-03,1.086192885e-03,1.160413523e-04,1.202234237e-03,1.876973461e-03,5.248043122e-05,1.929453893e-03,2.467969210e-03,6.354398398e-05,2.531513194e-03,2.031029266e-03,1.101211232e-04,2.141150389e-03,2.724590182e-03,4.699931979e-05,2.771589502e-03,1.927588038e-03,-1.171075312e-04,1.810480507e-03,1.616711448e-03,-2.844018911e-05,1.588271259e-03,2.434254540e-03,-1.917785565e-04,2.242475983e-03,2.806632505e-03,4.867749901e-05,2.855310004e-03
-8.3,1.598309897e-03,2.598378194e-04,1.858147716e-03,1.890518803e-03,5.142707992e-05,1.941945883e-03,2.007801201e-03,2.734264373e-04,2.281227639e-03,2.112181592e-03,1.240669992e-04,2.236248592e-03,1.683329506e-03,1.303177384e-04,1.813647244e-03,2.036860659e-03,1.859524541e-04,2.222813113e-03,2.348238088e-03,3.446997099e-04,2.692937798e-03,1.794969490e-03,-1.478241124e-05,1.780187079e-03,2.575401179e-03,2.990674200e-04,2.874468599e-03,1.651212411e-03,4.267960365e-06,1.655480372e-03,2.043799630e-03,9.919157084e-05,2.142991201e-03,1.446410577e-03,-1.276241469e-05,1.433648162e-03,1.178263427e-03,5.467335187e-06,1.183730762e-03,1.242534546e-03,1.256583796e-04,1.368192925e-03,9.515797831e-04,3.317213297e-05,9.847519161e-04,1.338269396e-03,-2.067363731e-05,1.317595759e-03,1.893197116e-03,1.675824427e-04,2.060779558e-03,1.813054784e-03,4.793445488e-05,1.860989239e-03,2.048259006e-03,1.858835623e-06,2.050117841e-03,1.559624835e-03,-1.466378010e-05,1.544961054e-03,1.717026176e-03,2.269419604e-05,1.739720372e-03,1.294836571e-03,8.261097839e-06,1.303097669e-03,1.028291063e-03,-1.299849979e-05,1.015292563e-03,1.921369942e-03,1.617918699e-04,2.083161812e-03,1.244678503e-03,-6.947589861e-05,1.175202605e-03,8.895192119e-04,2.283228937e-05,9.123515012e-04,1.308912451e-03,-6.442221442e-05,1.244490236e-03,1.115057779e-03,1.057428909e-04,1.220800670e-03,1.924564087e-03,5.265896604e-05,1.977223053e-03,2.499319379e-03,5.421460541e-05,2.553533985e-03,2.098219651e-03,1.102520054e-04,2.208471657e-03,2.781053180e-03,4.515186988e-05,2.826205050e-03,1.998392754e-03,-1.160549616e-04,1.882337792e-03,1.711644403e-03,-2.734767664e-05,1.684296726e-03,2.513818129e-03,-1.893681062e-04,2.324450023e-03,2.876186843e-03,5.438646034e-05,2.930573304e-03
-8.2,1.589429869e-03,2.562361545e-04,1.845666023e-03,1.874977361e-03,4.391198771e-05,1.918889348e-03,1.998197671e-03,2.705930069e-04,2.268790678e-03,2.115606285e-03,1.232628339e-04,2.238869119e-03,1.670639564e-03,1.253646135e-04,1.796004178e-03,2.011128276e-03,1.869631174e-04,2.198091393e-03,2.346639097e-03,3.437387993e-04,2.690377896e-03,1.796138012e-03,-1.429616488e-05,1.781841847e-03,2.532918938e-03,2.875526429e-04,2.820471581e-03,1.653999610e-03,9.138749939e-06,1.663138360e-03,2.017231267e-03,9.174340948e-05,2.108974677e-03,1.473122175e-03,-2.327973147e-05,1.449842444e-03,1.241612789e-03,6.939458971e-06,1.248552248e-03,1.262148379e-03,1.215776686e-04,1.383726047e-03,9.837859616e-04,3.098442388e-05,1.014770385e-03,1.382741170e-03,-2.039575178e-05,1.362345419e-03,1.946136642e-03,1.855308512e-04,2.131667494e-03,1.855630444e-03,5.803976006e-05,1.913670204e-03,2.086247435e-03,3.600008305e-06,2.089847443e-03,1.554469240e-03,-9.679517144e-06,1.544789723e-03,1.715905414e-03,2.590196927e-05,1.741807383e-03,1.292846301e-03,6.945771967e-06,1.299792073e-03,1.012115775e-03,-1.242892110e-05,9.996868539e-04,1.905020664e-03,1.576437430e-04,2.062664407e-03,1.270278821e-03,-6.683545744e-05,1.203443364e-03,9.074887334e-04,1.703214498e-05,9.245208784e-04,1.351045780e-03,-6.625294693e-05,1.284792833e-03,1.144990851e-03,9.554331425e-05,1.240534165e-03,1.972490698e-03,5.288707174e-05,2.025377770e-03,2.528350464e-03,4.490541105e-05,2.573255875e-03,2.165574986e-03,1.102830360e-04,2.275858022e-03,2.834676589e-03,4.303552069e-05,2.877712109e-03,2.068422385e-03,-1.147107230e-04,1.953711662e-03,1.806585291e-03,-2.624338434e-05,1.780341907e-03,2.590047648e-03,-1.853529039e-04,2.404694744e-03,2.942450692e-03,5.976697392e-05,3.002217666e-03
-8.1,1.573059522e-03,2.505507695e-04,1.823610292e-03,1.855717617e-03,3.667271710e-05,1.892390334e-03,1.986386564e-03,2.675056745e-04,2.253892238e-03,2.113412491e-03,1.217750388e-04,2.235187530e-03,1.657222470e-03,1.206598161e-04,1.777882287e-03,1.983829358e-03,1.873327612e-04,2.171162119e-03,2.342710649e-03,3.419931102e-04,2.684703759e-03,1.797021256e-03,-1.393024278e-05,1.783091013e-03,2.488431291e-03,2.760062922e-04,2.764437583e-03,1.655087065e-03,1.360644061e-05,1.668693506e-03,1.988387312e-03,8.444814672e-05,2.072835458e-03,1.500034786e-03,-3.377692771e-05,1.466257858e-03,1.305379404e-03,8.833031563e-06,1.314212435e-03,1.282416709e-03,1.174854621e-04,1.399902171e-03,1.016330551e-03,2.895503186e-05,1.045285583e-03,1.427722987e-03,-2.000590920e-05,1.407717078e-03,2.001053021e-03,2.012024428e-04,2.202255464e-03,1.896514578e-03,6.779822192e-05,1.964312800e-03,2.121387436e-03,5.514416297e-06,2.126901853e-03,1.548666568e-03,-4.845888113e-06,1.543820679e-03,1.711060189e-03,2.865490119e-05,1.739715090e-03,1.288896363e-03,5.664413120e-06,1.294560776e-03,9.986688695e-04,-1.081507665e-05,9.878537929e-04,1.879360476e-03,1.517074240e-04,2.031067900e-03,1.296946345e-03,-6.398666982e-05,1.232959675e-03,9.256639395e-04,1.128039475e-05,9.369443342e-04,1.394597501e-03,-6.741135790e-05,1.327186143e-03,1.176009080e-03,8.546099450e-05,1.261470074e-03,2.020672518e-03,5.316936110e-05,2.073841879e-03,2.554860817e-03,3.566708119e-05,2.590527898e-03,2.232916131e-03,1.102883439e-04,2.343204475e-03,2.885128610e-03,4.073938131e-05,2.925867991e-03,2.137455755e-03,-1.130381401e-04,2.024417615e-03,1.901227504e-03,-2.509506000e-05,1.876132444e-03,2.662652961e-03,-1.797756900e-04,2.482877271e-03,3.005098824e-03,6.480263009e-05,3.069901455e-03
-8,1.549285089e-03,2.429227288e-04,1.792207818e-03,1.832537383e-03,2.970173699e-05,1.862239120e-03,1.971974633e-03,2.641168602e-04,2.236091493e-03,2.105588563e-03,1.196365963e-04,2.225225159e-03,1.642861961e-03,1.161674311e-04,1.759029392e-03,1.954998916e-03,1.870553986e-04,2.142054314e-03,2.336371496e-03,3.394543614e-04,2.675825857e-03,1.797542021e-03,-1.368635508e-05,1.783855666e-03,2.441792304e-03,2.644168300e-04,2.706209134e-03,1.654382137e-03,1.764850396e-05,1.672030640e-03,1.957085414e-03,7.729024845e-05,2.034375662e-03,1.527007565e-03,-4.411479429e-05,1.482892771e-03,1.369524151e-03,1.104681225e-05,1.380570963e-03,1.303215712e-03,1.133920294e-04,1.416607741e-03,1.049249505e-03,2.706260632e-05,1.076312111e-03,1.473117286e-03,-1.947857276e-05,1.453638713e-03,2.057910249e-03,2.144559843e-04,2.272366233e-03,1.935591245e-03,7.720041598e-05,2.012791661e-03,2.153396241e-03,7.620060977e-06,2.161016302e-03,1.542122649e-03,-1.926013984e-07,1.541930047e-03,1.702294586e-03,3.093444953e-05,1.733229036e-03,1.282848460e-03,4.427004846e-06,1.287275465e-03,9.874309434e-04,-8.250558923e-06,9.791803845e-04,1.844480423e-03,1.440800636e-04,1.988560487e-03,1.324553210e-03,-6.095456042e-05,1.263598650e-03,9.439704934e-04,5.590292655e-06,9.495607861e-04,1.439412774e-03,-6.780263807e-05,1.371610136e-03,1.208105711e-03,7.551412792e-05,1.283619839e-03,2.068996116e-03,5.350994742e-05,2.122506064e-03,2.578627479e-03,2.655011848e-05,2.605177597e-03,2.300026159e-03,1.103470090e-04,2.410373168e-03,2.932071312e-03,3.835610681e-05,2.970427419e-03,2.205248671e-03,-1.110062171e-04,2.094242454e-03,1.995236168e-03,-2.386865810e-05,1.971367510e-03,2.731341785e-03,-1.727083484e-04,2.558633436e-03,3.063789272e-03,6.948342062e-05,3.133272693e-03
-7.9,1.518222591e-03,2.335020329e-04,1.751724624e-03,1.805242127e-03,2.298830649e-05,1.828230433e-03,1.954563976e-03,2.603780548e-04,2.214942031e-03,2.092137770e-03,1.168871608e-04,2.209024931e-03,1.627324836e-03,1.118478087e-04,1.739172644e-03,1.924658629e-03,1.861278070e-04,2.110786436e-03,2.327532658e-03,3.361175286e-04,2.663650187e-03,1.797608664e-03,-1.356643046e-05,1.784042234e-03,2.392839614e-03,2.527700347e-04,2.645609648e-03,1.651791633e-03,2.124648118e-05,1.673038114e-03,1.923134568e-03,7.025069697e-05,1.993385265e-03,1.553869043e-03,-5.415640208e-05,1.499712641e-03,1.433996929e-03,1.346439891e-05,1.447461328e-03,1.324391874e-03,1.093074683e-04,1.433699343e-03,1.082558694e-03,2.528501394e-05,1.107843708e-03,1.518792197e-03,-1.879292892e-05,1.499999268e-03,2.116571617e-03,2.251954693e-04,2.341767087e-03,1.972725887e-03,8.623937710e-05,2.058965264e-03,2.181981150e-03,9.931880185e-06,2.191913030e-03,1.534738799e-03,4.252206306e-06,1.538991005e-03,1.689438493e-03,3.272926564e-05,1.722167758e-03,1.274569466e-03,3.242928421e-06,1.277812394e-03,9.778275084e-04,-4.842510890e-06,9.729849975e-04,1.800559084e-03,1.348792217e-04,1.935438306e-03,1.352944402e-03,-5.776516819e-05,1.295179233e-03,9.623190968e-04,-2.353116132e-08,9.622955656e-04,1.485308936e-03,-6.733857957e-05,1.417970356e-03,1.241247044e-03,6.572054192e-05,1.306967586e-03,2.117313237e-03,5.391188369e-05,2.171225121e-03,2.599406887e-03,1.760443502e-05,2.617011322e-03,2.366648884e-03,1.105407561e-04,2.477189640e-03,2.975163312e-03,3.597811740e-05,3.011141430e-03,2.271533476e-03,-1.085911218e-04,2.162942354e-03,2.088248143e-03,-2.252955732e-05,2.065718585e-03,2.795818223e-03,-1.642488058e-04,2.631569417e-03,3.118166181e-03,7.380530782e-05,3.191971489e-03
-7.8,1.480014070e-03,2.224440058e-04,1.702458075e-03,1.773647217e-03,1.651870565e-05,1.790165923e-03,1.933755964e-03,2.562399120e-04,2.189995876e-03,2.073076163e-03,1.135717681e-04,2.186647931e-03,1.610365517e-03,1.076583325e-04,1.718023850e-03,1.892815134e-03,1.845492751e-04,2.077364409e-03,2.316097216e-03,3.319806455e-04,2.648077861e-03,1.797114755e-03,-1.357262605e-05,1.783542129e-03,2.341398924e-03,2.410495425e-04,2.582448466e-03,1.647222844e-03,2.438593758e-05,1.671608782e-03,1.886339311e-03,6.330737844e-05,1.949646690e-03,1.580417797e-03,-6.376982943e-05,1.516647967e-03,1.498731900e-03,1.595627641e-05,1.514688176e-03,1.345763455e-03,1.052414209e-04,1.451004876e-03,1.116251671e-03,2.359949351e-05,1.139851164e-03,1.564580700e-03,-1.793316546e-05,1.546647534e-03,2.176797462e-03,2.333714915e-04,2.410168954e-03,2.007762208e-03,9.491027353e-05,2.102672481e-03,2.206842291e-03,1.246075692e-05,2.219303048e-03,1.526413044e-03,8.462138880e-06,1.534875183e-03,1.672349330e-03,3.403501069e-05,1.706384341e-03,1.263932726e-03,2.120481532e-06,1.266053208e-03,9.692375994e-04,-7.103015934e-07,9.685272978e-04,1.747861340e-03,1.242416132e-04,1.872102953e-03,1.381937779e-03,-5.444416901e-05,1.327493610e-03,9.806057818e-04,-5.545332351e-06,9.750604494e-04,1.532076194e-03,-6.594126881e-05,1.466134925e-03,1.275369746e-03,5.609764258e-05,1.331467389e-03,2.165438170e-03,5.437677452e-05,2.219814945e-03,2.616935672e-03,8.879113258e-06,2.625814786e-03,2.432487950e-03,1.109512493e-04,2.543439199e-03,3.014060738e-03,3.369443574e-05,3.047755174e-03,2.336018818e-03,-1.057771447e-04,2.230241674e-03,2.179872116e-03,-2.104374771e-05,2.158828368e-03,2.855781619e-03,-1.545176505e-04,2.701263969e-03,3.167863084e-03,7.776957574e-05,3.245632660e-03
-7.7,1.434825662e-03,2.099067239e-04,1.644732386e-03,1.737580439e-03,1.027663097e-05,1.747857070e-03,1.909155882e-03,2.516527358e-04,2.160808618e-03,2.048430911e-03,1.097395640e-04,2.158170475e-03,1.591730734e-03,1.035541885e-04,1.695284923e-03,1.859458682e-03,1.823213807e-04,2.041780062e-03,2.301960270e-03,3.270446444e-04,2.629004914e-03,1.795938763e-03,-1.370725032e-05,1.782231513e-03,2.287288846e-03,2.292375024e-04,2.516526349e-03,1.640584241e-03,2.705638748e-05,1.667640629e-03,1.846503878e-03,5.643555490e-05,1.902939433e-03,1.606424016e-03,-7.283132528e-05,1.533592691e-03,1.563641144e-03,1.838321125e-05,1.582024355e-03,1.367121442e-03,1.012027970e-04,1.468324239e-03,1.150296660e-03,2.198279012e-05,1.172279450e-03,1.610279879e-03,-1.688878584e-05,1.593391093e-03,2.238244757e-03,2.389813440e-04,2.477226101e-03,2.040518827e-03,1.032101196e-04,2.143728947e-03,2.227675290e-03,1.521264700e-05,2.242887937e-03,1.517040819e-03,1.241280119e-05,1.529453620e-03,1.650913065e-03,3.485411957e-05,1.685767184e-03,1.250819029e-03,1.066503845e-06,1.251885533e-03,9.610029664e-04,4.016126653e-06,9.650190930e-04,1.686735075e-03,1.123215709e-04,1.799056646e-03,1.411324113e-03,-5.101567582e-05,1.360308437e-03,9.987120804e-04,-1.095852563e-05,9.877535548e-04,1.579478219e-03,-6.354648079e-05,1.515931738e-03,1.310377851e-03,4.666240743e-05,1.357040259e-03,2.213143674e-03,5.490469351e-05,2.268048367e-03,2.630931055e-03,4.221710810e-07,2.631353226e-03,2.497205473e-03,1.116572965e-04,2.608862769e-03,3.048415319e-03,3.158845373e-05,3.080003773e-03,2.398388529e-03,-1.025571402e-04,2.295831389e-03,2.269687763e-03,-1.937900993e-05,2.250308753e-03,2.910924929e-03,-1.436548918e-04,2.767270037e-03,3.212505426e-03,8.138212654e-05,3.293887553e-03
-7.6,1.382847138e-03,1.960494029e-04,1.578896541e-03,1.696884319e-03,4.243724222e-06,1.701128043e-03,1.880378032e-03,2.465673661e-04,2.126945398e-03,2.018238349e-03,1.054425281e-04,2.123680877e-03,1.571163768e-03,9.948910281e-05,1.670652871e-03,1.824561544e-03,1.794478416e-04,2.004009385e-03,2.285008648e-03,3.213132555e-04,2.606321904e-03,1.793943443e-03,-1.397254839e-05,1.779970895e-03,2.230325715e-03,2.173154192e-04,2.447641134e-03,1.631785446e-03,2.925126732e-05,1.661036713e-03,1.803435899e-03,4.960846563e-05,1.853044364e-03,1.631631258e-03,-8.122890480e-05,1.550402353e-03,1.628605781e-03,2.060057966e-05,1.649206361e-03,1.388229381e-03,9.719958933e-05,1.485428971e-03,1.184632114e-03,2.041126427e-05,1.205043378e-03,1.655649353e-03,-1.565488736e-05,1.639994466e-03,2.300467895e-03,2.420680393e-04,2.542535934e-03,2.070785590e-03,1.111373809e-04,2.181922971e-03,2.244173109e-03,1.818785703e-05,2.262360966e-03,1.506514801e-03,1.608215374e-05,1.522596955e-03,1.625044228e-03,3.519546554e-05,1.660239694e-03,1.235117086e-03,8.608494947e-08,1.235203171e-03,9.524377813e-04,9.198187224e-06,9.616359685e-04,1.617605590e-03,9.928904557e-05,1.716894636e-03,1.440867046e-03,-4.750161336e-05,1.393365433e-03,1.016504570e-03,-1.624601656e-05,1.000258554e-03,1.627251762e-03,-6.010644593e-05,1.567145316e-03,1.346139043e-03,3.743131010e-05,1.383570353e-03,2.260155847e-03,5.549426504e-05,2.315650112e-03,2.641090854e-03,-7.719842734e-06,2.633371012e-03,2.560419857e-03,1.127319471e-04,2.673151804e-03,3.077869855e-03,2.973653691e-05,3.107606392e-03,2.458298977e-03,-9.893258788e-05,2.359366389e-03,2.357243415e-03,-1.750609335e-05,2.339737321e-03,2.960932062e-03,-1.318169990e-04,2.829115063e-03,3.251711660e-03,8.465268804e-05,3.336364348e-03
-7.5,1.324292463e-03,1.810314628e-04,1.505323926e-03,1.651418165e-03,-1.599757912e-06,1.649818407e-03,1.847051318e-03,2.409364420e-04,2.087987760e-03,1.982541694e-03,1.007342233e-04,2.083275918e-03,1.548408194e-03,9.541609419e-05,1.643824288e-03,1.788076281e-03,1.759344926e-04,1.964010774e-03,2.265120425e-03,3.147929705e-04,2.579913395e-03,1.790975096e-03,-1.437037008e-05,1.776604726e-03,2.170328322e-03,2.052651371e-04,2.375593459e-03,1.620736600e-03,3.096794609e-05,1.651704546e-03,1.756949697e-03,4.279803341e-05,1.799747731e-03,1.655758329e-03,-8.886599335e-05,1.566892336e-03,1.693465636e-03,2.246336023e-05,1.715928997e-03,1.408822769e-03,9.323878268e-05,1.502061552e-03,1.219161743e-03,1.886095925e-05,1.238022702e-03,1.700408891e-03,-1.423207581e-05,1.686176816e-03,2.362920983e-03,2.427186647e-04,2.605639648e-03,2.098320067e-03,1.186912737e-04,2.217011341e-03,2.256027031e-03,2.138050790e-05,2.277407539e-03,1.494724233e-03,1.945084525e-05,1.514175078e-03,1.594685220e-03,3.507381484e-05,1.629759035e-03,1.216723768e-03,-8.176992246e-07,1.215906069e-03,9.428389926e-04,1.469080557e-05,9.575297982e-04,1.540968103e-03,8.532710552e-05,1.626295209e-03,1.470303103e-03,-4.392168845e-05,1.426381415e-03,1.033833929e-03,-2.139063763e-05,1.012443291e-03,1.675105296e-03,-5.559175643e-05,1.619513539e-03,1.382480678e-03,2.842015505e-05,1.410900834e-03,2.306149621e-03,5.614257365e-05,2.362292194e-03,2.647093721e-03,-1.550249374e-05,2.631591227e-03,2.621703687e-03,1.142392909e-04,2.735942978e-03,3.102052882e-03,2.820696152e-05,3.130259844e-03,2.515375350e-03,-9.491335186e-05,2.420461998e-03,2.442052922e-03,-1.539983921e-05,2.426653083e-03,3.005474731e-03,-1.191741353e-04,2.886300596e-03,3.285093196e-03,8.759385120e-05,3.372687047e-03
-7.4,1.259400910e-03,1.650118889e-04,1.424412799e-03,1.601060136e-03,-7.274118950e-06,1.593786017e-03,1.808825486e-03,2.347158803e-04,2.043541367e-03,1.941389043e-03,9.566863146e-05,2.037057674e-03,1.523211472e-03,9.128829040e-05,1.614499763e-03,1.749934575e-03,1.717893912e-04,1.921723966e-03,2.242164747e-03,3.074930332e-04,2.549657780e-03,1.786863215e-03,-1.490183682e-05,1.771961378e-03,2.107122720e-03,1.930698300e-04,2.300192550e-03,1.607347628e-03,3.220769079e-05,1.639555319e-03,1.706869594e-03,3.597559717e-05,1.742845191e-03,1.678501652e-03,-9.566455328e-05,1.582837099e-03,1.758010464e-03,2.383139637e-05,1.781841860e-03,1.428609453e-03,8.932629183e-05,1.517935745e-03,1.253750812e-03,1.730763627e-05,1.271058448e-03,1.744236286e-03,-1.262580843e-05,1.731610477e-03,2.424962336e-03,2.410625338e-04,2.666024870e-03,2.122845221e-03,1.258708290e-04,2.248716050e-03,2.262927477e-03,2.477826363e-05,2.287705740e-03,1.481554379e-03,2.250247137e-05,1.504056850e-03,1.559805358e-03,3.450907708e-05,1.594314435e-03,1.195544487e-03,-1.643979395e-06,1.193900507e-03,9.314975747e-04,2.034478875e-05,9.518423635e-04,1.457378901e-03,7.062901715e-05,1.528007918e-03,1.499342119e-03,-4.029372600e-05,1.459048393e-03,1.050534154e-03,-2.637564496e-05,1.024158509e-03,1.722717780e-03,-4.999245164e-05,1.672725328e-03,1.419186662e-03,1.964387257e-05,1.438830534e-03,2.350746863e-03,5.684478801e-05,2.407591651e-03,2.648600466e-03,-2.288429594e-05,2.625716170e-03,2.680583356e-03,1.162310235e-04,2.796814379e-03,3.120574967e-03,2.705869000e-05,3.147633657e-03,2.569208293e-03,-9.051713944e-05,2.478691153e-03,2.523593383e-03,-1.304017830e-05,2.510553204e-03,3.044210146e-03,-1.059073777e-04,2.938302768e-03,3.312254302e-03,9.022000072e-05,3.402474303e-03
-7.3,1.188438192e-03,1.481484924e-04,1.336586684e-03,1.545709792e-03,-1.279930083e-05,1.532910491e-03,1.765378041e-03,2.278662591e-04,1.993244300e-03,1.894832517e-03,9.029910210e-05,1.985131619e-03,1.495328891e-03,8.705979900e-05,1.582388690e-03,1.710047478e-03,1.670229960e-04,1.877070475e-03,2.216002522e-03,2.994254030e-04,2.515427926e-03,1.781421106e-03,-1.556715121e-05,1.765853955e-03,2.040547166e-03,1.807148662e-04,2.221262032e-03,1.591527955e-03,3.297553121e-05,1.624503487e-03,1.653033588e-03,2.911262186e-05,1.682146210e-03,1.699538710e-03,-1.015673645e-04,1.597971346e-03,1.821975280e-03,2.457472607e-05,1.846550006e-03,1.447272249e-03,8.546687222e-05,1.532739121e-03,1.288225209e-03,1.572681773e-05,1.303952027e-03,1.786767107e-03,-1.084536984e-05,1.775921737e-03,2.485861897e-03,2.372691786e-04,2.723131076e-03,2.144049288e-03,1.326739587e-04,2.276723247e-03,2.264565670e-03,2.836239569e-05,2.292928066e-03,1.466886660e-03,2.522382774e-05,1.492110488e-03,1.520400117e-03,3.352550876e-05,1.553925626e-03,1.171493987e-03,-2.394098152e-06,1.169099889e-03,9.177108864e-04,2.600939633e-05,9.437202827e-04,1.367445633e-03,5.539498207e-05,1.422840615e-03,1.527668754e-03,-3.663418339e-05,1.491034571e-03,1.066422737e-03,-3.118517615e-05,1.035237561e-03,1.769738992e-03,-4.331862516e-05,1.726420367e-03,1.455996482e-03,1.111629080e-05,1.467112773e-03,2.393518199e-03,5.759376320e-05,2.451111962e-03,2.645257152e-03,-2.982761446e-05,2.615429538e-03,2.736541622e-03,1.187433243e-04,2.855284946e-03,3.133028360e-03,2.633997516e-05,3.159368336e-03,2.619352677e-03,-8.576863905e-05,2.533584038e-03,2.601305436e-03,-1.041289263e-05,2.590892543e-03,3.076780775e-03,-9.220545765e-05,2.984575317e-03,3.332793156e-03,9.254636171e-05,3.425339518e-03
-7.2,1.111697145e-03,1.305967662e-04,1.242293911e-03,1.485291346e-03,-1.819402844e-05,1.467097318e-03,1.716421530e-03,2.203538139e-04,1.936775344e-03,1.842928932e-03,8.467743006e-05,1.927606362e-03,1.464528000e-03,8.268655677e-05,1.547214557e-03,1.668307378e-03,1.616483447e-04,1.829955723e-03,2.186488178e-03,2.906046620e-04,2.477092840e-03,1.774447686e-03,-1.636559435e-05,1.758082091e-03,1.970457026e-03,1.681884847e-04,2.138645510e-03,1.573186846e-03,3.328004812e-05,1.606466894e-03,1.595297383e-03,2.218139140e-05,1.617478775e-03,1.718532712e-03,-1.065395465e-04,1.611993165e-03,1.885039719e-03,2.457923391e-05,1.909618953e-03,1.464473642e-03,8.166401990e-05,1.546137662e-03,1.322373354e-03,1.409389549e-05,1.336467249e-03,1.827597319e-03,-8.902934185e-06,1.818694385e-03,2.544812120e-03,2.315455959e-04,2.776357716e-03,2.161588624e-03,1.390965863e-04,2.300685210e-03,2.260636821e-03,3.210815925e-05,2.292744980e-03,1.450599435e-03,2.760519366e-05,1.478204629e-03,1.476490635e-03,3.215100124e-05,1.508641637e-03,1.144497498e-03,-3.071388994e-06,1.141426109e-03,9.007961008e-04,3.153507197e-05,9.323311728e-04,1.271816819e-03,3.982855120e-05,1.311645370e-03,1.554945455e-03,-3.295870463e-05,1.521986751e-03,1.081302189e-03,-3.580462334e-05,1.045497565e-03,1.815792127e-03,-3.560086693e-05,1.780191260e-03,1.492606988e-03,2.849873144e-06,1.495456861e-03,2.433988004e-03,5.837992050e-05,2.492367925e-03,2.636699878e-03,-3.629956614e-05,2.600400312e-03,2.789022872e-03,1.217947217e-04,2.910817594e-03,3.138990463e-03,2.608708653e-05,3.165077549e-03,2.665329411e-03,-8.069839182e-05,2.584631019e-03,2.674596774e-03,-7.509969457e-06,2.667086804e-03,3.102816307e-03,-7.826045133e-05,3.024555856e-03,3.346304636e-03,9.458835875e-05,3.440892995e-03
-7.1,1.029497657e-03,1.125082789e-04,1.142005936e-03,1.419757217e-03,-2.347518910e-05,1.396282028e-03,1.661710493e-03,2.121509700e-04,1.873861463e-03,1.785741388e-03,7.885309073e-05,1.864594479e-03,1.430593056e-03,7.812705832e-05,1.508720114e-03,1.624590933e-03,1.556811837e-04,1.780272117e-03,2.153472036e-03,2.810478799e-04,2.434519916e-03,1.765730007e-03,-1.729561374e-05,1.748434393e-03,1.896729170e-03,1.554822977e-04,2.052211468e-03,1.552234002e-03,3.313313342e-05,1.585367135e-03,1.533538274e-03,1.515569395e-05,1.548693968e-03,1.735137494e-03,-1.105695583e-04,1.624567936e-03,1.946829250e-03,2.375235398e-05,1.970581604e-03,1.479860927e-03,7.791989531e-05,1.557780822e-03,1.355949230e-03,1.238437091e-05,1.368333601e-03,1.866288061e-03,-6.812945675e-06,1.859475115e-03,2.600941879e-03,2.241321863e-04,2.825074066e-03,2.175093301e-03,1.451317314e-04,2.320225033e-03,2.250844692e-03,3.598534846e-05,2.286830040e-03,1.432568887e-03,2.964052839e-05,1.462209416e-03,1.428123106e-03,3.041640289e-05,1.458539509e-03,1.114491887e-03,-3.680848247e-06,1.110811038e-03,8.801043623e-04,3.677629462e-05,9.168806569e-04,1.171170263e-03,2.413271215e-05,1.195302975e-03,1.580816409e-03,-2.928258591e-05,1.551533823e-03,1.094962578e-03,-4.022098066e-05,1.054741597e-03,1.860477878e-03,-2.689048835e-05,1.833587390e-03,1.528676051e-03,-5.144545453e-06,1.523531506e-03,2.471640792e-03,5.919142845e-05,2.530832220e-03,2.622560537e-03,-4.227289990e-05,2.580287637e-03,2.837439591e-03,1.253852591e-04,2.962824851e-03,3.138030153e-03,2.632318612e-05,3.164353339e-03,2.706629695e-03,-7.534163234e-05,2.631288063e-03,2.742848022e-03,-4.329483852e-06,2.738518538e-03,3.121936790e-03,-6.426241756e-05,3.057674373e-03,3.352384506e-03,9.636125861e-05,3.448745765e-03
-7,9.421857549e-04,9.402886999e-05,1.036214625e-03,1.349091113e-03,-2.865747659e-05,1.320433637e-03,1.601047319e-03,2.032365687e-04,1.804283887e-03,1.723340638e-03,7.287265136e-05,1.796213289e-03,1.393328700e-03,7.334291465e-05,1.466671615e-03,1.578761863e-03,1.491400340e-04,1.727901897e-03,2.116802568e-03,2.707744603e-04,2.387577028e-03,1.755045775e-03,-1.835487789e-05,1.736690897e-03,1.819265435e-03,1.425916694e-04,1.961857104e-03,1.528579892e-03,3.254972535e-05,1.561129617e-03,1.467658340e-03,8.011480244e-06,1.475669820e-03,1.749001185e-03,-1.136696400e-04,1.635331545e-03,2.006916752e-03,2.202723030e-05,2.028943982e-03,1.493070086e-03,7.423525379e-05,1.567305340e-03,1.388674518e-03,1.057426642e-05,1.399248785e-03,1.902370862e-03,-4.591673843e-06,1.897779188e-03,2.653331827e-03,2.152974203e-04,2.868629248e-03,2.184174334e-03,1.507685024e-04,2.334942836e-03,2.234906689e-03,3.995888053e-05,2.274865570e-03,1.412669350e-03,3.132741569e-05,1.443996765e-03,1.375367456e-03,2.835474406e-05,1.403722200e-03,1.081426393e-03,-4.228863822e-06,1.077197529e-03,8.550352461e-04,4.159455505e-05,8.966298012e-04,1.066199908e-03,8.505687101e-06,1.074705595e-03,1.604911546e-03,-2.562105226e-05,1.579290493e-03,1.107184274e-03,-4.442322883e-05,1.062761045e-03,1.903378382e-03,-1.725914869e-05,1.886119234e-03,1.563826612e-03,-1.285796988e-05,1.550968642e-03,2.505927373e-03,6.001451783e-05,2.565941891e-03,2.602472612e-03,-4.772674774e-05,2.554745865e-03,2.881178468e-03,1.294969069e-04,3.010675375e-03,3.129715470e-03,2.705712141e-05,3.156772591e-03,2.742720286e-03,-6.973730709e-05,2.672982979e-03,2.805419587e-03,-8.752350798e-07,2.804544352e-03,3.133755774e-03,-5.039372855e-05,3.083362045e-03,3.350634231e-03,9.787988231e-05,3.448514113e-03
-6.9,8.501319733e-04,7.529705691e-05,9.254290302e-04,1.273310109e-03,-3.375319265e-05,1.239556916e-03,1.534286772e-03,1.935960022e-04,1.727882774e-03,1.655805458e-03,6.677932259e-05,1.722584781e-03,1.352562464e-03,6.829926400e-05,1.420861728e-03,1.530673028e-03,1.420461809e-04,1.672719209e-03,2.076328052e-03,2.598059613e-04,2.336134014e-03,1.742165422e-03,-1.954026422e-05,1.722625158e-03,1.737995018e-03,1.295160076e-04,1.867511025e-03,1.502135546e-03,3.154749622e-05,1.533683042e-03,1.397586806e-03,7.274850599e-07,1.398314291e-03,1.759767864e-03,-1.158753317e-04,1.643892532e-03,2.064824497e-03,1.936396224e-05,2.084188459e-03,1.503728007e-03,7.060933421e-05,1.574337341e-03,1.420239186e-03,8.640673952e-06,1.428879860e-03,1.935352190e-03,-2.256776924e-06,1.933095413e-03,2.701029740e-03,2.053315013e-04,2.906361242e-03,2.188431177e-03,1.559910912e-04,2.344422268e-03,2.212558599e-03,4.398935136e-05,2.256547950e-03,1.390772818e-03,3.266675193e-05,1.423439570e-03,1.318314990e-03,2.600035492e-05,1.344315345e-03,1.045262823e-03,-4.723038954e-06,1.040539784e-03,8.250512003e-04,4.586146854e-05,8.709126688e-04,9.576010551e-04,-6.863435497e-06,9.507376196e-04,1.626849825e-03,-2.198927327e-05,1.604860552e-03,1.117740251e-03,-4.840270829e-05,1.069337542e-03,1.944059730e-03,-6.797432233e-06,1.937262298e-03,1.597650183e-03,-2.028338602e-05,1.577366797e-03,2.536270396e-03,6.083379023e-05,2.597104186e-03,2.576076409e-03,-5.264703522e-05,2.523429374e-03,2.919605517e-03,1.340950174e-04,3.053700535e-03,3.113621303e-03,2.828216569e-05,3.141903468e-03,2.773048643e-03,-6.392721539e-05,2.709121428e-03,2.861658707e-03,2.843477892e-06,2.864502185e-03,3.137882985e-03,-3.682388409e-05,3.101059101e-03,3.340665818e-03,9.915825064e-05,3.439824069e-03
-6.8,7.537294765e-04,5.644294185e-05,8.101724183e-04,1.192465831e-03,-3.877209875e-05,1.153693732e-03,1.461339540e-03,1.832213825e-04,1.644560923e-03,1.583222218e-03,6.061258265e-05,1.643834801e-03,1.308146272e-03,6.296508667e-05,1.371111358e-03,1.480168134e-03,1.344235882e-04,1.614591722e-03,2.031897759e-03,2.481658737e-04,2.280063632e-03,1.726853849e-03,-2.084781839e-05,1.706006030e-03,1.652875968e-03,1.162589849e-04,1.769134953e-03,1.472812043e-03,3.014650181e-05,1.502958545e-03,1.323281831e-03,-6.714151372e-06,1.316567679e-03,1.767078058e-03,-1.172437535e-04,1.649834304e-03,2.120027110e-03,1.574864457e-05,2.135775754e-03,1.511454189e-03,6.703971068e-05,1.578493900e-03,1.450301584e-03,6.562387877e-06,1.456863972e-03,1.964717797e-03,1.730569429e-07,1.964890854e-03,2.743065684e-03,1.945390408e-04,2.937604725e-03,2.187458728e-03,1.607779778e-04,2.348236706e-03,2.183558689e-03,4.803359711e-05,2.231592286e-03,1.366747941e-03,3.366234079e-05,1.400410282e-03,1.257075193e-03,2.338799027e-05,1.280463184e-03,1.005975395e-03,-5.172003532e-06,1.000803391e-03,7.896915564e-04,4.946190238e-05,8.391534588e-04,8.460547574e-04,-2.179901490e-05,8.242557425e-04,1.646241761e-03,-1.840216822e-05,1.627839593e-03,1.126397922e-03,-5.215338854e-05,1.074244534e-03,1.982073066e-03,4.387679076e-06,1.986460745e-03,1.629710010e-03,-2.741581541e-05,1.602294194e-03,2.562070076e-03,6.163245072e-05,2.623702527e-03,2.543023778e-03,-5.702645048e-05,2.485997327e-03,2.952070876e-03,1.391304419e-04,3.091201318e-03,3.089336478e-03,2.997511616e-05,3.119311594e-03,2.797047953e-03,-5.795512811e-05,2.739092825e-03,2.910906821e-03,6.811742981e-06,2.917718564e-03,3.133926759e-03,-2.370510674e-05,3.110221652e-03,3.322106606e-03,1.002092215e-04,3.422315827e-03
-6.7,6.533926081e-04,3.758768251e-05,6.909802906e-04,1.106645440e-03,-4.372127740e-05,1.062924163e-03,1.382175511e-03,1.721117763e-04,1.554287287e-03,1.505684528e-03,5.440783775e-05,1.560092366e-03,1.259957625e-03,5.731348134e-05,1.317271107e-03,1.427084059e-03,1.262987812e-04,1.553382840e-03,1.983363219e-03,2.358793792e-04,2.219242598e-03,1.708872342e-03,-2.227271554e-05,1.686599626e-03,1.563896103e-03,1.028286716e-04,1.666724774e-03,1.440520255e-03,2.836883115e-05,1.468889086e-03,1.244732202e-03,-1.432722835e-05,1.230404974e-03,1.770569981e-03,-1.178505814e-04,1.652719400e-03,2.171956427e-03,1.119203051e-05,2.183148457e-03,1.515863750e-03,6.352219115e-05,1.579385941e-03,1.478489994e-03,4.320619440e-06,1.482810613e-03,1.989938252e-03,2.678299815e-06,1.992616552e-03,2.778468079e-03,1.832304996e-04,2.961698579e-03,2.180853764e-03,1.651016349e-04,2.345955399e-03,2.147691527e-03,5.204533007e-05,2.199736857e-03,1.340459274e-03,3.432052430e-05,1.374779799e-03,1.191772433e-03,2.055204520e-05,1.212324478e-03,9.635507574e-04,-5.585112649e-06,9.579656447e-04,7.485853094e-04,5.229681077e-05,8.008821201e-04,7.322134056e-04,-3.614275750e-05,6.960706481e-04,1.662691961e-03,-1.487423913e-05,1.647817722e-03,1.132921112e-03,-5.567204177e-05,1.077249070e-03,2.016955779e-03,1.617578567e-05,2.033131565e-03,1.659544879e-03,-3.425224270e-05,1.625292637e-03,2.582711489e-03,6.239243853e-05,2.645103928e-03,2.502983027e-03,-6.086410058e-05,2.442118926e-03,2.977914673e-03,1.445417485e-04,3.122456422e-03,3.056470388e-03,3.209616652e-05,3.088566554e-03,2.814142984e-03,-5.186585463e-05,2.762277129e-03,2.952507789e-03,1.100874406e-05,2.963516533e-03,3.121496706e-03,-1.116863518e-05,3.110328071e-03,3.294604407e-03,1.010441698e-04,3.395648577e-03
-6.6,5.495565247e-04,1.884348074e-05,5.684000054e-04,1.015973125e-03,-4.860497960e-05,9.673681458e-04,1.296827277e-03,1.602735261e-04,1.457100803e-03,1.423294055e-03,4.819616591e-05,1.471490221e-03,1.207901168e-03,5.132195810e-05,1.259223126e-03,1.371254722e-03,1.177007703e-04,1.488955493e-03,1.930580261e-03,2.229731398e-04,2.153553400e-03,1.687981195e-03,-2.380922504e-05,1.664171970e-03,1.471073640e-03,8.923750903e-05,1.560311149e-03,1.405171504e-03,2.623828138e-05,1.431409785e-03,1.161959272e-03,-2.212084661e-05,1.139838425e-03,1.769883185e-03,-1.177858295e-04,1.652097356e-03,2.220009189e-03,5.728805972e-06,2.225737995e-03,1.516573094e-03,6.005083744e-05,1.576623931e-03,1.504407218e-03,1.899764480e-06,1.506306983e-03,2.010476743e-03,5.238709978e-06,2.015715453e-03,2.806281951e-03,1.717122232e-04,2.977994174e-03,2.168221297e-03,1.689289415e-04,2.337150238e-03,2.104772051e-03,5.597593217e-05,2.160747984e-03,1.311767694e-03,3.464983438e-05,1.346417528e-03,1.122543532e-03,1.752587182e-05,1.140069403e-03,9.179886812e-04,-5.972066788e-06,9.120166144e-04,7.014615734e-04,5.428545000e-05,7.557470234e-04,6.166898188e-04,-4.975672682e-05,5.669330919e-04,1.675802806e-03,-1.141970993e-05,1.664383096e-03,1.137072905e-03,-5.895839084e-05,1.078114514e-03,2.048234536e-03,2.843566793e-05,2.076670204e-03,1.686674688e-03,-4.079143372e-05,1.645883254e-03,2.597574151e-03,6.309451894e-05,2.660668670e-03,2.455644720e-03,-6.416506227e-05,2.391479658e-03,2.996475134e-03,1.502570669e-04,3.146732201e-03,3.014659475e-03,3.458975944e-05,3.049249234e-03,2.823757768e-03,-4.570422742e-05,2.778053541e-03,2.985817279e-03,1.540762563e-05,3.001224904e-03,3.100207200e-03,6.783889418e-07,3.100885589e-03,3.257833538e-03,1.016726032e-04,3.359506141e-03
-6.5,4.426780730e-04,3.140504460e-07,4.429921234e-04,9.206123325e-04,-5.342442376e-05,8.671879087e-04,1.205393796e-03,1.477206557e-04,1.353114452e-03,1.336162959e-03,4.200425117e-05,1.378167210e-03,1.151910867e-03,4.497275646e-05,1.196883623e-03,1.312516611e-03,1.086610385e-04,1.421177649e-03,1.873412042e-03,2.094751577e-04,2.082887199e-03,1.663943143e-03,-2.545067959e-05,1.638492463e-03,1.374457659e-03,7.550205349e-05,1.449959713e-03,1.366679330e-03,2.378005656e-05,1.390459386e-03,1.075019051e-03,-3.009890696e-05,1.044920144e-03,1.764664554e-03,-1.171487702e-04,1.647515784e-03,2.263557001e-03,-5.827343846e-07,2.262974266e-03,1.513207973e-03,5.661809222e-05,1.569826065e-03,1.527638113e-03,-7.118830464e-07,1.526926229e-03,2.025799070e-03,7.833491858e-06,2.033632562e-03,2.825589201e-03,1.602755931e-04,2.985864794e-03,2.149181334e-03,1.722222428e-04,2.321403577e-03,2.054650141e-03,5.977545582e-05,2.114425597e-03,1.280532215e-03,3.466062543e-05,1.315192840e-03,1.049536698e-03,1.434122796e-05,1.063877926e-03,8.693034624e-04,-6.342565347e-06,8.629608970e-04,6.481567762e-04,5.536683794e-05,7.035236142e-04,5.000510457e-04,-6.252510522e-05,4.375259405e-04,1.685179821e-03,-8.053034019e-06,1.677126787e-03,1.138619606e-03,-6.201522708e-05,1.076604379e-03,2.075430452e-03,4.102726468e-05,2.116457716e-03,1.710608074e-03,-4.703376520e-05,1.663574309e-03,2.606043096e-03,6.371841922e-05,2.669761515e-03,2.400728356e-03,-6.693994558e-05,2.333788410e-03,3.007098810e-03,1.561953411e-04,3.163294151e-03,2.963573387e-03,3.738643933e-05,3.000959827e-03,2.825325091e-03,-3.951393823e-05,2.785811152e-03,3.010212904e-03,1.997569529e-05,3.030188599e-03,3.069682189e-03,1.175526426e-05,3.081437453e-03,3.211501616e-03,1.021015965e-04,3.313603213e-03
-6.4,3.332373808e-04,-1.790448975e-05,3.153328911e-04,8.207681584e-04,-5.817754943e-05,7.625906090e-04,1.108043570e-03,1.344753038e-04,1.242518874e-03,1.244417357e-03,3.585455239e-05,1.280271910e-03,1.091952352e-03,3.825312596e-05,1.130205478e-03,1.250715048e-03,9.921354336e-05,1.349928591e-03,1.811732683e-03,1.954147020e-04,2.007147385e-03,1.636527206e-03,-2.718945837e-05,1.609337748e-03,1.274128198e-03,6.164252721e-05,1.335770725e-03,1.324961934e-03,2.102049524e-05,1.345982429e-03,9.840039474e-04,-3.825982157e-05,9.457441258e-04,1.754574957e-03,-1.160425709e-04,1.638532386e-03,2.301956680e-03,-7.661680565e-06,2.294294999e-03,1.505412050e-03,5.321495828e-05,1.558627009e-03,1.547758021e-03,-3.521560232e-06,1.544236461e-03,2.035384510e-03,1.044136507e-05,2.045825875e-03,2.835528769e-03,1.491866380e-04,2.984715407e-03,2.123375951e-03,1.749407788e-04,2.298316730e-03,1.997215272e-03,6.339376275e-05,2.060609035e-03,1.246612598e-03,3.436475836e-05,1.280977356e-03,9.729114607e-04,1.102794469e-05,9.839394054e-04,8.175255095e-04,-6.706045296e-06,8.108194642e-04,5.886181521e-04,5.550051798e-05,6.441186701e-04,3.828164389e-04,-7.435469339e-05,3.084617456e-04,1.690438062e-03,-4.789502115e-06,1.685648560e-03,1.137335181e-03,-6.484843008e-05,1.072486751e-03,2.098065077e-03,5.380340570e-05,2.151868483e-03,1.730851209e-03,-5.298115862e-05,1.677870051e-03,2.607519680e-03,6.424293038e-05,2.671762611e-03,2.337989116e-03,-6.920448794e-05,2.268784628e-03,3.009151478e-03,1.622670204e-04,3.171418499e-03,2.902920069e-03,4.040555410e-05,2.943325623e-03,2.818296605e-03,-3.333631289e-05,2.784960292e-03,3.025103921e-03,2.467489272e-05,3.049778814e-03,3.029561404e-03,2.200875300e-05,3.051570157e-03,3.155356156e-03,1.023350495e-04,3.257691205e-03
-6.3,2.217392572e-04,-3.572244136e-05,1.860168159e-04,7.166890564e-04,-6.285879977e-05,6.538302566e-04,1.005016566e-03,1.205680891e-04,1.125584655e-03,1.148200705e-03,2.976561062e-05,1.177966316e-03,1.028024675e-03,3.115550418e-05,1.059180179e-03,1.185709964e-03,8.939468292e-05,1.275104647e-03,1.745430836e-03,1.808222771e-04,1.926253113e-03,1.605512350e-03,-2.901697269e-05,1.576495377e-03,1.170195797e-03,4.768232177e-05,1.217878119e-03,1.279944621e-03,1.798685746e-05,1.297931479e-03,8.890436022e-04,-4.659639953e-05,8.424472026e-04,1.739294732e-03,-1.145691870e-04,1.624725545e-03,2.334559871e-03,-1.540731047e-05,2.319152560e-03,1.492853981e-03,4.983122612e-05,1.542685208e-03,1.564339940e-03,-6.531605878e-06,1.557808335e-03,2.038735963e-03,1.304038962e-05,2.051776352e-03,2.835314064e-03,1.386775350e-04,2.973991599e-03,2.090476061e-03,1.770421831e-04,2.267518245e-03,1.932400460e-03,6.678160784e-05,1.999182068e-03,1.209871866e-03,3.377542377e-05,1.243647289e-03,8.928388593e-04,7.613862447e-06,9.004527218e-04,7.627025085e-04,-7.071480976e-06,7.556310275e-04,5.229037028e-04,5.466672801e-05,5.775704308e-04,2.654587624e-04,-8.517442248e-05,1.802843399e-04,1.691208158e-03,-1.645564055e-06,1.689562594e-03,1.133005249e-03,-6.746686419e-05,1.065538385e-03,2.115665593e-03,6.661176942e-05,2.182277362e-03,1.746916202e-03,-5.863708468e-05,1.688279117e-03,2.601430871e-03,6.464580063e-05,2.666076671e-03,2.267223866e-03,-7.097913144e-05,2.196244734e-03,3.002028019e-03,1.683744845e-04,3.170402503e-03,2.832449305e-03,4.355850466e-05,2.876007810e-03,2.802152292e-03,-2.720922551e-05,2.774943067e-03,3.029939300e-03,2.946234766e-05,3.059401647e-03,2.979507646e-03,3.141223473e-05,3.010919880e-03,3.089189874e-03,1.023728568e-04,3.191562731e-03
-6.2,1.087136514e-04,-5.305528048e-05,5.565837094e-05,6.086673136e-04,-6.745901915e-05,5.412082944e-04,8.966244715e-04,1.060383302e-04,1.002662802e-03,1.047676326e-03,2.375235459e-05,1.071428681e-03,9.601610280e-04,2.367760111e-05,9.838386291e-04,1.117380560e-03,7.924321601e-05,1.196623776e-03,1.674412788e-03,1.657296297e-04,1.840142418e-03,1.570690644e-03,-3.092361378e-05,1.539767030e-03,1.062800507e-03,3.364760510e-05,1.096448112e-03,1.231561837e-03,1.470719776e-05,1.246269034e-03,7.903046857e-04,-5.509581395e-05,7.352088718e-04,1.718527416e-03,-1.128247703e-04,1.605702646e-03,2.360721582e-03,-2.370340655e-05,2.337018176e-03,1.475232414e-03,4.645578722e-05,1.521688202e-03,1.576959829e-03,-9.739142894e-06,1.567220686e-03,2.035388361e-03,1.560764401e-05,2.050996005e-03,2.824246059e-03,1.289408359e-04,2.953186894e-03,2.050187330e-03,1.784838418e-04,2.228671172e-03,1.860184910e-03,6.989146916e-05,1.930076379e-03,1.170178452e-03,3.290705012e-05,1.203085502e-03,8.095015592e-04,4.124948580e-06,8.136265077e-04,7.049000338e-04,-7.447241374e-06,6.974527924e-04,4.511792871e-04,5.286603113e-05,5.040453182e-04,1.484072615e-04,-9.493421703e-05,5.347304445e-05,1.687141124e-03,1.361274671e-06,1.688502398e-03,1.125430070e-03,-6.988216282e-05,1.055547907e-03,2.127768614e-03,7.929725281e-05,2.207065867e-03,1.758328136e-03,-6.400656854e-05,1.694321568e-03,2.587237086e-03,6.490344136e-05,2.652140528e-03,2.188276135e-03,-7.228850688e-05,2.115987628e-03,2.985160484e-03,1.744127550e-04,3.159573239e-03,2.751955020e-03,4.675213051e-05,2.798707151e-03,2.776408718e-03,-2.116620613e-05,2.755242512e-03,3.024213846e-03,3.429093294e-05,3.058504779e-03,2.919214627e-03,3.996308029e-05,2.959177708e-03,3.012844300e-03,1.022101268e-04,3.115054427e-03
-6.1,-5.285164377e-06,-6.982254234e-05,-7.510770672e-05,4.970383631e-04,-7.196548012e-05,4.250728830e-04,7.832492527e-04,9.093411949e-05,8.741833721e-04,9.430291149e-04,1.782635407e-05,9.608554690e-04,8.884285921e-04,1.582246932e-05,9.042510615e-04,1.045629140e-03,6.880015063e-05,1.114429290e-03,1.598605194e-03,1.501698148e-04,1.748775009e-03,1.531870082e-03,-3.289865267e-05,1.498971429e-03,9.521106129e-04,1.956707144e-05,9.716776843e-04,1.179758911e-03,1.121029579e-05,1.190969206e-03,6.879899944e-04,-6.373961358e-05,6.242503808e-04,1.692002593e-03,-1.108957321e-04,1.581106861e-03,2.379807650e-03,-3.242234151e-05,2.347385308e-03,1.452279821e-03,4.307703392e-05,1.495356855e-03,1.585201153e-03,-1.313586628e-05,1.572065287e-03,2.024915370e-03,1.811905525e-05,2.043034425e-03,2.801722079e-03,1.201265836e-04,2.921848663e-03,2.002255249e-03,1.792240608e-04,2.181479309e-03,1.780595427e-03,7.267806892e-05,1.853273496e-03,1.127408348e-03,3.177516060e-05,1.159183509e-03,7.230940911e-04,5.854156437e-07,7.236795068e-04,6.442019731e-04,-7.841053020e-06,6.363609201e-04,3.737137003e-04,5.011846381e-05,4.238321641e-04,3.205212311e-05,-1.036034688e-04,-7.155134564e-05,1.677912017e-03,4.212846861e-06,1.682124863e-03,1.114426679e-03,-7.210837105e-05,1.042318308e-03,2.133923204e-03,9.170461183e-05,2.225627816e-03,1.764630860e-03,-6.909613992e-05,1.695534720e-03,2.564439625e-03,6.499073525e-05,2.629430360e-03,2.101040483e-03,-7.316078372e-05,2.027879699e-03,2.958024868e-03,1.802710336e-04,3.138295902e-03,2.661277405e-03,4.989181129e-05,2.711169216e-03,2.740626499e-03,-1.523566747e-05,2.725390832e-03,3.007472996e-03,3.910989486e-05,3.046582890e-03,2.848414931e-03,4.767906594e-05,2.896093997e-03,2.926211973e-03,1.018366925e-04,3.028048665e-03
-6,-1.196806706e-04,-8.594697044e-05,-2.056276410e-04,3.821794380e-04,-7.636197621e-05,3.058174618e-04,6.653403258e-04,7.531227111e-05,7.406525969e-04,8.344670643e-04,1.199606245e-05,8.464631267e-04,8.129280991e-04,7.598633842e-06,8.205267329e-04,9.703848920e-04,5.810860013e-05,1.028493492e-03,1.517957833e-03,1.341773168e-04,1.652135150e-03,1.488877508e-03,-3.493016563e-05,1.453947342e-03,8.383214563e-04,5.471751946e-06,8.437932083e-04,1.124493964e-03,7.525561731e-06,1.132019525e-03,5.823374072e-04,-7.250382078e-05,5.098335865e-04,1.659479539e-03,-1.088557336e-04,1.550623806e-03,2.391202261e-03,-4.142778687e-05,2.349774474e-03,1.423766722e-03,3.968329355e-05,1.463450016e-03,1.588660453e-03,-1.670792635e-05,1.571952527e-03,2.006935366e-03,2.054962457e-05,2.027484991e-03,2.767241865e-03,1.123419679e-04,2.879583833e-03,1.946469895e-03,1.792231649e-04,2.125693059e-03,1.693707201e-03,7.509870130e-05,1.768805902e-03,1.081447837e-03,3.039616092e-05,1.111843998e-03,6.338236536e-04,-2.982249854e-06,6.308414037e-04,5.807112831e-04,-8.260070170e-06,5.724512129e-04,2.908725376e-04,4.646229466e-05,3.373348323e-04,-8.324984069e-05,-1.111692778e-04,-1.944191185e-04,1.663223139e-03,6.890904871e-06,1.670114044e-03,1.099830822e-03,-7.416138326e-05,1.025669439e-03,2.133694272e-03,1.036811922e-04,2.237375464e-03,1.765392382e-03,-7.391359883e-05,1.691478783e-03,2.532588900e-03,6.488125014e-05,2.597470150e-03,2.005466959e-03,-7.362695197e-05,1.931840007e-03,2.920147915e-03,1.858351660e-04,3.105983081e-03,2.560306245e-03,5.288408837e-05,2.613190334e-03,2.694418037e-03,-9.440306517e-06,2.684977730e-03,2.979317513e-03,4.386570885e-05,3.023183222e-03,2.766888126e-03,5.459459260e-05,2.821482719e-03,2.829238063e-03,1.012371512e-04,2.930475214e-03
-5.9,-2.338772041e-04,-1.013540101e-04,-3.352312142e-04,2.645081743e-04,-8.062893473e-05,1.838792396e-04,5.434107437e-04,5.923809598e-05,6.026488397e-04,7.222234052e-04,6.267108254e-06,7.284905135e-04,7.337937700e-04,-9.797326483e-07,7.328140373e-04,8.916083128e-04,4.721358121e-05,9.388218940e-04,1.432446829e-03,1.177881795e-04,1.550235008e-03,1.441562064e-03,-3.700508528e-05,1.404556979e-03,7.216546285e-04,-8.605228710e-06,7.130493998e-04,1.065740360e-03,3.682857887e-06,1.069423218e-03,4.736191018e-04,-8.135916455e-05,3.922599373e-04,1.620752962e-03,-1.067638751e-04,1.513989087e-03,2.394317608e-03,-5.057657764e-05,2.343741031e-03,1.389507301e-03,3.626324597e-05,1.425770547e-03,1.586955034e-03,-2.043589657e-05,1.566519138e-03,1.981117916e-03,2.287405054e-05,2.003991967e-03,2.720413085e-03,1.056528690e-04,2.826065954e-03,1.882671148e-03,1.784446526e-04,2.061115801e-03,1.599644735e-03,7.711354438e-05,1.676758279e-03,1.032197106e-03,2.878719808e-05,1.060984304e-03,5.419116893e-04,-6.557248797e-06,5.353544405e-04,5.145513050e-04,-8.710946008e-06,5.058403590e-04,2.031113164e-04,4.195247981e-05,2.450637962e-04,-1.971684141e-04,-1.176345435e-04,-3.148029576e-04,1.642807533e-03,9.377921063e-06,1.652185454e-03,1.081499422e-03,-7.605818741e-05,1.005441234e-03,2.126667350e-03,1.150797344e-04,2.241747084e-03,1.760210788e-03,-7.846746036e-05,1.681743328e-03,2.491293934e-03,6.454793228e-05,2.555841867e-03,1.901566102e-03,-7.372021121e-05,1.827845891e-03,2.871115131e-03,1.909906157e-04,3.062105746e-03,2.448986345e-03,5.563889825e-05,2.504625243e-03,2.637456524e-03,-3.796912131e-06,2.633659612e-03,2.939409345e-03,4.850316136e-05,2.987912506e-03,2.674469648e-03,6.075686034e-05,2.735226509e-03,2.721922337e-03,1.003915063e-04,2.822313843e-03
-5.8,-3.472638477e-04,-1.159717245e-04,-4.632355722e-04,1.444814055e-04,-8.474361721e-05,5.973778833e-05,4.180326123e-04,4.278487832e-05,4.608174907e-04,6.065596085e-04,6.426750105e-07,6.072022836e-04,6.511937803e-04,-9.892700361e-06,6.413010799e-04,8.092960749e-04,3.616171954e-05,8.454577944e-04,1.342078326e-03,1.010400959e-04,1.443118422e-03,1.389799088e-03,-3.910939140e-05,1.350689697e-03,6.023573923e-04,-2.262898694e-05,5.797284054e-04,1.003489613e-03,-2.877289020e-07,1.003201884e-03,3.621408838e-04,-9.027144546e-05,2.718694384e-04,1.575660418e-03,-1.046640610e-04,1.470996357e-03,2.388606302e-03,-5.972078937e-05,2.328885513e-03,1.349365733e-03,3.280630282e-05,1.382172036e-03,1.579732082e-03,-2.429487027e-05,1.555437212e-03,1.947191013e-03,2.506753871e-05,1.972258552e-03,2.660957616e-03,1.000864982e-04,2.761044114e-03,1.810754785e-03,1.768563459e-04,1.987611131e-03,1.498583381e-03,7.868606392e-05,1.577269445e-03,9.795743127e-04,2.696619624e-05,1.006540509e-03,4.475959592e-04,-1.012027654e-05,4.374756826e-04,4.458673648e-04,-9.199806154e-06,4.366675586e-04,1.109678341e-04,3.665882803e-05,1.476266621e-04,-3.093926492e-04,-1.230159637e-04,-4.324086129e-04,1.616433131e-03,1.165806973e-05,1.628091201e-03,1.059313872e-03,-7.781607975e-05,9.814977925e-04,2.112454900e-03,1.257612459e-04,2.238216146e-03,1.748721037e-03,-8.276617871e-05,1.665954858e-03,2.440232125e-03,6.396413085e-05,2.504196256e-03,1.789414091e-03,-7.347560181e-05,1.715938489e-03,2.810579812e-03,1.956254198e-04,3.006205232e-03,2.327324680e-03,5.807156838e-05,2.385396249e-03,2.569486145e-03,1.683248527e-06,2.571169393e-03,2.887478846e-03,5.296653495e-05,2.940445381e-03,2.571060579e-03,6.622204623e-05,2.637282625e-03,2.604321717e-03,9.927636972e-05,2.703598087e-03
-5.7,-4.592190909e-04,-1.297311917e-04,-5.889502826e-04,2.259372523e-05,-8.868055360e-05,-6.608682837e-05,2.898314655e-04,2.603296277e-05,3.158644283e-04,4.877685079e-04,-4.876032893e-06,4.828924750e-04,5.653306836e-04,-1.911465517e-05,5.462160285e-04,7.234852975e-04,2.500084994e-05,7.484861475e-04,1.246892065e-03,8.397244332e-05,1.330864508e-03,1.333493800e-03,-4.122834542e-05,1.292265455e-03,4.807019015e-04,-3.656325252e-05,4.441386490e-04,9.377541577e-04,-4.356077582e-06,9.333980802e-04,2.482410660e-04,-9.920199825e-05,1.490390678e-04,1.524089436e-03,-1.025852646e-04,1.421504172e-03,2.373574568e-03,-6.871053382e-05,2.304864034e-03,1.303261304e-03,2.930292561e-05,1.332564229e-03,1.566677044e-03,-2.825475493e-05,1.538422289e-03,1.904947894e-03,2.710657247e-05,1.932054466e-03,2.588718257e-03,9.563431427e-05,2.684352571e-03,1.730678967e-03,1.744314043e-04,1.905110371e-03,1.390751119e-03,7.978348508e-05,1.470534604e-03,9.235192985e-04,2.495196493e-05,9.484712634e-04,3.511324623e-04,-1.365320015e-05,3.374792621e-04,3.748280779e-04,-9.732160460e-06,3.650959175e-04,1.505336000e-05,3.066383954e-05,4.571719954e-05,-4.196239139e-04,-1.273420080e-04,-5.469659219e-04,1.583907208e-03,1.371818587e-05,1.597625394e-03,1.033183654e-03,-7.945207922e-05,9.537315743e-04,2.090703097e-03,1.355978474e-04,2.226300944e-03,1.730602015e-03,-8.681749424e-05,1.643784521e-03,2.379157423e-03,6.310473158e-05,2.442262155e-03,1.669156913e-03,-7.292982941e-05,1.596227083e-03,2.738271736e-03,1.996327844e-04,2.937904520e-03,2.195397829e-03,6.010461611e-05,2.255502445e-03,2.490331913e-03,6.993536352e-06,2.497325449e-03,2.823332206e-03,5.720086569e-05,2.880533072e-03,2.456637245e-03,7.105195739e-05,2.527689202e-03,2.476552776e-03,9.786666657e-05,2.574419442e-03
-5.6,-5.691164738e-04,-1.425673188e-04,-7.116837926e-04,-1.006249783e-04,-9.241228058e-05,-1.930372588e-04,1.594790720e-04,9.068492805e-06,1.685475648e-04,3.661763055e-04,-1.028929089e-05,3.558870146e-04,4.764409596e-04,-2.861457931e-05,4.478263803e-04,6.342560624e-04,1.377952677e-05,6.480355891e-04,1.146964080e-03,6.662627437e-05,1.213590354e-03,1.272584001e-03,-4.334666402e-05,1.229237337e-03,3.569838263e-04,-5.037071887e-05,3.066131074e-04,8.685693651e-04,-8.492152847e-06,8.600772123e-04,1.322884363e-04,-1.081082369e-04,2.418019935e-05,1.465982329e-03,-1.005425278e-04,1.365439802e-03,2.348793519e-03,-7.739761102e-05,2.271395908e-03,1.251170713e-03,2.574483606e-05,1.276915549e-03,1.547519360e-03,-3.228077374e-05,1.515238587e-03,1.854251826e-03,2.896952403e-05,1.883221350e-03,2.503664466e-03,9.225459705e-05,2.595919064e-03,1.642469822e-03,1.711492259e-04,1.813619048e-03,1.276429711e-03,8.037724863e-05,1.356806960e-03,8.639963449e-04,2.276415430e-05,8.867604992e-04,2.527966184e-04,-1.713877293e-05,2.356578455e-04,3.016258962e-04,-1.031285122e-05,2.913130450e-04,-8.395768221e-05,2.406023328e-05,-5.989744893e-05,-5.275700764e-04,-1.306509225e-04,-6.582209990e-04,1.545080260e-03,1.554852209e-05,1.560628782e-03,1.003049292e-03,-8.098263098e-05,9.220666606e-04,2.061097608e-03,1.444754544e-04,2.205573063e-03,1.705582647e-03,-9.062816355e-05,1.614954483e-03,2.307905654e-03,6.194722602e-05,2.369852880e-03,1.541012622e-03,-7.212114469e-05,1.468891478e-03,2.654004263e-03,2.029131133e-04,2.856917376e-03,2.053358076e-03,6.166935028e-05,2.115027426e-03,2.399907256e-03,1.213080173e-05,2.412038058e-03,2.746857473e-03,6.115333664e-05,2.808010810e-03,2.331259003e-03,7.531166108e-05,2.406570664e-03,2.338793353e-03,9.613764004e-05,2.434930993e-03
-5.5,-6.763313303e-04,-1.544198699e-04,-8.307512003e-04,-2.246135346e-04,-9.591029346e-05,-3.205238280e-04,2.768445471e-05,-8.018071219e-06,1.966638349e-05,2.421427110e-04,-1.559839513e-05,2.265443159e-04,3.847932503e-04,-3.835647800e-05,3.464367723e-04,5.417317703e-04,2.546466756e-06,5.442782371e-04,1.042408084e-03,4.904426509e-05,1.091452350e-03,1.207041463e-03,-4.544861696e-05,1.161592846e-03,2.315203151e-04,-6.401336488e-05,1.675069502e-04,7.959945908e-04,-1.266609816e-05,7.833284926e-04,1.467931400e-05,-1.169442827e-04,-1.022649687e-04,1.401338105e-03,-9.853862679e-05,1.302799478e-03,2.313907204e-03,-8.563979300e-05,2.228267411e-03,1.193127496e-03,2.212507808e-05,1.215252574e-03,1.522035226e-03,-3.633414759e-05,1.485701079e-03,1.795038196e-03,3.063704576e-05,1.825675242e-03,2.405895609e-03,8.987451997e-05,2.495770129e-03,1.546224930e-03,1.669963920e-04,1.713221322e-03,1.155954462e-03,8.044344775e-05,1.236397910e-03,8.009958810e-04,2.042298855e-05,8.214188695e-04,1.528834889e-04,-2.056047074e-05,1.323230181e-04,2.264767660e-04,-1.094603882e-05,2.155307272e-04,-1.853394860e-04,1.694827943e-05,-1.683912066e-04,-6.329410525e-04,-1.329887986e-04,-7.659298511e-04,1.499848535e-03,1.714335909e-05,1.516991895e-03,9.688839554e-04,-8.242346202e-05,8.864604934e-04,2.023368043e-03,1.522959699e-04,2.175664012e-03,1.673446097e-03,-9.420402482e-05,1.579242073e-03,2.226397010e-03,6.047269131e-05,2.286869701e-03,1.405271565e-03,-7.108920431e-05,1.334182361e-03,2.557679507e-03,2.053754248e-04,2.763054932e-03,1.901437356e-03,6.270734436e-05,1.964144700e-03,2.298218486e-03,1.709423843e-05,2.315312724e-03,2.658028386e-03,6.477473611e-05,2.722803122e-03,2.195073398e-03,7.906802185e-05,2.274141419e-03,2.191283225e-03,9.406669253e-05,2.285349917e-03
-5.4,-7.802483513e-04,-1.652345248e-04,-9.454828761e-04,-3.487849161e-04,-9.914603951e-05,-4.479309556e-04,-1.048165070e-04,-2.513354697e-05,-1.299500540e-04,1.160594090e-04,-2.080530335e-05,9.525410569e-05,2.906855109e-04,-4.829987242e-05,2.423856385e-04,4.460778530e-04,-8.650058057e-06,4.374277950e-04,9.333756626e-04,3.127061471e-05,9.646462773e-04,1.136872233e-03,-4.751810010e-05,1.089354133e-03,1.046475291e-04,-7.745276283e-05,2.719476624e-05,7.201135169e-04,-1.684834395e-05,7.032651730e-04,-1.041659283e-04,-1.256616351e-04,-2.298275635e-04,1.330212350e-03,-9.656616891e-05,1.233646181e-03,2.268637744e-03,-9.330490812e-05,2.175332836e-03,1.129219787e-03,1.843794597e-05,1.147657733e-03,1.490048596e-03,-4.037293531e-05,1.449675661e-03,1.727314516e-03,3.209223587e-05,1.759406751e-03,2.295640829e-03,8.839200536e-05,2.384032835e-03,1.442114455e-03,1.619677420e-04,1.604082197e-03,1.029712510e-03,7.996329853e-05,1.109675808e-03,7.345354383e-04,1.794894725e-05,7.524843855e-04,5.170719599e-05,-2.390236878e-05,2.780482722e-05,1.496190996e-04,-1.163511756e-05,1.379839821e-04,-2.883275847e-04,9.433090416e-06,-2.788944943e-04,-7.354455161e-04,-1.344077316e-04,-8.698532477e-04,1.448155024e-03,1.850165599e-05,1.466656680e-03,9.306936772e-04,-8.378937598e-05,8.469043012e-04,1.977291948e-03,1.589785271e-04,2.136270475e-03,1.634032061e-03,-9.755015116e-05,1.536481910e-03,2.134636666e-03,5.866676151e-05,2.193303427e-03,1.262295111e-03,-6.987485650e-05,1.192420254e-03,2.449291967e-03,2.069383412e-04,2.656230308e-03,1.739949165e-03,6.317185503e-05,1.803121020e-03,2.185366659e-03,2.188427020e-05,2.207250929e-03,2.556906453e-03,6.802072870e-05,2.624927181e-03,2.048319241e-03,8.238851299e-05,2.130707754e-03,2.034324355e-03,9.163462961e-05,2.125958985e-03
-5.3,-8.802692964e-04,-1.749639120e-04,-1.055233208e-03,-4.725323898e-04,-1.020918197e-04,-5.746242095e-04,-2.372720698e-04,-4.218368093e-05,-2.794557507e-04,-1.165225104e-05,-2.591239087e-05,-3.756464191e-05,1.944417908e-04,-5.840030018e-05,1.360414906e-04,3.474999188e-04,-1.976284430e-05,3.277370745e-04,8.200558286e-04,1.335090768e-05,8.334067363e-04,1.062116448e-03,-4.953871463e-05,1.012577733e-03,-2.328186009e-05,-9.065037485e-05,-1.139322349e-04,6.410342715e-04,-2.100972384e-05,6.200245477e-04,-2.238063551e-04,-1.342098025e-04,-3.580161576e-04,1.252716652e-03,-9.460970704e-05,1.158106945e-03,2.212789056e-03,-1.002740265e-04,2.112515029e-03,1.059588166e-03,1.467885580e-05,1.074267022e-03,1.451432309e-03,-4.435298181e-05,1.407079327e-03,1.651159614e-03,3.332069536e-05,1.684480310e-03,2.173255729e-03,8.767795289e-05,2.260933682e-03,1.330380654e-03,1.560674620e-04,1.486448116e-03,8.981402663e-04,7.892363068e-05,9.770638970e-04,6.646604520e-04,1.536256702e-05,6.800230191e-04,-5.039997717e-05,-2.714897464e-05,-7.754895181e-05,7.131249721e-05,-1.238248473e-05,5.893001248e-05,-3.921317338e-04,1.621975569e-06,-3.905097582e-04,-8.347884271e-04,-1.349641123e-04,-9.697525394e-04,1.389989466e-03,1.962774220e-05,1.409617208e-03,8.885168265e-04,-8.509389791e-05,8.034229286e-04,1.922699480e-03,1.644595450e-04,2.087159025e-03,1.587238025e-03,-1.006708517e-04,1.486567173e-03,2.032714948e-03,5.652046256e-05,2.089235411e-03,1.112513591e-03,-6.851974318e-05,1.043993848e-03,2.328931639e-03,2.075308244e-04,2.536462464e-03,1.569289307e-03,6.302912788e-05,1.632318435e-03,2.061548166e-03,2.650139365e-05,2.088049560e-03,2.443642397e-03,7.085275627e-05,2.514495154e-03,1.891328902e-03,8.533964396e-05,1.976668546e-03,1.868281179e-03,8.882633447e-05,1.957107514e-03
-5.2,-9.758200671e-04,-1.835686261e-04,-1.159388693e-03,-5.952355456e-04,-1.047215502e-04,-6.999570958e-04,-3.689252981e-04,-5.907479304e-05,-4.280000911e-04,-1.405432620e-04,-3.092225856e-05,-1.714655205e-04,9.640943670e-05,-6.860978280e-05,2.779965390e-05,2.462423678e-04,-3.074634430e-05,2.154960235e-04,7.026745887e-04,-4.668025458e-06,6.980065633e-04,9.828481786e-04,-5.149383354e-05,9.313543451e-04,-1.519008753e-04,-1.035678539e-04,-2.554687292e-04,5.588897903e-04,-2.512158299e-05,5.337682073e-04,-3.437835683e-04,-1.425368397e-04,-4.863204079e-04,1.169018701e-03,-9.264744847e-05,1.076371252e-03,2.146251382e-03,-1.064440500e-04,2.039807332e-03,9.844248217e-04,1.084423273e-05,9.952690545e-04,1.406110755e-03,-4.822892542e-05,1.357881829e-03,1.566723252e-03,3.431065285e-05,1.601033905e-03,2.039216931e-03,8.757956345e-05,2.126796495e-03,1.211336816e-03,1.493099133e-04,1.360646730e-03,7.617208140e-04,7.731733588e-05,8.390381499e-04,5.914454990e-04,1.268432848e-05,6.041298275e-04,-1.530882629e-04,-3.028506204e-05,-1.833733250e-04,-8.163359675e-06,-1.318922184e-05,-2.135258152e-05,-4.959482249e-04,-6.378080878e-06,-5.023263058e-04,-9.306692106e-04,-1.347170781e-04,-1.065386289e-03,1.325388449e-03,2.053178145e-05,1.345920230e-03,8.424236960e-04,-8.634883181e-05,7.560748642e-04,1.859479250e-03,1.686917779e-04,2.028171028e-03,1.533020703e-03,-1.035693711e-04,1.429451332e-03,1.920808148e-03,5.403041473e-05,1.974838563e-03,9.564238139e-04,-6.706564905e-05,8.893581648e-04,2.196787561e-03,2.070925718e-04,2.403880133e-03,1.389936390e-03,6.225938309e-05,1.452195773e-03,1.927055224e-03,3.094505298e-05,1.958000277e-03,2.318477895e-03,7.323864151e-05,2.391716537e-03,1.724530676e-03,8.798472080e-05,1.812515397e-03,1.693581093e-03,8.563120999e-05,1.779212303e-03
-5.1,-1.066356684e-03,-1.910181870e-04,-1.257374871e-03,-7.162657348e-04,-1.070113982e-04,-8.232771330e-04,-4.990238558e-04,-7.571532773e-05,-5.747391836e-04,-2.701381183e-04,-3.583748498e-05,-3.059756033e-04,-3.042970073e-06,-7.887725455e-05,-8.192022462e-05,1.425877304e-04,-4.155718237e-05,1.010305480e-04,5.814947674e-04,-2.273821680e-05,5.587565506e-04,8.991754750e-04,-5.336663320e-05,8.458088418e-04,-2.808300865e-04,-1.161673852e-04,-3.969974717e-04,4.738385277e-04,-2.915589423e-05,4.446826335e-04,-4.636244056e-04,-1.505898446e-04,-6.142142502e-04,1.079342992e-03,-9.065233667e-05,9.886906553e-04,2.069007784e-03,-1.117305184e-04,1.957277265e-03,9.039737319e-04,6.931418662e-06,9.109051505e-04,1.354063890e-03,-5.195530348e-05,1.302108587e-03,1.474226460e-03,3.505320801e-05,1.509279668e-03,1.894115371e-03,8.792529033e-05,1.982040661e-03,1.085366202e-03,1.417200113e-04,1.227086213e-03,6.209816270e-04,7.514374499e-05,6.961253720e-04,5.149959776e-04,9.934487862e-06,5.249304655e-04,-2.559907399e-04,-3.329559860e-05,-2.892863385e-04,-8.850961413e-05,-1.405483132e-05,-1.025644455e-04,-5.989713315e-04,-1.446274164e-05,-6.134340732e-04,-1.022780845e-03,-1.337271228e-04,-1.156507968e-03,1.254436242e-03,2.122975706e-05,1.275665999e-03,7.925166061e-04,-8.756382440e-05,7.049527817e-04,1.787584941e-03,1.716428998e-04,1.959227841e-03,1.471398092e-03,-1.062472758e-04,1.365150817e-03,1.799179727e-03,5.119800313e-05,1.850377730e-03,7.945859594e-04,-6.555363117e-05,7.290323282e-04,2.053151595e-03,2.055738562e-04,2.258725451e-03,1.202452302e-03,6.085719556e-05,1.263309498e-03,1.782276460e-03,3.521285190e-05,1.817489311e-03,2.181747520e-03,7.515306794e-05,2.256900588e-03,1.548451234e-03,9.038091335e-05,1.638832147e-03,1.510715064e-03,8.204349041e-05,1.592758555e-03
-5,-1.151370330e-03,-1.972918376e-04,-1.348662168e-03,-8.349911892e-04,-1.089403261e-04,-9.439315153e-04,-6.268290048e-04,-9.201725674e-05,-7.188462615e-04,-3.999356102e-04,-4.066028258e-05,-4.405958928e-04,-1.035273998e-04,-8.914900328e-05,-1.926764031e-04,3.685593449e-05,-5.215461308e-05,-1.529867859e-05,4.568157350e-04,-4.081064347e-05,4.160050915e-04,8.112402257e-04,-5.514011128e-05,7.561001144e-04,-4.096793621e-04,-1.284120720e-04,-5.380914342e-04,3.860651168e-04,-3.308540299e-05,3.529797138e-04,-5.828436373e-04,-1.583154992e-04,-7.411591366e-04,9.839711781e-04,-8.859285051e-05,8.953783276e-04,1.981140999e-03,-1.160708223e-04,1.865070177e-03,8.185301677e-04,2.938556963e-06,8.214687246e-04,1.295330743e-03,-5.548782750e-05,1.239842916e-03,1.373961698e-03,3.554253424e-05,1.409504232e-03,1.738647861e-03,8.853139221e-05,1.827179253e-03,9.529206723e-04,1.333331675e-04,1.086253840e-03,4.764922128e-04,7.240893019e-05,5.489011430e-04,4.354495027e-04,7.132837901e-06,4.425823406e-04,-3.587238376e-04,-3.616576754e-05,-3.948896051e-04,-1.694093738e-04,-1.497710448e-05,-1.843864782e-04,-7.004040257e-04,-2.253233473e-05,-7.229363604e-04,-1.110810366e-03,-1.320548860e-04,-1.242865252e-03,1.177265926e-03,2.174300978e-05,1.199008936e-03,7.389300374e-04,-8.874594802e-05,6.501840894e-04,1.707041278e-03,1.732942846e-04,1.880335563e-03,1.402451383e-03,-1.087037565e-04,1.293747626e-03,1.668180397e-03,4.802773771e-05,1.716208135e-03,6.276192734e-04,-6.402299205e-05,5.635962813e-04,1.898420933e-03,2.029348997e-04,2.101355833e-03,1.007482049e-03,5.883099523e-05,1.066313044e-03,1.627696476e-03,3.930036618e-05,1.666996842e-03,2.033879852e-03,7.657793382e-05,2.110457786e-03,1.363717096e-03,9.257577516e-05,1.456292871e-03,1.320237901e-03,7.806221509e-05,1.398300116e-03
-4.9,-1.230392006e-03,-2.023790853e-04,-1.432771091e-03,-9.507825118e-04,-1.104905686e-04,-1.061273080e-03,-7.516242525e-04,-1.078973511e-04,-8.595216037e-04,-5.294103607e-04,-4.539213558e-05,-5.748024963e-04,-2.046387089e-04,-9.936919345e-05,-3.040079024e-04,-7.059764016e-05,-6.250094184e-05,-1.330985820e-04,3.289723752e-04,-5.883531204e-05,2.701370632e-04,7.192172982e-04,-5.679713529e-05,6.624201629e-04,-5.380498687e-04,-1.402663082e-04,-6.783161769e-04,2.957803642e-04,-3.688377406e-05,2.588965901e-04,-7.009471370e-04,-1.656606642e-04,-8.666078012e-04,8.832411791e-04,-8.643427408e-05,7.968069050e-04,1.882837438e-03,-1.194271944e-04,1.763410243e-03,7.284378461e-04,-1.135564569e-06,7.273022816e-04,1.230010351e-03,-5.878476154e-05,1.171225589e-03,1.266291440e-03,3.577579158e-05,1.302067232e-03,1.573605966e-03,8.920915688e-05,1.662815123e-03,8.145182183e-04,1.241949177e-04,9.387131359e-04,3.288608334e-04,6.912591335e-05,3.979867468e-04,3.529761615e-04,4.298528053e-06,3.572746895e-04,-4.608887574e-04,-3.888098790e-05,-4.997697453e-04,-2.505295904e-04,-1.595207508e-05,-2.664816655e-04,-7.994681624e-04,-3.049349796e-05,-8.299616604e-04,-1.194441020e-03,-1.297602022e-04,-1.324201223e-03,1.094059769e-03,2.209746315e-05,1.116157232e-03,6.818298146e-04,-8.989926166e-05,5.919305529e-04,1.617947766e-03,1.736402709e-04,1.791588036e-03,1.326325529e-03,-1.109352404e-04,1.215390289e-03,1.528245700e-03,4.452548019e-05,1.572771181e-03,4.561962120e-04,-6.251018858e-05,3.936860235e-04,1.733097644e-03,1.991452642e-04,1.932242908e-03,8.057520956e-04,5.620154665e-05,8.619536422e-04,1.463893090e-03,4.320149365e-05,1.507094583e-03,1.875396513e-03,7.750240331e-05,1.952898917e-03,1.171053459e-03,9.460384957e-05,1.265657309e-03,1.122767349e-03,7.369079322e-05,1.196458142e-03
-4.8,-1.302997170e-03,-2.062799596e-04,-1.509277130e-03,-1.063018952e-03,-1.116480370e-04,-1.174666989e-03,-8.727238971e-04,-1.232783482e-04,-9.960022453e-04,-6.580159096e-04,-5.003352859e-05,-7.080494382e-04,-3.059580014e-04,-1.094804840e-04,-4.154384854e-04,-1.793858512e-04,-7.256188025e-05,-2.519477314e-04,1.983329049e-04,-7.676135865e-05,1.215715462e-04,6.233126980e-04,-5.832053302e-05,5.649921650e-04,-6.655364965e-04,-1.516960607e-04,-8.172325573e-04,2.032202351e-04,-4.052567308e-05,1.626945620e-04,-8.174356922e-04,-1.725729371e-04,-9.900086294e-04,7.775444773e-04,-8.414067000e-05,6.934038073e-04,1.774386275e-03,-1.217886453e-04,1.652597630e-03,6.340834042e-04,-5.291667568e-06,6.287917367e-04,1.158259497e-03,-6.180817659e-05,1.096451320e-03,1.151644492e-03,3.575264025e-05,1.187397132e-03,1.399862349e-03,8.977115570e-05,1.489633504e-03,6.707388077e-04,1.143603114e-04,7.850991191e-04,1.787297486e-04,6.531473543e-05,2.440444840e-04,2.677773434e-04,1.450024263e-06,2.692273676e-04,-5.620741374e-04,-4.142688126e-05,-6.035010186e-04,-3.315238163e-04,-1.697399922e-05,-3.484978156e-04,-8.954141004e-04,-3.826045437e-05,-9.336745547e-04,-1.273355798e-03,-1.269014563e-04,-1.400257254e-03,1.005048361e-03,2.232244857e-05,1.027370810e-03,6.214108080e-04,-9.102438198e-05,5.303864260e-04,1.520479539e-03,1.726875761e-04,1.693167115e-03,1.243227775e-03,-1.129355303e-04,1.130292245e-03,1.379890799e-03,4.069712365e-05,1.420587922e-03,2.810352653e-04,-6.104787062e-05,2.199873946e-04,1.557784786e-03,1.941836131e-04,1.751968399e-03,5.980667347e-04,5.299954900e-05,6.510662837e-04,1.291531803e-03,4.690902866e-05,1.338440832e-03,1.706908566e-03,7.792258262e-05,1.784831148e-03,9.712787727e-04,9.648447828e-05,1.067763251e-03,9.189813927e-04,6.893643938e-05,9.879178321e-04
-4.7,-1.368810304e-03,-2.090050232e-04,-1.577815327e-03,-1.171095292e-03,-1.124026228e-04,-1.283497915e-03,-9.894813122e-04,-1.380899600e-04,-1.127571272e-03,-7.851893497e-04,-5.458379637e-05,-8.397731460e-04,-4.070568698e-04,-1.194246644e-04,-5.264815342e-04,-2.890948557e-04,-8.230676465e-05,-3.714016203e-04,6.529567133e-05,-9.453715128e-05,-2.924147995e-05,5.237609457e-04,-5.969319460e-05,4.640677511e-04,-7.917305925e-04,-1.626690444e-04,-9.543996369e-04,1.086439858e-04,-4.398675677e-05,6.465722899e-05,-9.318092017e-04,-1.790010885e-04,-1.110810290e-03,6.673212799e-04,-8.167694073e-05,5.856443392e-04,1.656174052e-03,-1.231711627e-04,1.533002889e-03,5.358892921e-04,-9.530070948e-06,5.263592212e-04,1.080288364e-03,-6.452489124e-05,1.015763473e-03,1.030510316e-03,3.547450823e-05,1.065984824e-03,1.218355782e-03,9.003537241e-05,1.308391154e-03,5.222185460e-04,1.038930517e-04,6.261115977e-04,2.676907076e-05,6.100232414e-05,8.777139489e-05,1.800835724e-04,-1.394863636e-06,1.786887087e-04,-6.618596446e-04,-4.378926542e-05,-7.056489101e-04,-4.120355178e-04,-1.803537623e-05,-4.300708940e-04,-9.875295320e-04,-4.575596405e-05,-1.033285496e-03,-1.347241724e-03,-1.235351704e-04,-1.470776895e-03,9.105087206e-04,2.244897988e-05,9.329577005e-04,5.578934549e-04,-9.211818043e-05,4.657752745e-04,1.414885754e-03,1.704543760e-04,1.585340130e-03,1.153424239e-03,-1.146963412e-04,1.038727898e-03,1.223703265e-03,3.654795866e-05,1.260251224e-03,1.028931502e-04,-5.966419813e-05,4.322895211e-05,1.373180078e-03,1.880376387e-04,1.561217716e-03,3.853023396e-04,4.926286014e-05,4.345651997e-04,1.111358150e-03,5.041522851e-05,1.161773379e-03,1.529110614e-03,7.784096641e-05,1.606951581e-03,7.652947382e-04,9.822159993e-05,8.635163381e-04,7.096138099e-04,6.380978934e-05,7.734235992e-04
-4.6,-1.427508975e-03,-2.105751530e-04,-1.638084128e-03,-1.274428741e-03,-1.127483466e-04,-1.387177087e-03,-1.101296525e-03,-1.522696016e-04,-1.253566127e-03,-9.103568262e-04,-5.904104473e-05,-9.693978710e-04,-5.075018957e-04,-1.291431923e-04,-6.366450880e-04,-3.992896010e-04,-9.170857875e-05,-4.909981798e-04,-6.971454015e-05,-1.121103859e-04,-1.818249261e-04,4.208221722e-04,-6.089816627e-05,3.599240059e-04,-9.162226325e-04,-1.731548471e-04,-1.089377480e-03,1.233197702e-05,-4.724363389e-05,-3.491165687e-05,-1.043570720e-03,-1.848953787e-04,-1.228466099e-03,5.530541285e-04,-7.901031225e-05,4.740438163e-04,1.528676829e-03,-1.236157290e-04,1.405061100e-03,4.343069250e-04,-1.385071245e-05,4.204562126e-04,9.963561416e-04,-6.690709563e-05,9.294490460e-04,9.034323286e-04,3.494391615e-05,9.383762448e-04,1.030076056e-03,8.982745967e-05,1.119903516e-03,3.696426666e-04,9.286434224e-05,4.625070088e-04,-1.263301739e-04,5.622212794e-05,-7.010804594e-05,9.015215825e-05,-4.218982640e-06,8.593317561e-05,-7.598197823e-04,-4.595428034e-05,-8.057740626e-04,-4.917014049e-04,-1.912703102e-05,-5.108284359e-04,-1.075147223e-03,-5.291197454e-05,-1.128059197e-03,-1.415794163e-03,-1.197156666e-04,-1.535509829e-03,8.107617696e-04,2.250771296e-05,8.332694825e-04,4.915198962e-04,-9.317364903e-05,3.983462472e-04,1.301486274e-03,1.669690773e-04,1.468455351e-03,1.057235435e-03,-1.162080252e-04,9.410274096e-04,1.060335173e-03,3.208272125e-05,1.092417895e-03,-7.744285307e-05,-5.838238309e-05,-1.358252362e-04,1.180068723e-03,1.807037776e-04,1.360772501e-03,1.683996151e-04,4.503407019e-05,2.134336853e-04,9.241889914e-04,5.371237068e-05,9.779013621e-04,1.342773693e-03,7.726578487e-05,1.420039477e-03,5.540732003e-04,9.980527845e-05,6.538784788e-04,4.954487617e-04,5.832468023e-05,5.537734419e-04
-4.5,-1.478826879e-03,-2.110210738e-04,-1.689847953e-03,-1.372465108e-03,-1.126832925e-04,-1.485148400e-03,-1.207622484e-03,-1.657627580e-04,-1.373385242e-03,-1.032938841e-03,-6.340207849e-05,-1.096340919e-03,-6.068586365e-04,-1.385775754e-04,-7.454362119e-04,-5.095187408e-04,-1.007437837e-04,-6.102625244e-04,-2.062500394e-04,-1.294281985e-04,-3.356782379e-04,3.147794827e-04,-6.191876316e-05,2.528607195e-04,-1.038604465e-03,-1.831250947e-04,-1.221729560e-03,-8.541625436e-05,-5.027387984e-05,-1.356901342e-04,-1.152229850e-03,-1.902078294e-04,-1.342437679e-03,4.352613437e-04,-7.611105613e-05,3.591502876e-04,1.392452108e-03,-1.231840987e-04,1.269268009e-03,3.298116588e-04,-1.825315956e-05,3.115584992e-04,9.067682998e-04,-6.893273761e-05,8.378355622e-04,7.710013523e-04,3.416407276e-05,8.051654250e-04,8.360498496e-04,8.898221125e-05,9.250320609e-04,2.137380995e-04,8.135147547e-05,2.950895749e-04,-2.798629627e-04,5.101354760e-05,-2.288494151e-04,-1.734655784e-06,-7.005850649e-06,-8.740506433e-06,-8.555272729e-04,-4.790860267e-05,-9.034358755e-04,-5.701543582e-04,-2.023819812e-05,-5.903925563e-04,-1.157651377e-03,-5.966995781e-05,-1.217321335e-03,-1.478720485e-03,-1.154946790e-04,-1.594215164e-03,7.061694708e-04,2.252715749e-05,7.286966283e-04,4.225505313e-04,-9.417985393e-05,3.283706774e-04,1.180667429e-03,1.622692729e-04,1.342936702e-03,9.550319657e-04,-1.174604311e-04,8.375715347e-04,8.904955807e-04,2.730621198e-05,9.178017926e-04,-2.591618608e-04,-5.722037676e-05,-3.163822376e-04,9.793163883e-04,1.721867596e-04,1.151503148e-03,-5.164565268e-05,4.035899860e-05,-1.128665408e-05,7.309038397e-04,5.679335806e-05,7.876971977e-04,1.148738253e-03,7.621019136e-05,1.224948445e-03,3.386421117e-04,1.012141249e-04,4.398562365e-04,2.773152803e-04,5.249784751e-05,3.298131279e-04
-4.4,-1.522555420e-03,-2.103826468e-04,-1.732938067e-03,-1.464683724e-03,-1.122093382e-04,-1.576893063e-03,-1.307969504e-03,-1.785230274e-04,-1.486492531e-03,-1.152354509e-03,-6.766229081e-05,-1.220016800e-03,-7.046946556e-04,-1.476696548e-04,-8.523643103e-04,-6.193185544e-04,-1.093920204e-04,-7.287105748e-04,-3.438432360e-04,-1.464373234e-04,-4.902805594e-04,2.059368582e-04,-6.273874298e-05,1.431981152e-04,-1.158471084e-03,-1.925536909e-04,-1.351024775e-03,-1.842834754e-04,-5.305610388e-05,-2.373395793e-04,-1.257305420e-03,-1.948924951e-04,-1.452197915e-03,3.144911990e-04,-7.295258307e-05,2.415386159e-04,1.248131343e-03,-1.219526168e-04,1.126178727e-03,2.228996965e-04,-2.273662985e-05,2.001630666e-04,8.118755700e-04,-7.058567452e-05,7.412898955e-04,6.338499879e-04,3.313872958e-05,6.669887175e-04,6.373285109e-04,8.734512637e-05,7.246736373e-04,5.526621195e-05,6.943628061e-05,1.247024926e-04,-4.331165051e-04,4.542124695e-05,-3.876952581e-04,-9.527100156e-05,-9.739610118e-06,-1.050106117e-04,-9.485558776e-04,-4.963958475e-05,-9.981954624e-04,-6.470259272e-04,-2.135653916e-05,-6.683824663e-04,-1.234482520e-03,-6.598093843e-05,-1.300463458e-03,-1.535742913e-03,-1.109209214e-04,-1.646663834e-03,5.971318760e-04,2.253250373e-05,6.196643797e-04,3.512614152e-04,-9.512193165e-05,2.561394835e-04,1.052877441e-03,1.564012805e-04,1.209278722e-03,8.472311279e-04,-1.184438982e-04,7.287872297e-04,7.149435619e-04,2.222425465e-05,7.371678165e-04,-4.414355685e-04,-5.619075881e-05,-4.976263273e-04,7.718619833e-04,1.624993867e-04,9.343613701e-04,-2.737926527e-04,3.528616669e-05,-2.385064860e-04,5.324367256e-04,5.965226280e-05,5.920889884e-04,9.479078187e-04,7.469125164e-05,1.022599070e-03,1.200716678e-04,1.024182364e-04,2.224899043e-04,5.608197075e-05,4.634837409e-05,1.024303448e-04
-4.3,-1.558543785e-03,-2.087079948e-04,-1.767251779e-03,-1.550601179e-03,-1.113317846e-04,-1.661932964e-03,-1.401907900e-03,-1.905119578e-04,-1.592419858e-03,-1.268024861e-03,-7.181549537e-05,-1.339840356e-03,-8.005818799e-04,-1.563619001e-04,-9.569437800e-04,-7.282163969e-04,-1.176357598e-04,-8.458521568e-04,-4.820093252e-04,-1.630843012e-04,-6.450936264e-04,9.461734882e-05,-6.334252851e-05,3.127482031e-05,-1.275422288e-03,-2.014170714e-04,-1.476839359e-03,-2.839361511e-04,-5.556998966e-05,-3.395061408e-04,-1.358327918e-03,-1.989057278e-04,-1.557233646e-03,1.913165002e-04,-6.951132453e-05,1.218051757e-04,1.096411857e-03,-1.200046433e-04,9.764072139e-04,1.140853277e-04,-2.729997433e-05,8.678535338e-05,7.120728262e-04,-7.185555002e-05,6.402172762e-04,4.926475507e-04,3.187216035e-05,5.245197110e-04,4.349777096e-04,8.477452182e-05,5.197522315e-04,-1.049842142e-04,5.720351211e-05,-4.778070205e-05,-5.853757167e-04,3.949442411e-05,-5.458812926e-04,-1.901287875e-04,-1.240492100e-05,-2.025337085e-04,-1.038483048e-03,-5.113524717e-05,-1.089618295e-03,-7.219487634e-04,-2.246814457e-05,-7.444169080e-04,-1.305141073e-03,-7.180527029e-05,-1.376946343e-03,-1.586600952e-03,-1.060397219e-04,-1.692640674e-03,4.840841264e-04,2.254495369e-05,5.066290801e-04,2.779422421e-04,-9.598121267e-05,1.819610295e-04,9.186214714e-04,1.494202455e-04,1.068041717e-03,7.342938639e-04,-1.191502357e-04,6.151436282e-04,5.344807655e-04,1.684475864e-05,5.513255241e-04,-6.234242005e-04,-5.530086450e-05,-6.787250650e-04,5.587089718e-04,1.516627415e-04,7.103717133e-04,-4.969661066e-04,2.986676050e-05,-4.670993461e-04,3.297681036e-04,6.228460666e-05,3.920527103e-04,7.412424295e-04,7.272896717e-05,8.139713966e-04,-1.005396844e-04,1.033827745e-04,2.843090108e-06,-1.673485349e-04,3.989695875e-05,-1.274515762e-04
-4.2,-1.586697968e-03,-2.060525639e-04,-1.792750532e-03,-1.629774517e-03,-1.100589901e-04,-1.739833507e-03,-1.489069383e-03,-2.016987520e-04,-1.690768135e-03,-1.379376186e-03,-7.585372597e-05,-1.455229912e-03,-8.940990889e-04,-1.645977701e-04,-1.058696859e-03,-8.357347103e-04,-1.254599395e-04,-9.611946498e-04,-6.202492745e-04,-1.793157100e-04,-7.995649845e-04,-1.883900855e-05,-6.371540016e-05,-8.255440871e-05,-1.389064654e-03,-2.096943831e-04,-1.598759037e-03,-3.840263444e-04,-5.779626044e-05,-4.418226049e-04,-1.454842262e-03,-2.022064205e-04,-1.657048683e-03,6.632871422e-05,-6.576700272e-05,5.617115036e-07,9.380464546e-04,-1.174227307e-04,8.206237240e-04,3.896574164e-06,-3.194158596e-05,-2.804501179e-05,6.077957658e-04,-7.273742276e-05,5.350583431e-04,3.480943451e-04,3.036919247e-05,3.784635375e-04,2.300677239e-04,8.114447075e-05,3.112121947e-04,-2.662042752e-04,4.473922618e-05,-2.214650490e-04,-7.359284892e-04,3.328603676e-05,-7.026424525e-04,-2.859599554e-04,-1.498688725e-05,-3.009468427e-04,-1.124892964e-03,-5.238423295e-05,-1.177277197e-03,-7.945594197e-04,-2.355765872e-05,-8.181170784e-04,-1.369189970e-03,-7.711222771e-05,-1.446302197e-03,-1.631054167e-03,-1.008928174e-04,-1.731946984e-03,3.674929623e-04,2.258127974e-05,3.900742421e-04,2.028940926e-04,-9.673554682e-05,1.061585458e-04,7.784556258e-04,1.413905163e-04,9.198461420e-04,6.167206642e-04,-1.195734462e-04,4.971472180e-04,3.499421522e-04,1.117884720e-05,3.611209994e-04,-8.042830066e-04,-5.455300356e-05,-8.588360102e-04,3.409141614e-04,1.397066088e-04,4.806207703e-04,-7.200675100e-04,2.415447056e-05,-6.959130394e-04,1.239155742e-04,6.468738128e-05,1.886029555e-04,5.297503893e-04,7.034567146e-05,6.000960607e-04,-3.220798833e-04,1.040719968e-04,-2.180078865e-04,-3.920461967e-04,3.316523187e-05,-3.588809648e-04
-4.1,-1.606979410e-03,-2.024781377e-04,-1.809457548e-03,-1.701804630e-03,-1.084020122e-04,-1.810206643e-03,-1.569147912e-03,-2.120598429e-04,-1.781207755e-03,-1.485844507e-03,-7.976706270e-05,-1.565611570e-03,-9.848352012e-04,-1.723220921e-04,-1.157157293e-03,-9.413962646e-04,-1.328515989e-04,-1.074247863e-03,-7.580536285e-04,-1.950784056e-04,-9.531320342e-04,-1.340779858e-04,-6.384358233e-05,-1.979215681e-04,-1.499014018e-03,-2.173675497e-04,-1.716381567e-03,-4.841944689e-04,-5.971660694e-05,-5.439110758e-04,-1.546411183e-03,-2.047562444e-04,-1.751167428e-03,-5.986899160e-05,-6.170350787e-05,-1.215724995e-04,7.738305061e-04,-1.142821719e-04,6.595483342e-04,-1.071314615e-04,-3.665926987e-05,-1.437907314e-04,4.995146055e-04,-7.323125219e-05,4.262833533e-04,2.009142696e-04,2.863532305e-05,2.295495926e-04,2.366318549e-05,7.634856548e-05,1.000117510e-04,-4.275731056e-04,3.212927487e-05,-3.954438307e-04,-8.840713803e-04,2.685188005e-05,-8.572195003e-04,-3.823999136e-04,-1.747108945e-05,-3.998710031e-04,-1.207380280e-03,-5.337584238e-05,-1.260756123e-03,-8.645017137e-04,-2.460858479e-05,-8.891102985e-04,-1.426256515e-03,-8.187941924e-05,-1.508135934e-03,-1.668885757e-03,-9.551832447e-05,-1.764404081e-03,2.478520804e-04,2.265356059e-05,2.705056410e-04,1.264261682e-04,-9.735973425e-05,2.906643392e-05,6.329792586e-04,1.323860095e-04,7.653652681e-04,4.950455153e-04,-1.197101078e-04,3.753354075e-04,1.621845720e-04,5.242089994e-06,1.674266620e-04,-9.831697543e-04,-5.394454884e-05,-1.037114303e-03,1.195740513e-04,1.266697353e-04,2.462437867e-04,-9.419871894e-04,1.820487490e-05,-9.237823145e-04,-8.407742440e-05,6.685902090e-05,-1.721840350e-05,3.144775957e-04,6.756586578e-05,3.820434615e-04,-5.434383602e-04,1.044531097e-04,-4.389852505e-04,-6.170617718e-04,2.617529447e-05,-5.908864773e-04
-4,-1.619403705e-03,-1.980517563e-04,-1.817455461e-03,-1.766340083e-03,-1.063741885e-04,-1.872714271e-03,-1.641900315e-03,-2.215783488e-04,-1.863478664e-03,-1.586881442e-03,-8.354355351e-05,-1.670424995e-03,-1.072393433e-03,-1.794813951e-04,-1.251874828e-03,-1.044730493e-03,-1.397995339e-04,-1.184530027e-03,-8.949071993e-04,-2.103197833e-04,-1.105226983e-03,-2.507346888e-04,-6.371421079e-05,-3.144488996e-04,-1.604898320e-03,-2.244212470e-04,-1.829319567e-03,-5.840728182e-04,-6.131363921e-05,-6.453864574e-04,-1.632619043e-03,-2.065198896e-04,-1.839138933e-03,-1.866700821e-04,-5.730990897e-05,-2.439799911e-04,6.045878936e-04,-1.106470168e-04,4.939408768e-04,-2.184647681e-04,-4.145014555e-05,-2.599149137e-04,3.877255945e-04,-7.334135126e-05,3.143842432e-04,5.184565505e-05,2.667694753e-05,7.852260257e-05,-1.831877066e-04,7.030397542e-05,-1.128837312e-04,-5.882670449e-04,1.945809529e-05,-5.688089496e-04,-1.029115959e-03,2.024946117e-05,-1.008866497e-03,-4.790719531e-04,-1.984365976e-05,-4.989156129e-04,-1.285554579e-03,-5.410012537e-05,-1.339654704e-03,-9.314305662e-04,-2.560366747e-05,-9.570342337e-04,-1.476033492e-03,-8.609199372e-05,-1.562125486e-03,-1.699906905e-03,-8.995089413e-05,-1.789857799e-03,1.256761221e-04,2.276922771e-05,1.484453498e-04,4.885133456e-05,-9.782586437e-05,-4.897452982e-05,4.828256140e-04,1.224903683e-04,6.053159823e-04,3.698281865e-04,-1.195595283e-04,2.502686582e-04,-2.792571325e-05,-9.443594430e-07,-2.887007269e-05,-1.159253068e-03,-5.346782894e-05,-1.212720897e-03,-1.041901897e-04,1.125996726e-04,8.409482944e-06,-1.161616938e-03,1.207439229e-05,-1.149542546e-03,-2.931545511e-04,6.879940377e-05,-2.243551474e-04,9.649507635e-05,6.441620177e-05,1.609112781e-04,-7.635208055e-04,1.044995237e-04,-6.590212818e-04,-8.414363781e-04,1.894949150e-05,-8.224868866e-04
-3.9,-1.624039409e-03,-1.928445505e-04,-1.816883960e-03,-1.823081023e-03,-1.039906348e-04,-1.927071658e-03,-1.707146512e-03,-2.302434738e-04,-1.937389986e-03,-1.681960883e-03,-8.716929197e-05,-1.769130175e-03,-1.156395792e-03,-1.860241748e-04,-1.342419967e-03,-1.145280112e-03,-1.462939789e-04,-1.291574091e-03,-1.030294237e-03,-2.249880772e-04,-1.255282314e-03,-3.684374495e-04,-6.331520712e-05,-4.317526566e-04,-1.706360501e-03,-2.308428078e-04,-1.937203309e-03,-6.832894713e-04,-6.257086961e-05,-7.458603409e-04,-1.713075687e-03,-2.074652697e-04,-1.920540957e-03,-3.134740797e-04,-5.258090959e-05,-3.660549893e-04,4.311578383e-04,-1.065685003e-04,3.245893380e-04,-3.295785120e-04,-4.631058785e-05,-3.758890999e-04,2.729421089e-04,-7.307583798e-05,1.998662710e-04,-9.836883932e-05,2.450164121e-05,-7.386719811e-05,-3.894636922e-04,6.295498326e-05,-3.265087090e-04,-7.474693614e-04,6.807843001e-06,-7.406615184e-04,-1.170395583e-03,1.353676850e-05,-1.156858814e-03,-5.755921155e-04,-2.209123793e-05,-5.976833534e-04,-1.359045124e-03,-5.454794403e-05,-1.413593068e-03,-9.950159581e-04,-2.652521319e-05,-1.021541171e-03,-1.518279269e-03,-8.974165480e-05,-1.608020923e-03,-1.723961443e-03,-8.422208491e-05,-1.808183528e-03,1.493787793e-06,2.293147436e-05,2.442526215e-05,-2.951900959e-05,-9.810347764e-05,-1.276224872e-04,3.286517753e-04,1.117966811e-04,4.404484565e-04,2.416458449e-04,-1.191237752e-04,1.225220697e-04,-2.195246052e-04,-7.353138315e-06,-2.268777435e-04,-1.331720954e-03,-5.310996884e-05,-1.384830923e-03,-3.292476277e-04,9.755218089e-05,-2.316954469e-04,-1.377862699e-03,5.819070638e-06,-1.372043628e-03,-5.022596848e-04,7.050974362e-05,-4.317499412e-04,-1.231138740e-04,6.092526221e-05,-6.218861176e-05,-9.812625803e-04,1.041936097e-04,-8.770689707e-04,-1.064211590e-03,1.151039399e-05,-1.052701196e-03
-3.8,-1.621006610e-03,-1.869305990e-04,-1.807937209e-03,-1.871782428e-03,-1.012677078e-04,-1.973050135e-03,-1.764769005e-03,-2.380499013e-04,-2.002818907e-03,-1.770585444e-03,-9.062864929e-05,-1.861214093e-03,-1.236487050e-03,-1.919010945e-04,-1.428388145e-03,-1.242606941e-03,-1.523262803e-04,-1.394933221e-03,-1.163703410e-03,-2.390326791e-04,-1.402736089e-03,-4.868115409e-04,-6.263507917e-05,-5.494466201e-04,-1.803061038e-03,-2.366220790e-04,-2.039683117e-03,-7.814720100e-04,-6.347269478e-05,-8.449447048e-04,-1.787419817e-03,-2.075636407e-04,-1.994983458e-03,-4.396958043e-04,-4.751656355e-05,-4.872123678e-04,2.543846655e-04,-1.020850611e-04,1.522996044e-04,-4.399633617e-04,-5.123614025e-05,-4.911995019e-04,1.556872702e-04,-7.244602597e-05,8.324124425e-05,-2.489919090e-04,2.211843873e-05,-2.268734703e-04,-5.941799116e-04,5.427552198e-05,-5.399043897e-04,-9.043796765e-04,-5.742266454e-06,-9.101219430e-04,-1.307272053e-03,6.771132683e-06,-1.300500921e-03,-6.715738022e-04,-2.420073758e-05,-6.957745398e-04,-1.427505214e-03,-5.471100059e-05,-1.482216215e-03,-1.054946487e-03,-2.735532379e-05,-1.082301811e-03,-1.552816573e-03,-9.282557163e-05,-1.645642144e-03,-1.740930121e-03,-7.836095627e-05,-1.819291077e-03,-1.241590863e-04,2.313995803e-05,-1.010191283e-04,-1.083797865e-04,-9.815964741e-05,-2.065394339e-04,1.711293388e-04,1.004065092e-04,2.715358480e-04,1.110850732e-04,-1.184075741e-04,-7.322500864e-06,-4.117591771e-04,-1.395080087e-05,-4.257099779e-04,-1.499788681e-03,-5.285288914e-05,-1.552641570e-03,-5.544710647e-04,8.159038397e-05,-4.728806807e-04,-1.589656456e-03,-5.064897375e-07,-1.590162946e-03,-7.103487472e-04,7.199237639e-05,-6.383563708e-04,-3.432655701e-04,5.712305473e-05,-2.861425154e-04,-1.195639923e-03,1.035290798e-04,-1.092110843e-03,-1.284439114e-03,3.881001066e-06,-1.280558113e-03
-3.7,-1.610474812e-03,-1.803858956e-04,-1.790860708e-03,-1.912256039e-03,-9.822248586e-05,-2.010478525e-03,-1.814711308e-03,-2.449971586e-04,-2.059708466e-03,-1.852291726e-03,-9.390454953e-05,-1.946196275e-03,-1.312337534e-03,-1.970651324e-04,-1.509402666e-03,-1.336296170e-03,-1.578885094e-04,-1.494184680e-03,-1.294632028e-03,-2.524044476e-04,-1.547036475e-03,-6.054822980e-04,-6.166267362e-05,-6.671449716e-04,-1.894679901e-03,-2.417512950e-04,-2.136431196e-03,-8.782506002e-04,-6.400437355e-05,-9.422549738e-04,-1.855321547e-03,-2.067896522e-04,-2.062111199e-03,-5.647727652e-04,-4.212169164e-05,-6.068944569e-04,7.511157211e-05,-9.722298088e-05,-2.211140877e-05,-5.491292509e-04,-5.622135854e-05,-6.053506094e-04,3.648912289e-05,-7.146572906e-05,-3.497660616e-05,-3.992997235e-04,1.953815625e-05,-3.797615673e-04,-7.963958023e-04,4.427072961e-05,-7.521250727e-04,-1.058222198e-03,-1.811662025e-05,-1.076338818e-03,-1.439141512e-03,8.357621907e-09,-1.439133154e-03,-7.666315838e-04,-2.615904605e-05,-7.927906298e-04,-1.490615476e-03,-5.458190345e-05,-1.545197379e-03,-1.110932149e-03,-2.807614466e-05,-1.139008294e-03,-1.579529927e-03,-9.534527849e-05,-1.674875206e-03,-1.750733884e-03,-7.239476872e-05,-1.823128653e-03,-2.507457991e-04,2.339169967e-05,-2.273540994e-04,-1.874359930e-04,-9.795912363e-05,-2.853951166e-04,1.093679528e-05,8.842817370e-05,9.936496899e-05,-2.126492644e-05,-1.174180497e-04,-1.386829762e-04,-6.037938585e-04,-2.069851289e-05,-6.244923714e-04,-1.662705498e-03,-5.267359634e-05,-1.715379094e-03,-7.787486899e-04,6.478397652e-05,-7.139647134e-04,-1.795966396e-03,-6.849982926e-06,-1.802816379e-03,-9.163996186e-04,7.325071142e-05,-8.431489072e-04,-5.628860660e-04,5.304040065e-05,-5.098456654e-04,-1.405678465e-03,1.025126393e-04,-1.303165826e-03,-1.501189393e-03,-3.914916799e-06,-1.505104310e-03
-3.6,-1.592659987e-03,-1.732873812e-04,-1.765947368e-03,-1.944370919e-03,-9.487228253e-05,-2.039243202e-03,-1.856975326e-03,-2.510889269e-04,-2.108064253e-03,-1.926654185e-03,-9.697864577e-05,-2.023632831e-03,-1.383644780e-03,-2.014717190e-04,-1.585116499e-03,-1.425959275e-03,-1.629730249e-04,-1.588932300e-03,-1.422589502e-03,-2.650559977e-04,-1.687645500e-03,-7.240776363e-04,-6.038694386e-05,-7.844645801e-04,-1.980918060e-03,-2.462250514e-04,-2.227143112e-03,-9.732604270e-04,-6.415203541e-05,-1.037412462e-03,-1.916484253e-03,-2.051214152e-04,-2.121605668e-03,-6.881702810e-04,-3.640553481e-05,-7.245758158e-04,-1.058230145e-04,-9.199697957e-05,-1.978199940e-04,-6.566074079e-04,-6.125962905e-05,-7.178670370e-04,-8.412242110e-05,-7.015060310e-05,-1.542730242e-04,-5.485884319e-04,1.677378945e-05,-5.318146424e-04,-9.952212831e-04,3.297745772e-05,-9.622438254e-04,-1.208252384e-03,-3.024397733e-05,-1.238496361e-03,-1.565439331e-03,-6.697784049e-06,-1.572137115e-03,-8.603843073e-04,-2.795281650e-05,-8.883371238e-04,-1.548086077e-03,-5.415430169e-05,-1.602240378e-03,-1.162706432e-03,-2.867021522e-05,-1.191376647e-03,-1.598362200e-03,-9.730560422e-05,-1.695667804e-03,-1.753336033e-03,-6.634959189e-05,-1.819685625e-03,-3.777342149e-04,2.368207519e-05,-3.540521397e-04,-2.664052418e-04,-9.746458591e-05,-3.638698277e-04,-1.512464226e-04,7.597460147e-05,-7.527182113e-05,-1.548179766e-04,-1.161643015e-04,-2.709822781e-04,-7.948150957e-04,-2.755297130e-05,-8.223680670e-04,-1.819760370e-03,-5.254473671e-05,-1.872305107e-03,-1.000994529e-03,4.720869799e-05,-9.537858306e-04,-1.995805044e-03,-1.316217639e-05,-2.008967221e-03,-1.119420611e-03,7.428946093e-05,-1.045131151e-03,-7.809197928e-04,4.870842347e-05,-7.322113693e-04,-1.610459118e-03,1.011642721e-04,-1.509294845e-03,-1.713559057e-03,-1.185252782e-05,-1.725411584e-03
-3.5,-1.567821086e-03,-1.657119387e-04,-1.733533024e-03,-1.968053195e-03,-9.123419744e-05,-2.059287392e-03,-1.891618096e-03,-2.563323568e-04,-2.147950453e-03,-1.993288283e-03,-9.983137018e-05,-2.093119653e-03,-1.450134780e-03,-2.050789432e-04,-1.655213723e-03,-1.511236600e-03,-1.675720589e-04,-1.678808659e-03,-1.547100568e-03,-2.769419843e-04,-1.824042552e-03,-8.422303687e-04,-5.879679881e-05,-9.010271675e-04,-2.061498960e-03,-2.500403789e-04,-2.311539338e-03,-1.066143932e-03,-6.390272353e-05,-1.130046655e-03,-1.970646209e-03,-2.025406397e-04,-2.173186848e-03,-8.093856267e-04,-3.038174044e-05,-8.397673671e-04,-2.875897286e-04,-8.641072568e-05,-3.740004543e-04,-7.619525455e-04,-6.634302238e-05,-8.282955679e-04,-2.056189375e-04,-6.851767987e-05,-2.741366174e-04,-6.961800971e-04,1.384090486e-05,-6.823391923e-04,-1.189821956e-03,2.046336444e-05,-1.169358591e-03,-1.353762511e-03,-4.205821053e-05,-1.395820722e-03,-1.685644256e-03,-1.329570448e-05,-1.698939960e-03,-9.524581996e-04,-2.956834370e-05,-9.820265433e-04,-1.599658477e-03,-5.342301309e-05,-1.653081490e-03,-1.210028208e-03,-2.912087233e-05,-1.239149081e-03,-1.609310984e-03,-9.871364538e-05,-1.708024629e-03,-1.748743619e-03,-6.025068919e-05,-1.808994308e-03,-5.046017210e-04,2.400577480e-05,-4.805959461e-04,-3.450197233e-04,-9.663697608e-05,-4.416566994e-04,-3.147451743e-04,6.316123026e-05,-2.515839440e-04,-2.889963168e-04,-1.146568255e-04,-4.036531423e-04,-9.840361555e-04,-3.446743800e-05,-1.018503593e-03,-1.970287333e-03,-5.243527123e-05,-2.022722604e-03,-1.220158737e-03,2.894605007e-05,-1.191212687e-03,-2.188236164e-03,-1.939774183e-05,-2.207633906e-03,-1.318458438e-03,7.511489364e-05,-1.243343545e-03,-9.963377409e-04,4.415818880e-05,-9.521795521e-04,-1.809121980e-03,9.951584019e-05,-1.709606140e-03,-1.920677669e-03,-1.990581955e-05,-1.940583488e-03
-3.4,-1.536256497e-03,-1.577353557e-04,-1.693991853e-03,-1.983285669e-03,-8.732474268e-05,-2.070610412e-03,-1.918748433e-03,-2.607374836e-04,-2.179485916e-03,-2.051853909e-03,-1.024419647e-04,-2.154295874e-03,-1.511563545e-03,-2.078478782e-04,-1.719411423e-03,-1.591800536e-03,-1.716773994e-04,-1.763477935e-03,-1.667708845e-03,-2.880193862e-04,-1.955728231e-03,-9.595807376e-04,-5.688103396e-05,-1.016461772e-03,-2.136170271e-03,-2.531968150e-04,-2.389367086e-03,-1.156553357e-03,-6.324441623e-05,-1.219797773e-03,-2.017582423e-03,-1.990327991e-04,-2.216615222e-03,-9.279528127e-04,-2.406836463e-05,-9.520211773e-04,-4.693753987e-04,-8.045769549e-05,-5.498330942e-04,-8.647465707e-04,-7.146218518e-05,-9.362087559e-04,-3.274786796e-04,-6.658507991e-05,-3.940637595e-04,-8.414291196e-04,1.075789444e-05,-8.306712252e-04,-1.379424789e-03,6.824492674e-06,-1.372600296e-03,-1.494087028e-03,-5.349878486e-05,-1.547585813e-03,-1.799282209e-03,-1.973596630e-05,-1.819018175e-03,-1.042490568e-03,-3.099141310e-05,-1.073481981e-03,-1.645107372e-03,-5.238405339e-05,-1.697491425e-03,-1.252683880e-03,-2.941257239e-05,-1.282096452e-03,-1.612425277e-03,-9.957782438e-05,-1.712003101e-03,-1.737008450e-03,-5.412271477e-05,-1.791131165e-03,-6.308402087e-04,2.435757132e-05,-6.064826373e-04,-4.230283338e-04,-9.543590017e-05,-5.184642340e-04,-4.788942526e-04,5.010436370e-05,-4.287898889e-04,-4.232366877e-04,-1.129068231e-04,-5.361435109e-04,-1.170702855e-03,-4.139298035e-05,-1.212095836e-03,-2.113670843e-03,-5.231120372e-05,-2.165982047e-03,-1.435238249e-03,1.008300559e-05,-1.425155243e-03,-2.372381715e-03,-2.551591667e-05,-2.397897632e-03,-1.512606320e-03,7.573487438e-05,-1.436871446e-03,-1.208146122e-03,3.942046672e-05,-1.168725655e-03,-2.000869288e-03,9.760833890e-05,-1.903260949e-03,-2.121714331e-03,-2.804758179e-05,-2.149761913e-03
