Time,S1D1HbO,S1D1HbR,S1D1HbT,S2D2HbO,S2D2HbR,S2D2HbT,S3D3HbO,S3D3HbR,S3D3HbT,S4D4HbO,S4D4HbR,S4D4HbT,S5D5HbO,S5D5HbR,S5D5HbT,S6D6HbO,S6D6HbR,S6D6HbT,S7D7HbO,S7D7HbR,S7D7HbT,S8D8HbO,S8D8HbR,S8D8HbT,S9D9HbO,S9D9HbR,S9D9HbT,S10D10HbO,S10D10HbR,S10D10HbT,S11D11HbO,S11D11HbR,S11D11HbT,S12D12HbO,S12D12HbR,S12D12HbT,S13D13HbO,S13D13HbR,S13D13HbT,S14D14HbO,S14D14HbR,S14D14HbT,S15D15HbO,S15D15HbR,S15D15HbT,S16D16HbO,S16D16HbR,S16D16HbT,S17D17HbO,S17D17HbR,S17D17HbT,S18D18HbO,S18D18HbR,S18D18HbT,S19D19HbO,S19D19HbR,S19D19HbT,S20D20HbO,S20D20HbR,S20D20HbT,S21D21HbO,S21D21HbR,S21D21HbT,S22D22HbO,S22D22HbR,S22D22HbT,S23D23HbO,S23D23HbR,S23D23HbT,S24D24HbO,S24D24HbR,S24D24HbT,S25D25HbO,S25D25HbR,S25D25HbT,S26D26HbO,S26D26HbR,S26D26HbT,S27D27HbO,S27D27HbR,S27D27HbT,S28D28HbO,S28D28HbR,S28D28HbT,S29D29HbO,S29D29HbR,S29D29HbT,S30D30HbO,S30D30HbR,S30D30HbT,S31D31HbO,S31D31HbR,S31D31HbT,S32D32HbO,S32D32HbR,S32D32HbT,S33D33HbO,S33D33HbR,S33D33HbT,S34D34HbO,S34D34HbR,S34D34HbT,S35D35HbO,S35D35HbR,S35D35HbT,S36D36HbO,S36D36HbR,S36D36HbT,
-10,-1.246000632e-03,-4.961306437e-04,-1.742131275e-03,-4.882166850e-04,-1.188848384e-04,-6.071015234e-04,-1.332236916e-03,-3.468364589e-04,-1.679073375e-03,-2.530578081e-04,-3.257910672e-05,-2.856369149e-04,1.555298407e-04,-1.348941281e-04,2.063571256e-05,1.456783300e-03,-1.707565156e-04,1.286026785e-03,1.688561598e-03,-3.959429223e-05,1.648967305e-03,2.143925187e-03,-2.935607919e-04,1.850364395e-03,4.151956406e-04,8.850500959e-05,5.037006502e-04,8.133408323e-04,-3.293663803e-04,4.839744521e-04,-3.261533698e-04,-2.269596776e-04,-5.531130474e-04,-1.368817973e-06,8.431753341e-05,8.294871544e-05,8.487968957e-04,-5.329590665e-05,7.955009890e-04,4.457961661e-04,1.217569867e-04,5.675531528e-04,3.304857398e-04,1.387397748e-04,4.692255146e-04,2.186919859e-03,-2.177501243e-04,1.969169735e-03,3.133462866e-03,-2.691434260e-04,2.864319440e-03,1.783392551e-03,-2.235278673e-04,1.559864684e-03,1.705825151e-03,-3.631668695e-05,1.669508464e-03,1.155126246e-03,-2.504605338e-04,9.046657127e-04,-4.131756211e-04,-1.912391575e-04,-6.044147786e-04,5.109189929e-05,-4.413356464e-05,6.958334649e-06,-1.085481610e-03,-2.497474578e-04,-1.335229068e-03,-7.977085700e-04,-1.869404557e-04,-9.846490257e-04,1.510224274e-03,-1.332780477e-04,1.376946226e-03,1.137524158e-03,-1.880262734e-04,9.494978844e-04,2.025416736e-03,-1.071237561e-04,1.918292979e-03,1.362799577e-03,-1.067098122e-04,1.256089765e-03,2.795666622e-03,-1.404812917e-04,2.655185330e-03,1.637691246e-03,-1.777021495e-04,1.459989096e-03,3.009436406e-03,-1.546704187e-05,2.993969364e-03,1.528932488e-03,-9.808488721e-05,1.430847601e-03,2.808648776e-03,-1.557147491e-04,2.652934027e-03,2.836406974e-03,-8.780118716e-05,2.748605787e-03,2.143155832e-03,-2.371898135e-04,1.905966019e-03,2.608890758e-03,-6.650177986e-05,2.542388978e-03
-9.9,-1.305860043e-03,-4.945001886e-04,-1.800360231e-03,-5.500015917e-04,-1.216636439e-04,-6.716652356e-04,-1.395781217e-03,-3.487125554e-04,-1.744493773e-03,-3.145371170e-04,-3.632457589e-05,-3.508616928e-04,1.119171854e-04,-1.423866700e-04,-3.046948463e-05,1.389508228e-03,-1.755171373e-04,1.213991091e-03,1.628535917e-03,-5.105447076e-05,1.577481446e-03,2.092521729e-03,-2.952626153e-04,1.797259113e-03,3.430301815e-04,7.738150883e-05,4.204116903e-04,7.615648318e-04,-3.278707668e-04,4.336940650e-04,-4.077609454e-04,-2.298935923e-04,-6.376545376e-04,2.149589315e-05,7.155008017e-05,9.304597333e-05,9.092726091e-04,-6.814608232e-05,8.411265267e-04,4.382594662e-04,1.213298660e-04,5.595893322e-04,3.619179190e-04,1.306030029e-04,4.925209220e-04,2.150862961e-03,-2.114297574e-04,1.939433204e-03,3.083978352e-03,-2.727995237e-04,2.811178828e-03,1.707961817e-03,-2.211825639e-04,1.486779253e-03,1.616496105e-03,-3.452793716e-05,1.581968168e-03,1.093652240e-03,-2.481107680e-04,8.455414720e-04,-4.741791803e-04,-1.867776202e-04,-6.609568005e-04,1.522712533e-06,-4.277548310e-05,-4.125277057e-05,-1.157436071e-03,-2.468914656e-04,-1.404327537e-03,-8.538346960e-04,-1.844988963e-04,-1.038333592e-03,1.497599303e-03,-1.286545369e-04,1.368944766e-03,1.122436651e-03,-1.905569310e-04,9.318797198e-04,2.042205784e-03,-1.109603919e-04,1.931245392e-03,1.368510982e-03,-1.106568059e-04,1.257854176e-03,2.755143164e-03,-1.424999163e-04,2.612643247e-03,1.545756428e-03,-1.742294920e-04,1.371526936e-03,2.939544246e-03,-1.203457455e-05,2.927509672e-03,1.419622744e-03,-9.030574572e-05,1.329316998e-03,2.736373526e-03,-1.495665073e-04,2.586807019e-03,2.763696528e-03,-8.571159171e-05,2.677984936e-03,2.041089014e-03,-2.278508503e-04,1.813238164e-03,2.501017073e-03,-7.035741189e-05,2.430659661e-03
-9.8,-1.366395857e-03,-4.937327613e-04,-1.860128618e-03,-6.128982868e-04,-1.246764024e-04,-7.375746892e-04,-1.460025090e-03,-3.511885433e-04,-1.811213633e-03,-3.776701920e-04,-4.016550454e-05,-4.178356965e-04,6.721134108e-05,-1.500633414e-04,-8.285200034e-05,1.319217640e-03,-1.801394889e-04,1.139078151e-03,1.566376214e-03,-6.244619341e-05,1.503930020e-03,2.038828319e-03,-2.967544089e-04,1.742073911e-03,2.693563751e-04,6.606085030e-05,3.354172254e-04,7.093010274e-04,-3.260185553e-04,3.832824722e-04,-4.894264392e-04,-2.328392095e-04,-7.222656487e-04,4.261432770e-05,5.759904233e-05,1.002133700e-04,9.676155805e-04,-8.422530040e-05,8.833902801e-04,4.278397882e-04,1.208908523e-04,5.487306405e-04,3.909955095e-04,1.227075815e-04,5.137030911e-04,2.110039516e-03,-2.050006479e-04,1.905038868e-03,3.027253973e-03,-2.758208012e-04,2.751433172e-03,1.628254739e-03,-2.186480321e-04,1.409606706e-03,1.523504665e-03,-3.284570454e-05,1.490658961e-03,1.031076522e-03,-2.456455571e-04,7.854309652e-04,-5.358988532e-04,-1.825198302e-04,-7.184186834e-04,-4.820400868e-05,-4.147062628e-05,-8.967463496e-05,-1.227697740e-03,-2.439207662e-04,-1.471618507e-03,-9.090054817e-04,-1.821146634e-04,-1.091120145e-03,1.482476029e-03,-1.243986162e-04,1.358077413e-03,1.105330732e-03,-1.931110828e-04,9.122196491e-04,2.054385695e-03,-1.147887823e-04,1.939596913e-03,1.372311468e-03,-1.148058297e-04,1.257505638e-03,2.710184519e-03,-1.446938687e-04,2.565490650e-03,1.450469583e-03,-1.707421358e-04,1.279727447e-03,2.865541431e-03,-9.253458460e-06,2.856287973e-03,1.307955533e-03,-8.262097346e-05,1.225334560e-03,2.658881823e-03,-1.433903349e-04,2.515491488e-03,2.686440976e-03,-8.377617892e-05,2.602664797e-03,1.936558828e-03,-2.183738076e-04,1.718185021e-03,2.389072296e-03,-7.448682477e-05,2.314585471e-03
-9.7,-1.427112150e-03,-4.937963369e-04,-1.920908487e-03,-6.764976446e-04,-1.279197014e-04,-8.044173461e-04,-1.524506157e-03,-3.542196326e-04,-1.878725790e-03,-4.421070323e-04,-4.409968522e-05,-4.862067175e-04,2.162940984e-05,-1.578899968e-04,-1.362605870e-04,1.246144449e-03,-1.846201629e-04,1.061524286e-03,1.502198069e-03,-7.374895791e-05,1.428449111e-03,1.982876055e-03,-2.980307163e-04,1.684845339e-03,1.943904376e-04,5.454852982e-05,2.489389675e-04,6.567059520e-04,-3.237988531e-04,3.329070989e-04,-5.707677229e-04,-2.357736928e-04,-8.065414156e-04,6.201991051e-05,4.252643467e-05,1.045463452e-04,1.023625458e-03,-1.014286549e-04,9.221968033e-04,4.146351409e-04,1.204212039e-04,5.350563448e-04,4.177084216e-04,1.150584309e-04,5.327668525e-04,2.064650973e-03,-1.984930316e-04,1.866157942e-03,2.963569145e-03,-2.781574198e-04,2.685411725e-03,1.544616363e-03,-2.159192297e-04,1.328697133e-03,1.427280909e-03,-3.127958854e-05,1.396001321e-03,9.675475140e-04,-2.430661241e-04,7.244813899e-04,-5.978847148e-04,-1.784483813e-04,-7.763330961e-04,-9.781935436e-05,-4.022736669e-05,-1.380467210e-04,-1.295771894e-03,-2.408218066e-04,-1.536593700e-03,-9.627819120e-04,-1.797993398e-04,-1.142581252e-03,1.464878532e-03,-1.205250839e-04,1.344353448e-03,1.086262087e-03,-1.956685621e-04,8.905935250e-04,2.061871109e-03,-1.185765432e-04,1.943294566e-03,1.374170101e-03,-1.191409687e-04,1.255029133e-03,2.660836668e-03,-1.470654692e-04,2.513771199e-03,1.352126302e-03,-1.672318476e-04,1.184894455e-03,2.787686833e-03,-7.173294687e-06,2.780513538e-03,1.194467853e-03,-7.513099912e-05,1.119336854e-03,2.576487953e-03,-1.372373294e-04,2.439250624e-03,2.604978556e-03,-8.199833221e-05,2.522980224e-03,1.829921565e-03,-2.086796543e-04,1.621241910e-03,2.273492498e-03,-7.883099394e-05,2.194661504e-03
-9.6,-1.487472396e-03,-4.946347016e-04,-1.982107098e-03,-7.403586699e-04,-1.313838642e-04,-8.717425341e-04,-1.588721960e-03,-3.577438166e-04,-1.946465777e-03,-5.074717339e-04,-4.812425096e-05,-5.555959849e-04,-2.459673698e-05,-1.658305560e-04,-1.904272929e-04,1.170546733e-03,-1.889554782e-04,9.815912544e-04,1.436131527e-03,-8.494075743e-05,1.351190770e-03,1.924709002e-03,-2.990858769e-04,1.625623125e-03,1.183665211e-04,4.285356771e-05,1.612200888e-04,6.039375132e-04,-3.212019778e-04,2.827355355e-04,-6.513931779e-04,-2.386715602e-04,-8.900647381e-04,7.976127859e-05,2.641921517e-05,1.061804938e-04,1.077101708e-03,-1.196246949e-04,9.574770131e-04,3.987828284e-04,1.198989975e-04,5.186818259e-04,4.420692299e-04,1.076537615e-04,5.497229914e-04,2.014924100e-03,-1.919364018e-04,1.822987698e-03,2.893245767e-03,-2.797702434e-04,2.613475523e-03,1.457418276e-03,-2.129933284e-04,1.244424948e-03,1.328279923e-03,-2.983759840e-05,1.298442325e-03,9.032282029e-04,-2.403740308e-04,6.628541721e-04,-6.596761001e-04,-1.745442752e-04,-8.342203753e-04,-1.470489942e-04,-3.905312842e-05,-1.861021226e-04,-1.361171130e-03,-2.375816837e-04,-1.598752814e-03,-1.014725608e-03,-1.775631928e-04,-1.192288801e-03,1.444849942e-03,-1.170467060e-04,1.327803236e-03,1.065300270e-03,-1.982089814e-04,8.670912885e-04,2.064603560e-03,-1.222884090e-04,1.942315151e-03,1.374068279e-03,-1.236463806e-04,1.250421899e-03,2.607167691e-03,-1.496136835e-04,2.457554008e-03,1.251049070e-03,-1.636937619e-04,1.087355308e-03,2.706262955e-03,-5.839796789e-06,2.700423158e-03,1.079709707e-03,-6.793632766e-05,1.011773379e-03,2.489533654e-03,-1.311541384e-04,2.358379516e-03,2.519667388e-03,-8.037927467e-05,2.439288114e-03,1.721533074e-03,-1.986839681e-04,1.522849106e-03,2.154737356e-03,-8.332950031e-05,2.071407856e-03
-9.5,-1.546903750e-03,-4.961669787e-04,-2.043070729e-03,-8.040118793e-04,-1.350527200e-04,-9.390645994e-04,-1.652132859e-03,-3.616820780e-04,-2.013814937e-03,-5.733649020e-04,-5.223568765e-05,-6.256005896e-04,-7.122209488e-05,-1.738471258e-04,-2.450692207e-04,1.092706620e-03,-1.931411994e-04,8.995654208e-04,1.368321036e-03,-9.599802869e-05,1.272323007e-03,1.864384959e-03,-2.999139787e-04,1.564470981e-03,4.153548446e-05,3.098865082e-05,7.252413528e-05,5.511541771e-04,-3.182195269e-04,2.329346503e-04,-7.309041818e-04,-2.415047154e-04,-9.724088972e-04,9.590290801e-05,9.387572402e-06,1.052904804e-04,1.127849056e-03,-1.386585713e-04,9.891904842e-04,3.804593938e-04,1.192996034e-04,4.997589972e-04,4.641131436e-04,1.004858987e-04,5.645990423e-04,1.961109839e-03,-1.853600117e-04,1.775749827e-03,2.816645585e-03,-2.806333056e-04,2.536012280e-03,1.367055492e-03,-2.098702760e-04,1.157185216e-03,1.226976800e-03,-2.852581379e-05,1.198450987e-03,8.382957220e-04,-2.375709366e-04,6.007247854e-04,-7.208057759e-04,-1.707873240e-04,-8.915930999e-04,-1.956154585e-04,-3.795421043e-05,-2.335696689e-04,-1.423419147e-03,-2.341881074e-04,-1.657607255e-03,-1.064403322e-03,-1.754146618e-04,-1.239817984e-03,1.422451330e-03,-1.139738560e-04,1.308477474e-03,1.042527823e-03,-2.007116234e-04,8.418162000e-04,2.062553762e-03,-1.258891960e-04,1.936664566e-03,1.371999658e-03,-1.283064329e-04,1.243693225e-03,2.549269204e-03,-1.523338103e-04,2.396935394e-03,1.147585876e-03,-1.601262946e-04,9.874595814e-04,2.621571318e-03,-5.292647192e-06,2.616278671e-03,9.642377884e-04,-6.113561402e-05,9.031021743e-04,2.398385453e-03,-1.251833167e-04,2.273202137e-03,2.430879771e-03,-7.891800890e-05,2.351961762e-03,1.611745272e-03,-1.883003195e-04,1.423444953e-03,2.033284947e-03,-8.792129669e-05,1.945363651e-03
-9.4,-1.604801668e-03,-4.982877923e-04,-2.103089460e-03,-8.669627231e-04,-1.389035373e-04,-1.005866260e-03,-1.714165469e-03,-3.659390502e-04,-2.080104519e-03,-6.393654727e-04,-5.642981296e-05,-6.957952857e-04,-1.179898063e-04,-1.819001245e-04,-2.998899307e-04,1.012929738e-03,-1.971722252e-04,8.157575129e-04,1.298925786e-03,-1.068955995e-04,1.192030187e-03,1.801976533e-03,-3.005088017e-04,1.501467732e-03,-3.583621180e-05,1.897022978e-05,-1.686598202e-05,4.985145352e-04,-3.148444338e-04,1.836701014e-04,-8.088974631e-04,-2.442425014e-04,-1.053139964e-03,1.105269082e-04,-8.437529477e-06,1.020893787e-04,1.175684963e-03,-1.583560359e-04,1.017328927e-03,3.598805937e-04,1.185962655e-04,4.784768593e-04,4.838985559e-04,9.354226845e-05,5.774408243e-04,1.903483442e-03,-1.787933459e-04,1.724690096e-03,2.734167919e-03,-2.807350350e-04,2.453432884e-03,1.273944139e-03,-2.065532085e-04,1.067390930e-03,1.123862325e-03,-2.734817722e-05,1.096514147e-03,7.729410415e-04,-2.346583283e-04,5.382827132e-04,-7.808038162e-04,-1.671565033e-04,-9.479603195e-04,-2.432402732e-04,-3.693568561e-05,-2.801759588e-04,-1.482054286e-03,-2.306293500e-04,-1.712683636e-03,-1.111391156e-03,-1.733598808e-04,-1.284751037e-03,1.397760833e-03,-1.113139519e-04,1.286446881e-03,1.018040009e-03,-2.031553927e-04,8.148846161e-04,2.055723728e-03,-1.293462933e-04,1.926377435e-03,1.367971248e-03,-1.331060484e-04,1.234865199e-03,2.487257845e-03,-1.552171429e-04,2.332040702e-03,1.042108569e-03,-1.565308280e-04,8.855777407e-04,2.533927944e-03,-5.563019266e-06,2.528364925e-03,8.486093170e-04,-5.482340938e-05,7.937859077e-04,2.303433159e-03,-1.193637174e-04,2.184069441e-03,2.338997743e-03,-7.761143431e-05,2.261386309e-03,1.500905022e-03,-1.774450221e-04,1.323460000e-03,1.909627130e-03,-9.254540717e-05,1.817081723e-03
-9.3,-1.660535167e-03,-5.008681285e-04,-2.161403296e-03,-9.286954328e-04,-1.429071689e-04,-1.071602602e-03,-1.774216978e-03,-3.704040970e-04,-2.144621075e-03,-7.050326918e-04,-6.070165784e-05,-7.657343497e-04,-1.646326091e-04,-1.899484493e-04,-3.545810585e-04,9.315443196e-04,-2.010422623e-04,7.305020572e-04,1.228120017e-03,-1.176066069e-04,1.110513410e-03,1.737572019e-03,-3.008636614e-04,1.436708357e-03,-1.134678069e-04,6.818592078e-06,-1.066492148e-04,4.461767682e-04,-3.110709842e-04,1.351057840e-04,-8.849677988e-04,-2.468518152e-04,-1.131819614e-03,1.237346239e-04,-2.690759494e-05,9.682702894e-05,1.220447092e-03,-1.785282326e-04,1.041918860e-03,3.372999527e-04,1.177607288e-04,4.550606815e-04,5.015065184e-04,8.680646440e-05,5.883129828e-04,1.842344079e-03,-1.722661479e-04,1.670077931e-03,2.646246754e-03,-2.800784062e-04,2.366168348e-03,1.178519365e-03,-2.030486423e-04,9.754707231e-04,1.019438940e-03,-2.630653482e-05,9.931324048e-04,7.073684100e-04,-2.316374092e-04,4.757310008e-04,-8.392016448e-04,-1.636303346e-04,-1.002831979e-03,-2.896461927e-04,-3.600146364e-05,-3.256476563e-04,-1.536633199e-03,-2.268941950e-04,-1.763527394e-03,-1.155278947e-03,-1.714022667e-04,-1.326681214e-03,1.370872661e-03,-1.090708912e-04,1.261801770e-03,9.919445501e-04,-2.055189078e-04,7.864256423e-04,2.044147817e-03,-1.326313956e-04,1.911516422e-03,1.362004424e-03,-1.380310551e-04,1.223973369e-03,2.421275811e-03,-1.582509653e-04,2.263024846e-03,9.350104307e-04,-1.529112955e-04,7.820991352e-04,2.443658459e-03,-6.671195752e-06,2.436987263e-03,7.333756652e-04,-4.908774856e-05,6.842879167e-04,2.205088103e-03,-1.137307576e-04,2.091357345e-03,2.244408780e-03,-7.645446992e-05,2.167954310e-03,1.389354523e-03,-1.660426865e-04,1.223311836e-03,1.784264933e-03,-9.714174376e-05,1.687123189e-03
-9.2,-1.713453222e-03,-5.037568535e-04,-2.217210076e-03,-9.886778283e-04,-1.470283718e-04,-1.135706200e-03,-1.831660683e-03,-3.749527786e-04,-2.206613461e-03,-7.699090977e-04,-6.504525647e-05,-8.349543541e-04,-2.108749842e-04,-1.979497004e-04,-4.088246847e-04,8.488992424e-04,-2.047435260e-04,6.441557164e-04,1.156092810e-03,-1.281024145e-04,1.027990396e-03,1.671275686e-03,-3.009711809e-04,1.370304506e-03,-1.910659996e-04,-5.442107110e-06,-1.965081067e-04,3.942976226e-04,-3.068948092e-04,8.740281346e-05,-9.587113379e-04,-2.492973237e-04,-1.208008662e-03,1.356466746e-04,-4.586043305e-05,8.978624151e-05,1.261998433e-03,-1.989769079e-04,1.063021525e-03,3.130050624e-04,1.167638644e-04,4.297689268e-04,5.170382186e-04,8.025929246e-05,5.972975110e-04,1.778012457e-03,-1.658077260e-04,1.612204731e-03,2.553346302e-03,-2.786802269e-04,2.274666075e-03,1.081232623e-03,-1.993663929e-04,8.818662306e-04,9.142163719e-04,-2.540091040e-05,8.888154615e-04,6.417941659e-04,-2.285091156e-04,4.132850503e-04,-8.955366152e-04,-1.601872961e-04,-1.055723911e-03,-3.345597535e-04,-3.515446696e-05,-3.697142204e-04,-1.586734770e-03,-2.229718684e-04,-1.809706639e-03,-1.195675056e-03,-1.695421304e-04,-1.365217187e-03,1.341895632e-03,-1.072446614e-04,1.234650971e-03,9.643607694e-04,-2.077807147e-04,7.565800548e-04,2.027892217e-03,-1.357214045e-04,1.892170813e-03,1.354134769e-03,-1.430684020e-04,1.211066367e-03,2.351489964e-03,-1.614189692e-04,2.190070995e-03,8.267027645e-04,-1.492736809e-04,6.774290836e-04,2.351092681e-03,-8.624656865e-06,2.342468025e-03,6.190757092e-04,-4.400780530e-05,5.750679039e-04,2.103779912e-03,-1.083166159e-04,1.995463297e-03,2.147500788e-03,-7.544021437e-05,2.072060574e-03,1.277432215e-03,-1.540321141e-04,1.123400101e-03,1.657703561e-03,-1.016521640e-04,1.556051397e-03
-9.1,-1.762892432e-03,-5.067828403e-04,-2.269675272e-03,-1.046367262e-03,-1.512262217e-04,-1.197593484e-03,-1.885852706e-03,-3.794487119e-04,-2.265301418e-03,-8.335247510e-04,-6.945342173e-05,-9.029781728e-04,-2.564360941e-04,-2.058604491e-04,-4.622965432e-04,7.653609647e-04,-2.082664934e-04,5.570944713e-04,1.083047249e-03,-1.383525820e-04,9.446946671e-04,1.603207462e-03,-3.008230858e-04,1.302384376e-03,-2.683271692e-04,-1.778387381e-05,-2.861110430e-04,3.430309206e-04,-3.023128668e-04,4.071805380e-05,-1.029729430e-03,-2.515417671e-04,-1.281271197e-03,1.464010907e-04,-6.512414464e-05,8.127694606e-05,1.300229146e-03,-2.194993293e-04,1.080729817e-03,2.873120359e-04,1.155762860e-04,4.028883219e-04,5.306109623e-04,7.387970733e-05,6.044906697e-04,1.710826437e-03,-1.594457153e-04,1.551380722e-03,2.455954828e-03,-2.765696498e-04,2.179385179e-03,9.825480341e-04,-1.955193293e-04,7.870287048e-04,8.087065723e-04,-2.462988958e-05,7.840766827e-04,5.764447995e-04,-2.252740534e-04,3.511707460e-04,-9.493570680e-04,-1.568061785e-04,-1.106163247e-03,-3.777141573e-04,-3.439674589e-05,-4.121109031e-04,-1.631964114e-03,-2.188519477e-04,-1.850816061e-03,-1.232211337e-03,-1.677762899e-04,-1.399987627e-03,1.310951239e-03,-1.058311933e-04,1.205120045e-03,9.354179559e-04,-2.099195440e-04,7.254984120e-04,2.007053226e-03,-1.385987868e-04,1.868454439e-03,1.344410610e-03,-1.482061964e-04,1.196204414e-03,2.278089640e-03,-1.647017231e-04,2.113387917e-03,7.176107969e-04,-1.456254152e-04,5.719853818e-04,2.256559132e-03,-1.141688305e-05,2.245142249e-03,5.062293214e-04,-3.965179008e-05,4.665775313e-04,1.999951730e-03,-1.031505176e-04,1.896801212e-03,2.048656610e-03,-7.456027452e-05,1.974096336e-03,1.165473599e-03,-1.413719626e-04,1.024101636e-03,1.530447111e-03,-1.060216901e-04,1.424425421e-03
-9,-1.808185706e-03,-5.097577402e-04,-2.317943446e-03,-1.101217364e-03,-1.554545958e-04,-1.256671960e-03,-1.936139531e-03,-3.837458133e-04,-2.319885344e-03,-8.954022494e-04,-7.391757536e-05,-9.693198247e-04,-3.010331277e-04,-2.136365201e-04,-5.146696478e-04,6.813099724e-04,-2.115996905e-04,4.697102819e-04,1.009199201e-03,-1.483249066e-04,8.608742947e-04,1.533502279e-03,-3.004100795e-04,1.233092200e-03,-3.449398292e-04,-3.017496071e-05,-3.751147899e-04,2.925259718e-04,-2.973234016e-04,-4.797429742e-06,-1.097632538e-03,-2.535462851e-04,-1.351178823e-03,1.561502674e-04,-8.452077615e-05,7.162949128e-05,1.335056349e-03,-2.398923983e-04,1.095163951e-03,2.605593992e-04,1.141689721e-04,3.747283713e-04,5.423540391e-04,6.764562143e-05,6.099996605e-04,1.641135851e-03,-1.532048047e-04,1.487931046e-03,2.354577411e-03,-2.737860062e-04,2.080791405e-03,8.829382190e-04,-1.915231965e-04,6.914150225e-04,7.034182180e-04,-2.399097172e-05,6.794272463e-04,5.115545772e-04,-2.219322579e-04,2.896223193e-04,-1.000227360e-03,-1.534663513e-04,-1.153693711e-03,-4.188522009e-04,-3.372942216e-05,-4.525816231e-04,-1.671956233e-03,-2.145242875e-04,-1.886480520e-03,-1.264547698e-03,-1.660977368e-04,-1.430645435e-03,1.278171484e-03,-1.048223416e-04,1.173349143e-03,9.052533225e-04,-2.119145573e-04,6.933387653e-04,1.981755230e-03,-1.412519071e-04,1.840503323e-03,1.332890860e-03,-1.534335566e-04,1.179457303e-03,2.201284005e-03,-1.680768376e-04,2.033207167e-03,6.081695499e-04,-1.419747302e-04,4.661948197e-04,2.160380340e-03,-1.502695832e-05,2.145353381e-03,3.953316914e-04,-3.607516102e-05,3.592565303e-04,1.894054732e-03,-9.825905064e-05,1.795795681e-03,1.948249085e-03,-7.380530776e-05,1.874443777e-03,1.053811936e-03,-1.280454948e-04,9.257664411e-04,1.402993571e-03,-1.101997099e-04,1.292793861e-03
-8.9,-1.848671402e-03,-5.124794547e-04,-2.361150856e-03,-1.152684941e-03,-1.596627437e-04,-1.312347684e-03,-1.981865852e-03,-3.876908513e-04,-2.369556703e-03,-9.550617158e-04,-7.842762561e-05,-1.033489341e-03,-3.443844519e-04,-2.212332347e-04,-5.656176866e-04,5.971375246e-04,-2.147294803e-04,3.824080443e-04,9.347761388e-04,-1.579855198e-04,7.767906190e-04,1.462309487e-03,-2.997218036e-04,1.162587684e-03,-4.205870401e-04,-4.258002589e-05,-4.631670660e-04,2.429263551e-04,-2.919258871e-04,-4.899953196e-05,-1.162043772e-03,-2.552707372e-04,-1.417314509e-03,1.650577593e-04,-1.038692775e-04,6.118848185e-05,1.366424140e-03,-2.599560497e-04,1.106468090e-03,2.331026806e-04,1.125138815e-04,3.456165621e-04,5.524057816e-04,6.153459984e-05,6.139403814e-04,1.569298015e-03,-1.471058646e-04,1.422192150e-03,2.249729240e-03,-2.703762764e-04,1.979352963e-03,7.828802789e-04,-1.873966469e-04,5.954836319e-04,5.988513862e-04,-2.348077459e-05,5.753706117e-04,4.473632753e-04,-2.184829208e-04,2.288803546e-04,-1.047732245e-03,-1.501480003e-04,-1.197880246e-03,-4.577288484e-04,-3.315253166e-05,-4.908813801e-04,-1.706378995e-03,-2.099789924e-04,-1.916357988e-03,-1.292375736e-03,-1.644954083e-04,-1.456871145e-03,1.243696826e-03,-1.042058291e-04,1.139490997e-03,8.740101388e-04,-2.137455601e-04,6.602645787e-04,1.952149114e-03,-1.436755755e-04,1.808473538e-03,1.319643067e-03,-1.587402808e-04,1.160902787e-03,2.121299998e-03,-1.715188345e-04,1.949781163e-03,4.988202808e-04,-1.383301087e-04,3.604901720e-04,2.062869946e-03,-1.941997938e-05,2.043449967e-03,2.868491346e-04,-3.331926144e-05,2.535298731e-04,1.786543048e-03,-9.366621300e-05,1.692876835e-03,1.846637825e-03,-7.316572363e-05,1.773472101e-03,9.427792636e-04,-1.140638552e-04,8.287154084e-04,1.275830855e-03,-1.141410763e-04,1.161689779e-03
-8.8,-1.883702505e-03,-5.147362538e-04,-2.398438759e-03,-1.200236569e-03,-1.637959614e-04,-1.364032530e-03,-2.022382449e-03,-3.911262089e-04,-2.413508657e-03,-1.012025209e-03,-8.297182490e-05,-1.094997034e-03,-3.862122002e-04,-2.286055904e-04,-6.148177906e-04,5.132430387e-04,-2.176398678e-04,2.956031709e-04,8.600162049e-04,-1.672990230e-04,6.927171819e-04,1.389792503e-03,-2.987469119e-04,1.091045591e-03,-4.949486929e-04,-5.496040931e-05,-5.499091022e-04,1.943693034e-04,-2.861209927e-04,-9.175168929e-05,-1.222601905e-03,-2.566740631e-04,-1.479275968e-03,1.732953720e-04,-1.229877882e-04,5.030758377e-05,1.394304926e-03,-2.794964025e-04,1.114808524e-03,2.053099475e-04,1.105845159e-04,3.158944634e-04,5.609121035e-04,5.552443148e-05,6.164365349e-04,1.495674711e-03,-1.411656169e-04,1.354509094e-03,2.141930870e-03,-2.663926896e-04,1.875538180e-03,6.828523955e-04,-1.831613533e-04,4.996910423e-04,4.954929382e-04,-2.309501434e-05,4.723979238e-04,3.841142669e-04,-2.149242650e-04,1.691900019e-04,-1.091480382e-03,-1.468323705e-04,-1.238312753e-03,-4.941132733e-04,-3.266490707e-05,-5.267781804e-04,-1.734935413e-03,-2.052064156e-04,-1.940141829e-03,-1.315421343e-03,-1.629540571e-04,-1.478375400e-03,1.207674504e-03,-1.039651217e-04,1.103709382e-03,8.418364037e-04,-2.153931747e-04,6.264432290e-04,1.918411179e-03,-1.458716089e-04,1.772539570e-03,1.304742295e-03,-1.641163548e-04,1.140625940e-03,2.038381091e-03,-1.749988879e-04,1.863382204e-03,3.900076807e-04,-1.347000034e-04,2.553076773e-04,1.964331929e-03,-2.454827074e-05,1.939783658e-03,1.812166594e-04,-3.141057625e-05,1.498060832e-04,1.677869692e-03,-8.939303569e-05,1.588476656e-03,1.744168175e-03,-7.263251280e-05,1.671535662e-03,8.327077892e-04,-9.946748664e-05,7.332403026e-04,1.149434101e-03,-1.178070800e-04,1.031627021e-03
-8.7,-1.912655839e-03,-5.163113755e-04,-2.428967215e-03,-1.243354976e-03,-1.677963878e-04,-1.411151364e-03,-2.057054199e-03,-3.938928255e-04,-2.450947024e-03,-1.065820752e-03,-8.753656650e-05,-1.153357318e-03,-4.262444949e-04,-2.357084322e-04,-6.619529272e-04,4.300316625e-04,-2.203124063e-04,2.097192561e-04,7.851673482e-04,-1.762286782e-04,6.089386700e-04,1.316128559e-03,-2.974733053e-04,1.018655254e-03,-5.677038404e-04,-6.727453935e-05,-6.349783798e-04,1.469854887e-04,-2.799105949e-04,-1.329251063e-04,-1.278964110e-03,-2.577147475e-04,-1.536678857e-03,1.810402347e-04,-1.416958504e-04,3.934438430e-05,1.418700641e-03,-2.983289450e-04,1.120371696e-03,1.775572893e-04,1.083563722e-04,2.859136615e-04,5.680254071e-04,4.959357792e-05,6.176189850e-04,1.420630127e-03,-1.353968454e-04,1.285233282e-03,2.031705223e-03,-2.618908198e-04,1.769814403e-03,5.833309867e-04,-1.788419339e-04,4.044890527e-04,3.938126836e-04,-2.282828217e-05,3.709844014e-04,3.220526204e-04,-2.112535613e-04,1.107990591e-04,-1.131107324e-03,-1.435019401e-04,-1.274609264e-03,-5.277905812e-04,-3.226413760e-05,-5.600547188e-04,-1.757365542e-03,-2.001971362e-04,-1.957562678e-03,-1.333446594e-03,-1.614542043e-04,-1.494900799e-03,1.170257221e-03,-1.040793785e-04,1.066177842e-03,8.088838436e-04,-2.168389838e-04,5.920448598e-04,1.880741987e-03,-1.478490656e-04,1.732892921e-03,1.288270618e-03,-1.695513530e-04,1.118719265e-03,1.952785991e-03,-1.784845552e-04,1.774301435e-03,2.821775572e-04,-1.310929340e-04,1.510846233e-04,1.865061130e-03,-3.035329375e-05,1.834707836e-03,7.883688771e-05,-3.036061514e-05,4.847627257e-05,1.568483158e-03,-8.545694195e-05,1.483026216e-03,1.641171728e-03,-7.219815855e-05,1.568973569e-03,7.239308547e-04,-8.432548960e-05,6.396053651e-04,1.024263685e-03,-1.211661871e-04,9.030974977e-04
-8.6,-1.934941619e-03,-5.169879531e-04,-2.451929572e-03,-1.281545693e-03,-1.716039609e-04,-1.453149654e-03,-2.085268591e-03,-3.958333506e-04,-2.481101941e-03,-1.115986713e-03,-9.210616663e-05,-1.208092880e-03,-4.642178633e-04,-2.424967077e-04,-7.067145710e-04,3.479111973e-04,-2.227262824e-04,1.251849150e-04,7.104860917e-04,-1.847366825e-04,5.257494092e-04,1.241508125e-03,-2.958885151e-04,9.456196098e-04,-6.385333836e-04,-7.947841949e-05,-7.180118031e-04,1.008987639e-04,-2.732978041e-04,-1.723990402e-04,-1.330808832e-03,-2.583513868e-04,-1.589160219e-03,1.884713141e-04,-1.598173274e-04,2.865398678e-05,1.439641260e-03,-3.162815254e-04,1.123359734e-03,1.502229913e-04,1.058072744e-04,2.560302657e-04,5.739023325e-04,4.372156138e-05,6.176238939e-04,1.344528685e-03,-1.298091496e-04,1.214719535e-03,1.919574715e-03,-2.569282314e-04,1.662646483e-03,4.847879146e-04,-1.744655471e-04,3.103223674e-04,2.942600032e-04,-2.267381055e-05,2.715861926e-04,2.614226730e-04,-2.074671635e-04,5.395550954e-05,-1.166278602e-03,-1.401404369e-04,-1.306419039e-03,-5.585635376e-04,-3.194654165e-05,-5.905100792e-04,-1.773448350e-03,-1.949419071e-04,-1.968390257e-03,-1.346251299e-03,-1.599722182e-04,-1.506223517e-03,1.131601817e-03,-1.045237162e-04,1.027078101e-03,7.753066425e-04,-2.180656755e-04,5.572409670e-04,1.839364316e-03,-1.496239124e-04,1.689740403e-03,1.270316443e-03,-1.750338247e-04,1.095282618e-03,1.864786435e-03,-1.819396496e-04,1.682846785e-03,1.757746397e-04,-1.275179450e-04,4.825669473e-05,1.765343968e-03,-3.676798467e-05,1.728575983e-03,-1.992054028e-05,-3.016610041e-05,-5.008664070e-05,1.458823775e-03,-8.187098913e-05,1.376952786e-03,1.537967010e-03,-7.185739398e-05,1.466109616e-03,6.167823583e-04,-6.873307458e-05,5.480492837e-04,9.007631441e-04,-1.241944140e-04,7.765687300e-04
-8.5,-1.950013523e-03,-5.165541610e-04,-2.466567684e-03,-1.314344316e-03,-1.751575595e-04,-1.489501876e-03,-2.106444994e-03,-3.967954964e-04,-2.503240490e-03,-1.162077120e-03,-9.666271970e-05,-1.258739840e-03,-4.998802301e-04,-2.489258353e-04,-7.488060654e-04,2.672879484e-04,-2.248585792e-04,4.242936920e-05,6.362356468e-04,-1.927845312e-04,4.434511156e-04,1.166133709e-03,-2.939801562e-04,8.721535529e-04,-7.071232715e-04,-9.152613118e-05,-7.986494027e-04,5.622558521e-05,-2.662869620e-04,-2.100613768e-04,-1.377838967e-03,-2.585432829e-04,-1.636382250e-03,1.957651631e-04,-1.771842839e-04,1.858087916e-05,1.457179325e-03,-3.331965854e-04,1.123982739e-03,1.236800988e-04,1.029176230e-04,2.265977218e-04,5.786998150e-04,3.788935293e-05,6.165891680e-04,1.267732030e-03,-1.244100775e-04,1.143321953e-03,1.806057160e-03,-2.515635908e-04,1.554493569e-03,3.876873041e-04,-1.700612035e-04,2.176261007e-04,1.972606573e-04,-2.262349237e-05,1.746371649e-04,2.024649343e-04,-2.035605205e-04,-1.095586242e-06,-1.196693115e-03,-1.367327461e-04,-1.333425861e-03,-5.862543980e-04,-3.170712605e-05,-6.179615241e-04,-1.783003638e-03,-1.894316287e-04,-1.972435267e-03,-1.353674323e-03,-1.584805799e-04,-1.512154903e-03,1.091867615e-03,-1.052698968e-04,9.865977181e-04,7.412595412e-04,-2.190572130e-04,5.222023281e-04,1.794519811e-03,-1.512180397e-04,1.643301772e-03,1.250972978e-03,-1.805507619e-04,1.070422216e-03,1.774664287e-03,-1.853244891e-04,1.589339798e-03,7.124033914e-05,-1.239852514e-04,-5.274491227e-05,1.665458766e-03,-4.371922576e-05,1.621739540e-03,-1.147197526e-04,-3.080911198e-05,-1.455288646e-04,1.349319305e-03,-7.864300575e-05,1.270676299e-03,1.434859360e-03,-7.160742914e-05,1.363251931e-03,5.115944009e-04,-5.280773417e-05,4.587866667e-04,7.793567531e-04,-1.268753699e-04,6.524813832e-04
-8.4,-1.957379122e-03,-5.148084053e-04,-2.472187527e-03,-1.341324196e-03,-1.783962860e-04,-1.519720482e-03,-2.120044546e-03,-3.966354704e-04,-2.516680016e-03,-1.203667767e-03,-1.011860760e-04,-1.304853843e-03,-5.329943777e-04,-2.549521201e-04,-7.879464978e-04,1.885618049e-04,-2.266846574e-04,-3.812285252e-05,5.626834228e-04,-2.003334386e-04,3.623499843e-04,1.090218122e-03,-2.917363654e-04,7.984817565e-04,-7.731680712e-04,-1.033703360e-04,-8.765384072e-04,1.307420423e-05,-2.588836121e-04,-2.458094079e-04,-1.419785098e-03,-2.582510095e-04,-1.678036108e-03,2.030912689e-04,-1.936413302e-04,9.449938685e-06,1.471381325e-03,-3.489321166e-04,1.122449208e-03,9.828828739e-05,9.967059339e-05,1.979588808e-04,5.825703487e-04,3.207973084e-05,6.146500795e-04,1.190595197e-03,-1.192062220e-04,1.071388975e-03,1.691660456e-03,-2.458561911e-04,1.445804265e-03,2.924819672e-04,-1.656589335e-04,1.268230336e-04,1.032138434e-04,-2.266824644e-05,8.054559698e-05,1.454127124e-04,-1.995282445e-04,-5.411553208e-05,-1.222086503e-03,-1.332648698e-04,-1.355351373e-03,-6.107066401e-04,-3.153958784e-05,-6.422462279e-04,-1.785893838e-03,-1.836573940e-04,-1.969551232e-03,-1.355594568e-03,-1.569483410e-04,-1.512542909e-03,1.051214368e-03,-1.062872996e-04,9.449270688e-04,7.068954860e-04,-2.197990130e-04,4.870964730e-04,1.746464687e-03,-1.526577312e-04,1.593806955e-03,1.230335900e-03,-1.860871683e-04,1.044248732e-03,1.682708926e-03,-1.885966313e-04,1.494112295e-03,-3.098955296e-05,-1.205067643e-04,-1.514963173e-04,1.565675828e-03,-5.113014793e-05,1.514545680e-03,-2.052596187e-04,-3.225718030e-05,-2.375167990e-04,1.240380275e-03,-7.577469056e-05,1.164605584e-03,1.332140077e-03,-7.144746839e-05,1.260692609e-03,4.086941786e-04,-3.668512777e-05,3.720090509e-04,6.604472118e-04,-1.292000984e-04,5.312471134e-04
-8.3,-1.956610170e-03,-5.115642904e-04,-2.468174460e-03,-1.362103938e-03,-1.812607808e-04,-1.543364719e-03,-2.125580189e-03,-3.952213132e-04,-2.520801503e-03,-1.240362408e-03,-1.056539335e-04,-1.346016342e-03,-5.633413572e-04,-2.605331156e-04,-8.238744728e-04,1.121213362e-04,-2.281785847e-04,-1.160572486e-04,4.900982752e-04,-2.073447971e-04,2.827534781e-04,1.013982525e-03,-2.891462044e-04,7.248363206e-04,-8.363745167e-04,-1.149628159e-04,-9.513373326e-04,-2.845600305e-05,-2.510944976e-04,-2.795505007e-04,-1.456408321e-03,-2.574369557e-04,-1.713845277e-03,2.106079240e-04,-2.090495418e-04,1.558382165e-06,1.482318113e-03,-3.633610486e-04,1.118957064e-03,7.438656438e-05,9.605227708e-05,1.704388415e-04,5.856581082e-04,2.627752122e-05,6.119356294e-04,1.113462693e-03,-1.142038967e-04,9.992587968e-04,1.576877122e-03,-2.398657342e-04,1.337011387e-03,1.996097778e-04,-1.612888652e-04,3.832091258e-05,1.248982303e-05,-2.279857774e-05,-1.030875471e-05,9.048904316e-05,-1.953642840e-04,-1.048752409e-04,-1.242233942e-03,-1.297240246e-04,-1.371957967e-03,-6.317863023e-04,-3.143638760e-05,-6.632226899e-04,-1.782025352e-03,-1.776105914e-04,-1.959635943e-03,-1.351931345e-03,-1.553417017e-04,-1.507273047e-03,1.009800208e-03,-1.075439322e-04,9.022562757e-04,6.723634149e-04,-2.202780796e-04,4.520853353e-04,1.695465500e-03,-1.539718149e-04,1.541493685e-03,1.208500956e-03,-1.916256760e-04,1.016875280e-03,1.589215844e-03,-1.917119372e-04,1.397503907e-03,-1.304871606e-04,-1.170961985e-04,-2.475833591e-04,1.466257685e-03,-5.892196376e-05,1.407335721e-03,-2.912743055e-04,-3.446360488e-05,-3.257379104e-04,1.132396114e-03,-7.326085371e-05,1.059135260e-03,1.230085790e-03,-7.137773827e-05,1.158708052e-03,3.084017465e-04,-2.051564910e-05,2.878860974e-04,5.444140743e-04,-1.311667570e-04,4.132473173e-04
-8.2,-1.947352125e-03,-5.066551262e-04,-2.454007251e-03,-1.376353971e-03,-1.836944564e-04,-1.560048427e-03,-2.122626215e-03,-3.924360183e-04,-2.515062234e-03,-1.271798155e-03,-1.100420052e-04,-1.381840160e-03,-5.907232495e-04,-2.656278909e-04,-8.563511404e-04,3.833968447e-05,-2.293135970e-04,-1.909739125e-04,4.187479267e-04,-2.137806824e-04,2.049672443e-04,9.376546365e-04,-2.862000566e-04,6.514545798e-04,-8.964646481e-04,-1.262550862e-04,-1.022719734e-03,-6.827471317e-05,-2.429276302e-04,-3.112023433e-04,-1.487502289e-03,-2.560658808e-04,-1.743568170e-03,2.184594851e-04,-2.232891878e-04,-4.829702624e-06,1.490056663e-03,-3.763691268e-04,1.113687536e-03,5.228789650e-05,9.205176001e-05,1.443396565e-04,5.880970991e-04,2.046969865e-05,6.085667978e-04,1.036665685e-03,-1.094092907e-04,9.272563947e-04,1.462180174e-03,-2.336519863e-04,1.228528188e-03,1.094903820e-04,-1.569801677e-04,-4.748978572e-05,-7.457151800e-05,-2.300512096e-05,-9.757663896e-05,3.790426648e-05,-1.910621462e-04,-1.531578797e-04,-1.256951948e-03,-1.260987841e-04,-1.383050732e-03,-6.493828225e-04,-3.138882236e-05,-6.807716448e-04,-1.771349268e-03,-1.712830172e-04,-1.942632285e-03,-1.342644026e-03,-1.536246163e-04,-1.496268643e-03,9.677801573e-04,-1.090073060e-04,8.587728513e-04,6.378067905e-04,-2.204830496e-04,4.173237408e-04,1.641796016e-03,-1.551896740e-04,1.486606342e-03,1.185562494e-03,-1.971461987e-04,9.884162955e-04,1.494486476e-03,-1.946256934e-04,1.299860783e-03,-2.268347126e-04,-1.137687052e-04,-3.406034178e-04,1.367459821e-03,-6.701518452e-05,1.300444637e-03,-3.725328300e-04,-3.736824426e-05,-4.099010743e-04,1.025733088e-03,-7.108900619e-05,9.546440815e-04,1.128959010e-03,-7.139847449e-05,1.057560536e-03,2.110296620e-04,-4.462100389e-06,2.065675616e-04,4.316131961e-04,-1.327800407e-04,2.988331554e-04
-8.1,-1.929332440e-03,-4.999379002e-04,-2.429270340e-03,-1.383801814e-03,-1.856446296e-04,-1.569446444e-03,-2.110826916e-03,-3.881803901e-04,-2.499007306e-03,-1.297649634e-03,-1.143242217e-04,-1.411973856e-03,-6.149650602e-04,-2.701972557e-04,-8.851623159e-04,-3.242855461e-05,-2.300626043e-04,-2.624911589e-04,3.488967723e-04,-2.196044020e-04,1.292923703e-04,8.614671892e-04,-2.828900293e-04,5.785771599e-04,-9.531784139e-04,-1.371990402e-04,-1.090377454e-03,-1.063003243e-04,-2.343923970e-04,-3.406927213e-04,-1.512894518e-03,-2.541054772e-04,-1.766999996e-03,2.267747948e-04,-2.362609580e-04,-9.486163165e-06,1.494654492e-03,-3.878518888e-04,1.106802603e-03,3.227553625e-05,8.766117962e-05,1.199367159e-04,5.900109746e-04,1.464540056e-05,6.046563751e-04,9.605206757e-04,-1.048282081e-04,8.556924676e-04,1.348020973e-03,-2.272738278e-04,1.120747145e-03,2.252246338e-05,-1.527599342e-04,-1.302374708e-04,-1.576610786e-04,-2.327908537e-05,-1.809401640e-04,-1.214583675e-05,-1.866150973e-04,-1.987609340e-04,-1.266099246e-03,-1.223791335e-04,-1.388478380e-03,-6.634095507e-04,-3.138701775e-05,-6.947965685e-04,-1.753861549e-03,-1.646670024e-04,-1.918528552e-03,-1.327731210e-03,-1.517594038e-04,-1.479490614e-03,9.253054407e-04,-1.106451211e-04,8.146603196e-04,6.033630546e-04,-2.204041685e-04,3.829588861e-04,1.585735310e-03,-1.563392678e-04,1.429396042e-03,1.161613180e-03,-2.026256839e-04,9.589874958e-04,1.398828313e-03,-1.972936618e-04,1.201534652e-03,-3.196266976e-04,-1.105402257e-04,-4.301669233e-04,1.269531631e-03,-7.533033039e-05,1.194201300e-03,-4.488377220e-04,-4.089876323e-05,-4.897364852e-04,9.207341280e-04,-6.923947406e-05,8.514946539e-04,1.029009991e-03,-7.150920692e-05,9.575007837e-04,1.168839112e-04,1.130210199e-05,1.281860132e-04,3.223768606e-04,-1.340502657e-04,1.883265949e-04
-8,-1.902367586e-03,-4.912967374e-04,-2.393664323e-03,-1.384236281e-03,-1.870636090e-04,-1.571299890e-03,-2.089904435e-03,-3.823756265e-04,-2.472280062e-03,-1.317632343e-03,-1.184729447e-04,-1.436105288e-03,-6.359161080e-04,-2.742040246e-04,-9.101201326e-04,-9.985004093e-05,-2.303987379e-04,-3.302487789e-04,2.808038642e-04,-2.247810425e-04,5.602282173e-05,7.856563650e-04,-2.792103041e-04,5.064460608e-04,-1.006275896e-03,-1.477475315e-04,-1.154023427e-03,-1.424595132e-04,-2.254996427e-04,-3.679591560e-04,-1.532447383e-03,-2.515269121e-04,-1.783974296e-03,2.356654001e-04,-2.478859702e-04,-1.222057004e-05,1.496156380e-03,-3.977116973e-04,1.098444683e-03,1.459971111e-05,8.287580376e-05,9.747551487e-05,5.915129184e-04,8.795862286e-06,6.003087807e-04,8.853286420e-04,-1.004655406e-04,7.848631014e-04,1.234828148e-03,-2.207874808e-04,1.014040667e-03,-6.091852055e-05,-1.486522344e-04,-2.095707549e-04,-2.365003301e-04,-2.361262989e-05,-2.601129600e-04,-5.948170209e-05,-1.820163898e-04,-2.414980919e-04,-1.269577158e-03,-1.185564396e-04,-1.388133597e-03,-6.738042378e-04,-3.141986996e-05,-7.052241078e-04,-1.729603020e-03,-1.577556107e-04,-1.887358631e-03,-1.307229819e-03,-1.497074263e-04,-1.456937246e-03,8.825231461e-04,-1.124257667e-04,7.700973793e-04,5.691635507e-04,-2.200332871e-04,3.491302636e-04,1.527566454e-03,-1.574454400e-04,1.370121014e-03,1.136744118e-03,-2.080380125e-04,9.287061056e-04,1.302554096e-03,-1.996730575e-04,1.102881038e-03,-4.084723256e-04,-1.074267694e-04,-5.158990950e-04,1.172716913e-03,-8.378843018e-05,1.088928483e-03,-5.200236838e-04,-4.497205600e-05,-5.649957398e-04,8.177196380e-04,-6.768613195e-05,7.500335060e-04,9.304789197e-04,-7.170838363e-05,8.587705361e-04,2.626423881e-05,2.659553899e-05,5.285977781e-05,2.170137701e-04,-1.349920685e-04,8.202170160e-05
-7.9,-1.866369064e-03,-4.806458548e-04,-2.347014918e-03,-1.377511160e-03,-1.879097723e-04,-1.565420932e-03,-2.059666124e-03,-3.749655823e-04,-2.434631706e-03,-1.331505946e-03,-1.224591965e-04,-1.453965143e-03,-6.534514796e-04,-2.776133448e-04,-9.310648244e-04,-1.636157583e-04,-2.302958942e-04,-3.939116525e-04,2.147206721e-04,-2.292779571e-04,-1.455728496e-05,7.104598176e-04,-2.751573628e-04,4.353024548e-04,-1.055539365e-03,-1.578548383e-04,-1.213394204e-03,-1.766871407e-04,-2.162617113e-04,-3.929488520e-04,-1.546059199e-03,-2.483053351e-04,-1.794364534e-03,2.452223255e-04,-2.581051300e-04,-1.288280445e-05,1.494591864e-03,-4.058555253e-04,1.088736339e-03,-5.264599298e-07,7.769411939e-05,7.716765946e-05,5.927042344e-04,2.914229291e-06,5.956184637e-04,8.113731656e-04,-9.632459287e-05,7.150485728e-04,1.123006228e-03,-2.142441623e-04,9.087620660e-04,-1.404825461e-04,-1.446774651e-04,-2.851600111e-04,-3.108412037e-04,-2.399916914e-05,-3.348403728e-04,-1.039417282e-04,-1.772596185e-04,-2.812013467e-04,-1.267329919e-03,-1.146234603e-04,-1.381953379e-03,-6.805296814e-04,-3.147504509e-05,-7.120047265e-04,-1.698659357e-03,-1.505429465e-04,-1.849202304e-03,-1.281214439e-03,-1.474298932e-04,-1.428644332e-03,8.395755906e-04,-1.143186588e-04,7.252569318e-04,5.353332009e-04,-2.193639288e-04,3.159692720e-04,1.467574930e-03,-1.585287826e-04,1.309046147e-03,1.111044199e-03,-2.133539644e-04,8.976902342e-04,1.205979516e-03,-2.017233996e-04,1.004256116e-03,-4.929986474e-04,-1.044436625e-04,-5.974423099e-04,1.077253429e-03,-9.231160067e-05,9.849418288e-04,-5.859571691e-04,-4.949552444e-05,-6.354526935e-04,7.169880236e-04,-6.639764818e-05,6.505903754e-04,8.335972438e-04,-7.199317297e-05,7.616040708e-04,-6.053763957e-05,4.123318605e-05,-1.930445353e-05,1.158081465e-04,-1.356227179e-04,-1.981457138e-05
-7.8,-1.821348519e-03,-4.679319552e-04,-2.289280474e-03,-1.363548667e-03,-1.881485592e-04,-1.551697226e-03,-2.020011463e-03,-3.659186468e-04,-2.385930110e-03,-1.339077934e-03,-1.262529183e-04,-1.465330853e-03,-6.674737908e-04,-2.803930381e-04,-9.478668288e-04,-2.234446603e-04,-2.297292474e-04,-4.531739077e-04,1.508884192e-04,-2.330651907e-04,-8.217677148e-05,6.361141643e-04,-2.707300701e-04,3.653840942e-04,-1.100775194e-03,-1.674770243e-04,-1.268252218e-03,-2.089266418e-04,-2.066925007e-04,-4.156191425e-04,-1.553665428e-03,-2.444203650e-04,-1.798085793e-03,2.555113960e-04,-2.668782265e-04,-1.136683053e-05,1.489972805e-03,-4.121939090e-04,1.077778896e-03,-1.293175071e-05,7.211787940e-05,5.918612869e-05,5.936715740e-04,-3.004694671e-06,5.906668794e-04,7.389171375e-04,-9.240635685e-05,6.465107807e-04,1.012933457e-03,-2.076876243e-04,8.052458327e-04,-2.158475456e-04,-1.408519270e-04,-3.566994727e-04,-3.804665779e-04,-2.443353661e-05,-4.049001145e-04,-1.453841403e-04,-1.723392001e-04,-3.177233404e-04,-1.259345051e-03,-1.105744361e-04,-1.369919487e-03,-6.835744911e-04,-3.153907893e-05,-7.151135700e-04,-1.661161036e-03,-1.430245353e-04,-1.804185571e-03,-1.249796855e-03,-1.448887505e-04,-1.394685606e-03,7.965990551e-04,-1.162943832e-04,6.803046719e-04,5.019895507e-04,-2.183913525e-04,2.835981983e-04,1.406046243e-03,-1.596049839e-04,1.246441259e-03,1.084598143e-03,-2.185410850e-04,8.660570585e-04,1.109419787e-03,-2.034070702e-04,9.060127173e-04,-5.728543575e-04,-1.016047301e-04,-6.744590875e-04,9.833715646e-04,-1.008237529e-04,8.825478117e-04,-6.465369999e-04,-5.436814381e-05,-7.009051437e-04,6.188153042e-04,-6.533889901e-05,5.534764052e-04,7.385876290e-04,-7.235929069e-05,6.662283383e-04,-1.432420795e-04,5.503245055e-05,-8.820962896e-05,1.901786152e-05,-1.359601879e-04,-1.169423264e-04
-7.7,-1.767421706e-03,-4.531359985e-04,-2.220557705e-03,-1.342342467e-03,-1.877532635e-04,-1.530095731e-03,-1.970938178e-03,-3.552291868e-04,-2.326167365e-03,-1.340207363e-03,-1.298232823e-04,-1.470030645e-03,-6.779149864e-04,-2.825139040e-04,-9.604288904e-04,-2.790873877e-04,-2.286757328e-04,-5.077631204e-04,8.953518856e-05,-2.361158793e-04,-1.465806907e-04,5.628521977e-04,-2.659296668e-04,2.969225308e-04,-1.141815383e-03,-1.765722272e-04,-1.318387610e-03,-2.391306370e-04,-1.968075657e-04,-4.359382027e-04,-1.555239671e-03,-2.398565433e-04,-1.795096215e-03,2.665683195e-04,-2.741827433e-04,-7.614423786e-06,1.482292394e-03,-4.166416931e-04,1.065650701e-03,-2.249114503e-05,6.615208624e-05,4.366094122e-05,5.944839340e-04,-8.964586557e-06,5.855193474e-04,6.681989355e-04,-8.870883398e-05,5.794901015e-04,9.049594129e-04,-2.011520964e-04,7.038073164e-04,-2.867220945e-04,-1.371875585e-04,-4.239096529e-04,-4.451912930e-04,-2.491194006e-05,-4.701032331e-04,-1.836886935e-04,-1.672508314e-04,-3.509395249e-04,-1.245653523e-03,-1.064051660e-04,-1.352058689e-03,-6.829537259e-04,-3.159750798e-05,-7.145512338e-04,-1.617282894e-03,-1.351977103e-04,-1.752480605e-03,-1.213125464e-03,-1.420475837e-04,-1.355173048e-03,7.537220770e-04,-1.183245971e-04,6.353974800e-04,4.692413780e-04,-2.171125007e-04,2.521288773e-04,1.343262726e-03,-1.606843490e-04,1.182578377e-03,1.057483804e-03,-2.235634070e-04,8.339203972e-04,1.013186091e-03,-2.046893996e-04,8.084966918e-04,-6.477138272e-04,-9.892143093e-05,-7.466352581e-04,8.912926857e-04,-1.092512654e-04,7.820414203e-04,-7.016952504e-04,-5.948156274e-05,-7.611768131e-04,5.234541143e-04,-6.447220597e-05,4.589819083e-04,6.456629896e-04,-7.280077234e-05,5.728622172e-04,-2.215869797e-04,6.782018467e-05,-1.537667951e-04,-7.312767414e-05,-1.360212746e-04,-2.091489488e-04
-7.6,-1.704810727e-03,-4.362743059e-04,-2.141085033e-03,-1.313959666e-03,-1.867055595e-04,-1.500665226e-03,-1.912546884e-03,-3.429185213e-04,-2.255465405e-03,-1.334807820e-03,-1.331390801e-04,-1.467946900e-03,-6.847375829e-04,-2.839499606e-04,-9.686875435e-04,-3.303291983e-04,-2.271144781e-04,-5.574436763e-04,3.087328312e-05,-2.384066469e-04,-2.075333638e-04,4.909002662e-04,-2.607597213e-04,2.301405449e-04,-1.178518397e-03,-1.851008766e-04,-1.363619273e-03,-2.672613026e-04,-1.866242451e-04,-4.538855477e-04,-1.550793960e-03,-2.346036993e-04,-1.785397659e-03,2.783950992e-04,-2.800121093e-04,-1.617010027e-06,1.471527815e-03,-4.191210554e-04,1.052406760e-03,-2.912829601e-05,5.980495899e-05,3.067666297e-05,5.951909688e-04,-1.496751074e-05,5.802234581e-04,5.994295266e-04,-8.522652425e-05,5.142030023e-04,7.994038734e-04,-1.946612525e-04,6.047426209e-04,-3.528476408e-04,-1.336918167e-04,-4.865394576e-04,-5.048630963e-04,-2.543172885e-05,-5.302948252e-04,-2.187577721e-04,-1.619917811e-04,-3.807495532e-04,-1.226329246e-03,-1.021129626e-04,-1.328442208e-03,-6.787090413e-04,-3.163497147e-05,-7.103440128e-04,-1.567242923e-03,-1.270619815e-04,-1.694304904e-03,-1.171384098e-03,-1.388725006e-04,-1.310256599e-03,7.110639429e-04,-1.203817722e-04,5.906821707e-04,4.371875199e-04,-2.155258408e-04,2.216616790e-04,1.279500155e-03,-1.617713460e-04,1.117728809e-03,1.029769964e-03,-2.283812238e-04,8.013887402e-04,9.175828369e-04,-2.055382768e-04,7.120445602e-04,-7.172806497e-04,-9.640210100e-05,-8.136827507e-04,8.012280892e-04,-1.175235401e-04,6.837045491e-04,-7.513973148e-04,-6.472162594e-05,-8.161189408e-04,4.311330015e-04,-6.375825700e-05,3.673747445e-04,5.550254846e-04,-7.330962667e-05,4.817158579e-04,-2.953335550e-04,7.944009291e-05,-2.158934621e-04,-1.604288232e-04,-1.358200044e-04,-2.962488276e-04
-7.5,-1.633843946e-03,-4.173989550e-04,-2.051242901e-03,-1.278541117e-03,-1.849957797e-04,-1.463536897e-03,-1.845043567e-03,-3.290353718e-04,-2.174078939e-03,-1.322848766e-03,-1.361691608e-04,-1.459017927e-03,-6.879348316e-04,-2.846786103e-04,-9.726134419e-04,-3.769915292e-04,-2.250271157e-04,-6.020186449e-04,-2.490272697e-05,-2.399179619e-04,-2.648206889e-04,4.204761549e-04,-2.552260183e-04,1.652501366e-04,-1.210769132e-03,-1.930258473e-04,-1.403794979e-03,-2.932902036e-04,-1.761617517e-04,-4.694519554e-04,-1.540378102e-03,-2.286571941e-04,-1.769035296e-03,2.909586828e-04,-2.843732483e-04,6.585434463e-06,1.457647157e-03,-4.195662862e-04,1.038080871e-03,-3.281559753e-05,5.308794722e-05,2.027234969e-05,5.958233591e-04,-2.101361834e-05,5.748097407e-04,5.327915954e-04,-8.195022150e-05,4.508413739e-04,6.965581053e-04,-1.882285371e-04,5.083295682e-04,-4.139998401e-04,-1.303676111e-04,-5.443674512e-04,-5.593628675e-04,-2.599104050e-05,-5.853539080e-04,-2.505166353e-04,-1.565610187e-04,-4.070776540e-04,-1.201487554e-03,-9.769651238e-05,-1.299184066e-03,-6.709080911e-04,-3.163535190e-05,-7.025434429e-04,-1.511300085e-03,-1.186194075e-04,-1.629919493e-03,-1.124790160e-03,-1.353329589e-04,-1.260123119e-03,6.687341639e-04,-1.224390321e-04,5.462951318e-04,4.059165671e-04,-2.136312122e-04,1.922853549e-04,1.215024982e-03,-1.628642759e-04,1.052160706e-03,1.001515695e-03,-2.329511358e-04,7.685645597e-04,8.229060198e-04,-2.059236491e-04,6.169823707e-04,-7.812902791e-04,-9.405153430e-05,-8.753418134e-04,7.133789135e-04,-1.255734478e-04,5.878054657e-04,-7.956404976e-04,-6.997059621e-05,-8.656110938e-04,3.420567265e-04,-6.315673915e-05,2.788999874e-04,4.668662097e-04,-7.387534119e-05,3.929908685e-04,-3.642712351e-04,8.975978823e-05,-2.745114469e-04,-2.427156957e-04,-1.353664868e-04,-3.780821826e-04
-7.4,-1.554953392e-03,-3.965973729e-04,-1.951550765e-03,-1.236299907e-03,-1.826229792e-04,-1.418922886e-03,-1.768739714e-03,-3.136557039e-04,-2.082395418e-03,-1.304355094e-03,-1.388828527e-04,-1.443237947e-03,-6.875298111e-04,-2.846807369e-04,-9.722105480e-04,-4.189323905e-04,-2.223979402e-04,-6.413303307e-04,-7.761724285e-05,-2.406343919e-04,-3.182516347e-04,3.517874325e-04,-2.493363379e-04,1.024510946e-04,-1.238478185e-03,-2.003125610e-04,-1.438790746e-03,-3.171977131e-04,-1.654411996e-04,-4.826389127e-04,-1.524078291e-03,-2.220180675e-04,-1.746096359e-03,3.041916030e-04,-2.872838695e-04,1.690773357e-05,1.440618380e-03,-4.179290934e-04,1.022689287e-03,-3.357270833e-05,4.601578591e-05,1.244307758e-05,5.963943694e-04,-2.710074006e-05,5.692936293e-04,4.684405515e-04,-7.886716055e-05,3.895733910e-04,5.966880417e-04,-1.818584373e-04,4.148296043e-04,-4.699892619e-04,-1.272131443e-04,-5.972024062e-04,-6.086040407e-04,-2.658835173e-05,-6.351923924e-04,-2.789130612e-04,-1.509592718e-04,-4.298723330e-04,-1.171282818e-03,-9.315573278e-05,-1.264438551e-03,-6.596432723e-04,-3.158207060e-05,-6.912253429e-04,-1.449751452e-03,-1.098749662e-04,-1.559626418e-03,-1.073592425e-03,-1.314024453e-04,-1.204994870e-03,6.268332131e-04,-1.244702648e-04,5.023629483e-04,3.755074438e-04,-2.114297662e-04,1.640776775e-04,1.150092357e-03,-1.639551789e-04,9.861371783e-04,9.727711829e-04,-2.372263652e-04,7.355448177e-04,7.294421260e-04,-2.058174084e-04,5.236247176e-04,-8.395120501e-04,-9.187099444e-05,-9.313830445e-04,6.279362368e-04,-1.333375694e-04,4.945986674e-04,-8.344514254e-04,-7.510996342e-05,-9.095613888e-04,2.564073928e-04,-6.262682106e-05,1.937805717e-04,3.813655165e-04,-7.448432878e-05,3.068811877e-04,-4.282210895e-04,9.867658161e-05,-3.295445079e-04,-3.198471382e-04,-1.346663419e-04,-4.545134802e-04
-7.3,-1.468669925e-03,-3.739909970e-04,-1.842660922e-03,-1.187518518e-03,-1.795947962e-04,-1.367113315e-03,-1.684050357e-03,-2.968818973e-04,-1.980932254e-03,-1.279405673e-03,-1.412503299e-04,-1.420656003e-03,-6.835740101e-04,-2.839407647e-04,-9.675147748e-04,-4.560463920e-04,-2.192139727e-04,-6.752603647e-04,-1.271145568e-04,-2.405447447e-04,-3.676593015e-04,2.850299290e-04,-2.431001287e-04,4.192980029e-05,-1.261580793e-03,-2.069290419e-04,-1.468509835e-03,-3.389724608e-04,-1.544855766e-04,-4.934580375e-04,-1.502015478e-03,-2.146931384e-04,-1.716708616e-03,3.179937018e-04,-2.887704622e-04,2.922323955e-05,1.420417148e-03,-4.141835795e-04,1.006233568e-03,-3.146499880e-05,3.860652159e-05,7.141522784e-06,5.969008723e-04,-3.322399431e-05,5.636768780e-04,4.065059854e-04,-7.596140451e-05,3.305445809e-04,5.000371452e-04,-1.755478946e-04,3.244892506e-04,-5.206622651e-04,-1.242216713e-04,-6.448839364e-04,-6.525317893e-04,-2.722193241e-05,-6.797537217e-04,-3.039169927e-04,-1.451890273e-04,-4.491060200e-04,-1.135905703e-03,-8.849163455e-05,-1.224397337e-03,-6.450302050e-04,-3.145852373e-05,-6.764887288e-04,-1.382929099e-03,-1.008368664e-04,-1.483765966e-03,-1.018069009e-03,-1.270589097e-04,-1.145127918e-03,5.854539288e-04,-1.264504499e-04,4.590034788e-04,3.460301468e-04,-2.089239781e-04,1.371061687e-04,1.084944360e-03,-1.650300537e-04,9.199143065e-04,9.435788334e-04,-2.411571659e-04,7.024216675e-04,6.374666569e-04,-2.051938307e-04,4.322728262e-04,-8.917512860e-04,-8.985847172e-05,-9.816097577e-04,5.450800826e-04,-1.407560812e-04,4.043240014e-04,-8.678833294e-04,-8.002343104e-05,-9.479067605e-04,1.743454650e-04,-6.212767267e-05,1.122177923e-04,2.986930677e-04,-7.511950668e-05,2.235735610e-04,-4.870382307e-04,1.061214922e-04,-3.809167384e-04,-3.917096767e-04,-1.337207371e-04,-5.254304138e-04
-7.2,-1.375616551e-03,-3.497329320e-04,-1.725349483e-03,-1.132545278e-03,-1.759270993e-04,-1.308472378e-03,-1.591490426e-03,-2.788412174e-04,-1.870331643e-03,-1.248131827e-03,-1.432429574e-04,-1.391374785e-03,-6.761459913e-04,-2.824467208e-04,-9.585927121e-04,-4.882650389e-04,-2.154650354e-04,-7.037300744e-04,-1.732598736e-04,-2.396421370e-04,-4.129020106e-04,2.203860751e-04,-2.365281452e-04,-1.614207012e-05,-1.280035751e-03,-2.128459045e-04,-1.492881655e-03,-3.586111700e-04,-1.433196732e-04,-5.019308431e-04,-1.474343859e-03,-2.066950670e-04,-1.681038926e-03,3.322343235e-04,-2.888677640e-04,4.336655954e-05,1.397031739e-03,-4.083303828e-04,9.887013557e-04,-2.660269259e-05,3.088147343e-05,4.278780839e-06,5.973228865e-04,-3.937550619e-05,5.579473804e-04,3.470921657e-04,-7.321436045e-05,2.738778052e-04,4.068269468e-04,-1.692872510e-04,2.375396958e-04,-5.659026607e-04,-1.213813390e-04,-6.872839996e-04,-6.911225684e-04,-2.788926965e-05,-7.190118380e-04,-3.255206384e-04,-1.392543676e-04,-4.647750060e-04,-1.095580568e-03,-8.370609365e-05,-1.179286662e-03,-6.272063032e-04,-3.124849992e-05,-6.584548031e-04,-1.311197025e-03,-9.151675371e-05,-1.402713778e-03,-9.585256325e-04,-1.222849576e-04,-1.080810590e-03,5.446826116e-04,-1.283560387e-04,4.163265729e-04,3.175458103e-04,-2.061176213e-04,1.114281890e-04,1.019807943e-03,-1.660695168e-04,8.537384261e-04,9.139735211e-04,-2.446912289e-04,6.692822922e-04,5.472417251e-04,-2.040303406e-04,3.432113845e-04,-9.378519573e-04,-8.800890980e-05,-1.025860867e-03,4.649767810e-04,-1.477722654e-04,3.172045156e-04,-8.960139105e-04,-8.459985534e-05,-9.806137658e-04,9.600977232e-05,-6.161908671e-05,3.439068560e-05,2.190067240e-04,-7.576019344e-05,1.432465305e-04,-5.406139370e-04,1.120614457e-04,-4.285524912e-04,-4.582172813e-04,-1.325268787e-04,-5.907441600e-04
-7.1,-1.276499945e-03,-3.240046667e-04,-1.600504612e-03,-1.071790233e-03,-1.716434262e-04,-1.243433659e-03,-1.491669328e-03,-2.596835667e-04,-1.751352895e-03,-1.210716054e-03,-1.448336799e-04,-1.355549734e-03,-6.653502606e-04,-2.801903054e-04,-9.455405660e-04,-5.155572718e-04,-2.111438686e-04,-7.267011404e-04,-2.159405082e-04,-2.379240200e-04,-4.538645283e-04,1.580231490e-04,-2.296320946e-04,-7.160894558e-05,-1.293824364e-03,-2.180362593e-04,-1.511860623e-03,-3.761188846e-04,-1.319699500e-04,-5.080888346e-04,-1.441249477e-03,-1.980423318e-04,-1.639291809e-03,3.467551197e-04,-2.876196111e-04,5.913550851e-05,1.370464906e-03,-4.003991575e-04,9.700657483e-04,-1.914018458e-05,2.286517266e-05,3.724988074e-06,5.976221816e-04,-4.554423524e-05,5.520779464e-04,2.902773486e-04,-7.060537917e-05,2.196719694e-04,3.172548502e-04,-1.630605566e-04,1.541942936e-04,-6.056340106e-04,-1.186753541e-04,-7.243093647e-04,-7.243840957e-04,-2.858660673e-05,-7.529707025e-04,-3.437389552e-04,-1.331605714e-04,-4.768995266e-04,-1.050563028e-03,-7.880149943e-05,-1.129364527e-03,-6.063294460e-04,-3.093646517e-05,-6.372659112e-04,-1.234947927e-03,-8.192982005e-05,-1.316877748e-03,-8.952938253e-04,-1.170679290e-04,-1.012361754e-03,5.045992626e-04,-1.301653245e-04,3.744339382e-04,2.901058369e-04,-2.030156121e-04,8.709022479e-05,9.548927522e-04,-1.670499209e-04,7.878428314e-04,8.839817061e-04,-2.477741262e-04,6.362075799e-04,4.590130496e-04,-2.023083103e-04,2.567047393e-04,-9.776997115e-04,-8.631432350e-05,-1.064014035e-03,3.877752983e-04,-1.543318063e-04,2.334434921e-04,-9.189435343e-04,-8.873618759e-05,-1.007679722e-03,2.151637332e-05,-6.106207819e-05,-3.954570487e-05,1.424501854e-04,-7.638237548e-05,6.606780990e-05,-5.888775566e-04,1.164997367e-04,-4.723778199e-04,-5.193122204e-04,-1.310786997e-04,-6.503909201e-04
-7,-1.172099802e-03,-2.970119612e-04,-1.469111763e-03,-1.005720066e-03,-1.667742198e-04,-1.172494285e-03,-1.385283270e-03,-2.395784421e-04,-1.624861712e-03,-1.167390481e-03,-1.459974672e-04,-1.313387948e-03,-6.513159461e-04,-2.771669232e-04,-9.284828692e-04,-5.379296744e-04,-2.062462390e-04,-7.441759134e-04,-2.550669812e-04,-2.353921589e-04,-4.904591401e-04,9.809172576e-05,-2.224242796e-04,-1.243325539e-04,-1.302949271e-03,-2.224755683e-04,-1.525424839e-03,-3.915092568e-04,-1.204643438e-04,-5.119736006e-04,-1.402948546e-03,-1.887590844e-04,-1.591707630e-03,3.613741517e-04,-2.850802814e-04,7.629387032e-05,1.340733607e-03,-3.904484517e-04,9.502851552e-04,-9.274134166e-06,1.458533570e-05,5.311201537e-06,5.977414852e-04,-5.171584160e-05,5.460256436e-04,2.361128162e-04,-6.811232922e-05,1.680004870e-04,2.314904935e-04,-1.568456219e-04,7.464487163e-05,-6.398216400e-04,-1.160827238e-04,-7.559043637e-04,-7.523553688e-04,-2.930870149e-05,-7.816640703e-04,-3.586099539e-04,-1.269135890e-04,-4.855235429e-04,-1.001137212e-03,-7.378041274e-05,-1.074917625e-03,-5.825763930e-04,-3.050776546e-05,-6.130841585e-04,-1.154599434e-03,-7.209486258e-05,-1.226694297e-03,-8.287284807e-04,-1.114000498e-04,-9.401285305e-04,4.652771591e-04,-1.318588204e-04,3.334183387e-04,2.637505350e-04,-1.996236985e-04,6.412683651e-05,8.903893095e-04,-1.679445848e-04,7.224447247e-04,8.536200105e-04,-2.503498482e-04,6.032701623e-04,3.730074289e-04,-2.000136908e-04,1.729937381e-04,-1.011224519e-03,-8.476393306e-05,-1.095988452e-03,3.136039480e-04,-1.603821905e-04,1.532217576e-04,-9.367929739e-04,-9.234044616e-05,-1.029133420e-03,-4.904297973e-05,-6.041930153e-05,-1.094622813e-04,6.915027215e-05,-7.695919952e-05,-7.808927376e-06,-6.317975922e-04,1.194748014e-04,-5.123227908e-04,-5.749664563e-04,-1.293675413e-04,-7.043339975e-04
-6.9,-1.063255591e-03,-2.689799134e-04,-1.332235505e-03,-9.348514187e-04,-1.613558330e-04,-1.096207252e-03,-1.273104682e-03,-2.187110028e-04,-1.491815684e-03,-1.118434231e-03,-1.467117426e-04,-1.265145974e-03,-6.341946924e-04,-2.733756208e-04,-9.075703132e-04,-5.554256788e-04,-2.007709962e-04,-7.561966751e-04,-2.905736172e-04,-2.320525691e-04,-5.226261862e-04,4.072463709e-05,-2.149172299e-04,-1.741925928e-04,-1.307432973e-03,-2.261415529e-04,-1.533574526e-03,-4.048044634e-04,-1.088320590e-04,-5.136365225e-04,-1.359685127e-03,-1.788749199e-04,-1.538560047e-03,3.758920359e-04,-2.813153488e-04,9.457668714e-05,1.307868481e-03,-3.785628973e-04,9.293055833e-04,2.760960017e-06,6.072865927e-06,8.833825945e-06,5.976057121e-04,-5.787257813e-05,5.397331340e-04,1.846230273e-04,-6.571203203e-05,1.189109953e-04,1.496728818e-04,-1.506145737e-04,-9.416918774e-07,-6.684732649e-04,-1.135795965e-04,-7.820528614e-04,-7.751061209e-04,-3.004878274e-05,-8.051549036e-04,-3.701942708e-04,-1.205195687e-04,-4.907138395e-04,-9.476123043e-04,-6.864539817e-05,-1.016257703e-03,-5.561405742e-04,-2.994885467e-05,-5.860894288e-04,-1.070589483e-03,-6.203429968e-05,-1.132623782e-03,-7.592043975e-04,-1.052787656e-04,-8.644831631e-04,4.267824622e-04,-1.334196157e-04,2.933628465e-04,2.385080542e-04,-1.959480245e-04,4.256002963e-05,8.264678640e-04,-1.687246031e-04,6.577432609e-04,8.228942060e-04,-2.523614401e-04,5.705327659e-04,2.894315733e-04,-1.971372312e-04,9.229434210e-05,-1.038402113e-03,-8.334440413e-05,-1.121746517e-03,2.425688495e-04,-1.658725642e-04,7.669628527e-05,-9.497001139e-04,-9.533456803e-05,-1.045034682e-03,-1.156016481e-04,-5.965527110e-05,-1.752569192e-04,-7.849126399e-07,-7.746149396e-05,-7.824640660e-05,-6.693811569e-04,1.210572049e-04,-5.483239519e-04,-6.251825614e-04,-1.273827417e-04,-7.525653031e-04
-6.8,-9.508505495e-04,-2.401471608e-04,-1.190997710e-03,-8.597422524e-04,-1.554292674e-04,-1.015171520e-03,-1.155968425e-03,-1.972772305e-04,-1.353245655e-03,-1.064169160e-03,-1.469566912e-04,-1.211125851e-03,-6.141574977e-04,-2.688189314e-04,-8.829764291e-04,-5.681235737e-04,-1.947200987e-04,-7.628436724e-04,-3.224184778e-04,-2.279154457e-04,-5.503339235e-04,-1.396348070e-05,-2.071233692e-04,-2.210868499e-04,-1.307316161e-03,-2.290142681e-04,-1.536330429e-03,-4.160345784e-04,-9.710339993e-05,-5.131379784e-04,-1.311728095e-03,-1.684246316e-04,-1.480152726e-03,3.901001972e-04,-2.764017191e-04,1.136984781e-04,1.271914984e-03,-3.648489432e-04,9.070660408e-04,1.669978915e-05,-2.638166254e-06,1.406162289e-05,5.971253458e-04,-6.399326146e-05,5.331320844e-04,1.358077321e-04,-6.338062046e-05,7.242711162e-05,7.190995304e-05,-1.443353873e-04,-7.242543422e-05,-6.916376798e-04,-1.111409385e-04,-8.027786183e-04,-7.927352521e-04,-3.079864086e-05,-8.235338930e-04,-3.785739690e-04,-1.139844886e-04,-4.925584575e-04,-8.903184448e-04,-6.339903381e-05,-9.537174786e-04,-5.272292918e-04,-2.924755109e-05,-5.564768429e-04,-9.833710579e-04,-5.177411568e-05,-1.035145174e-03,-6.871119945e-04,-9.870722062e-05,-7.858192151e-04,3.891743914e-04,-1.348335827e-04,2.543408087e-04,2.143941730e-04,-1.919946104e-04,2.239956266e-05,7.632779569e-04,-1.693590407e-04,5.939189162e-04,7.917993429e-04,-2.537517552e-04,5.380475878e-04,2.084720291e-04,-1.936740169e-04,1.479801224e-05,-1.059253988e-03,-8.204011337e-05,-1.141294101e-03,1.747543443e-04,-1.707540960e-04,4.000248305e-06,-9.578159212e-04,-9.765671049e-05,-1.055472632e-03,-1.781174654e-04,-5.873651377e-05,-2.368539792e-04,-6.726624958e-05,-7.785829074e-05,-1.451245403e-04,-7.016714813e-04,1.213447151e-04,-5.803267662e-04,-6.699934946e-04,-1.251121136e-04,-7.951056082e-04
-6.7,-8.357934089e-04,-2.107593790e-04,-1.046552788e-03,-7.809816347e-04,-1.490387032e-04,-9.300203379e-04,-1.034755253e-03,-1.754783848e-04,-1.210233638e-03,-1.004954382e-03,-1.467154283e-04,-1.151669810e-03,-5.913909241e-04,-2.635027111e-04,-8.548936352e-04,-5.761338958e-04,-1.880986584e-04,-7.642325542e-04,-3.505828885e-04,-2.229951175e-04,-5.735780060e-04,-6.587633120e-05,-1.990547770e-04,-2.649311082e-04,-1.302656272e-03,-2.310763634e-04,-1.533732635e-03,-4.252366818e-04,-8.530963287e-05,-5.105463146e-04,-1.259367794e-03,-1.574479751e-04,-1.416815769e-03,4.037900206e-04,-2.704271337e-04,1.333628869e-04,1.232936076e-03,-3.494307779e-04,8.835052984e-04,3.225445139e-05,-1.151059824e-05,2.074385316e-05,5.962005023e-04,-7.005332728e-05,5.261471750e-04,8.964545443e-05,-6.109396369e-05,2.855149074e-05,-1.719586314e-06,-1.379742279e-04,-1.396938142e-04,-7.094018985e-04,-1.087421910e-04,-8.181440895e-04,-8.053682990e-04,-3.154887563e-05,-8.369171746e-04,-3.838510442e-04,-1.073138528e-04,-4.911648970e-04,-8.296026336e-04,-5.804398144e-05,-8.876466151e-04,-4.960607776e-04,-2.839323571e-05,-5.244540133e-04,-8.934069099e-04,-4.134372248e-05,-9.347506324e-04,-6.128529358e-04,-9.169472897e-05,-7.045476648e-04,3.525057215e-04,-1.360893027e-04,2.164164188e-04,1.914127904e-04,-1.877688115e-04,3.643978951e-06,7.009483514e-04,-1.698147641e-04,5.311335873e-04,7.603209029e-04,-2.544643633e-04,5.058565396e-04,1.302950254e-04,-1.896223554e-04,-5.932732996e-05,-1.073846484e-03,-8.083330582e-05,-1.154679789e-03,1.102241330e-04,-1.749804869e-04,-6.475635390e-05,-9.613009118e-04,-9.926247521e-05,-1.060563387e-03,-2.365710124e-04,-5.763172171e-05,-2.942027341e-04,-1.302227282e-04,-7.811748013e-05,-2.083402083e-04,-7.287444453e-04,1.204559889e-04,-6.082884563e-04,-7.094614177e-04,-1.225423399e-04,-8.320037576e-04
-6.6,-7.189991288e-04,-1.810626289e-04,-9.000617577e-04,-6.991790495e-04,-1.422299904e-04,-8.414090399e-04,-9.103738131e-04,-1.535151989e-04,-1.063889012e-03,-9.411807128e-04,-1.459741057e-04,-1.087154819e-03,-5.660935693e-04,-2.574360654e-04,-8.235296346e-04,-5.795971558e-04,-1.809150059e-04,-7.605121618e-04,-3.750710892e-04,-2.173100149e-04,-5.923811041e-04,-1.149362715e-04,-1.907230436e-04,-3.056593151e-04,-1.293526746e-03,-2.323134678e-04,-1.525840214e-03,-4.324542136e-04,-7.348281225e-05,-5.059370259e-04,-1.202912959e-03,-1.459893862e-04,-1.348902345e-03,4.167607475e-04,-2.634893958e-04,1.532713517e-04,1.191014058e-03,-3.324471658e-04,8.585668924e-04,4.912196157e-05,-2.050430730e-05,2.861765427e-05,5.947237995e-04,-7.602490653e-05,5.186988930e-04,4.609671961e-05,-5.882820050e-05,-1.273148089e-05,-7.116395049e-05,-1.314979444e-04,-2.026618949e-04,-7.218878905e-04,-1.063606405e-04,-8.282485310e-04,-8.131546382e-04,-3.228933812e-05,-8.454439763e-04,-3.861460937e-04,-1.005124894e-04,-4.866585830e-04,-7.658252524e-04,-5.258307598e-05,-8.184083283e-04,-4.628615290e-04,-2.737697379e-05,-4.902385028e-04,-8.011648916e-04,-3.077576927e-05,-8.319406608e-04,-5.368364076e-04,-8.425709922e-05,-6.210935068e-04,3.168227048e-04,-1.371776656e-04,1.796450393e-04,1.695564639e-04,-1.832748685e-04,-1.371840465e-05,6.395866697e-04,-1.700562076e-04,4.695304622e-04,7.284360745e-04,-2.544446137e-04,4.739914608e-04,5.504529689e-05,-1.849824052e-04,-1.299371083e-04,-1.082289671e-03,-7.970412228e-05,-1.161993793e-03,4.902151299e-05,-1.785082889e-04,-1.294867760e-04,-9.603232502e-04,-1.001249390e-04,-1.060448189e-03,-2.909640510e-04,-5.631181314e-05,-3.472758641e-04,-1.896005903e-04,-7.820669103e-05,-2.678072814e-04,-7.507059919e-04,1.185242899e-04,-6.321817020e-04,-7.436761491e-04,-1.196594468e-04,-8.633355959e-04
-6.5,-6.013703230e-04,-1.512973028e-04,-7.526676258e-04,-6.149543660e-04,-1.350493080e-04,-7.500036740e-04,-7.837427988e-04,-1.315823857e-04,-9.153251845e-04,-8.732659357e-04,-1.447220419e-04,-1.017987978e-03,-5.384734348e-04,-2.506313728e-04,-7.891048076e-04,-5.786824341e-04,-1.731807464e-04,-7.518631804e-04,-3.959103656e-04,-2.108826089e-04,-6.067929745e-04,-1.610850730e-04,-1.821391786e-04,-3.432242517e-04,-1.280017156e-03,-2.327146350e-04,-1.512731791e-03,-4.377368460e-04,-6.165552971e-05,-4.993923757e-04,-1.142688123e-03,-1.340975930e-04,-1.276785716e-03,4.288244151e-04,-2.556951867e-04,1.731292284e-04,1.146249447e-03,-3.140489712e-04,8.322004762e-04,6.699005027e-05,-2.957641158e-05,3.741363869e-05,5.925813386e-04,-8.187689776e-05,5.107044408e-04,5.105897542e-06,-5.656033944e-05,-5.145444190e-05,-1.363975743e-04,-1.248758665e-04,-2.612734407e-04,-7.292500356e-04,-1.039763130e-04,-8.332263486e-04,-8.162652937e-04,-3.300965499e-05,-8.492749486e-04,-3.855972118e-04,-9.358457521e-05,-4.791817870e-04,-6.993573056e-04,-4.701952383e-05,-7.463768294e-04,-4.278640164e-04,-2.619166907e-05,-4.540556855e-04,-7.071141363e-04,-2.010592502e-05,-7.272200614e-04,-4.594762680e-04,-7.641674013e-05,-5.358930081e-04,2.821636769e-04,-1.380911822e-04,1.440724947e-04,1.488065494e-04,-1.785157012e-04,-2.970915175e-05,5.792783672e-04,-1.700452480e-04,4.092331192e-04,6.961143100e-04,-2.536407835e-04,4.424735265e-04,-1.715610695e-05,-1.797550481e-04,-1.969111550e-04,-1.084736358e-03,-7.863058161e-05,-1.163366939e-03,-8.832039205e-06,-1.812970251e-04,-1.901290644e-04,-9.550586574e-04,-1.002338323e-04,-1.055292490e-03,-3.413191839e-04,-5.474981925e-05,-3.960690032e-04,-2.453634199e-04,-7.809434371e-05,-3.234577637e-04,-7.676916797e-04,1.156926843e-04,-6.519989954e-04,-7.727536317e-04,-1.164495898e-04,-8.892032215e-04
-6.4,-4.837808061e-04,-1.216931745e-04,-6.054739806e-04,-5.289290733e-04,-1.275421005e-04,-6.564711738e-04,-6.557744893e-04,-1.098639081e-04,-7.656383974e-04,-8.016509691e-04,-1.429518917e-04,-9.446028607e-04,-5.087461654e-04,-2.431043211e-04,-7.518504864e-04,-5.735865892e-04,-1.649107987e-04,-7.384973880e-04,-4.131515623e-04,-2.037393039e-04,-6.168908662e-04,-2.042849668e-04,-1.733135661e-04,-3.775985328e-04,-1.262233893e-03,-2.322728168e-04,-1.494506710e-03,-4.411406773e-04,-4.986062782e-05,-4.910013051e-04,-1.079031304e-03,-1.218251159e-04,-1.200856420e-03,4.398077853e-04,-2.471581782e-04,1.926496071e-04,1.098757258e-03,-2.943969946e-04,8.043602632e-04,8.554165866e-05,-3.868157164e-05,4.686008702e-05,5.896527244e-04,-8.757510348e-05,5.020776210e-04,-3.339817185e-05,-5.426885642e-05,-8.766702828e-05,-1.974229312e-04,-1.180803236e-04,-3.155032549e-04,-7.316736709e-04,-1.015722969e-04,-8.332459678e-04,-8.148917318e-04,-3.369963724e-05,-8.485913690e-04,-3.823588568e-04,-8.653392545e-05,-4.688927823e-04,-6.305780067e-04,-4.135726996e-05,-6.719352766e-04,-3.913045907e-04,-2.483234799e-05,-4.161369387e-04,-6.117218293e-04,-9.372601865e-06,-6.210944312e-04,-3.811887196e-04,-6.820252986e-05,-4.493912495e-04,2.485564269e-04,-1.388231196e-04,1.097333073e-04,1.291330485e-04,-1.734930143e-04,-4.435996580e-05,5.200855363e-04,-1.697414701e-04,3.503440663e-04,6.633171108e-04,-2.520052427e-04,4.113118682e-04,-8.621409559e-05,-1.739413686e-04,-2.601554642e-04,-1.081380946e-03,-7.758857702e-05,-1.158969523e-03,-6.333945581e-05,-1.833092417e-04,-2.466486975e-04,-9.456913950e-04,-9.959428393e-05,-1.045285679e-03,-3.876807188e-04,-5.292068493e-05,-4.406014037e-04,-2.974931956e-04,-7.775077229e-05,-3.752439679e-04,-7.798680886e-04,1.121112149e-04,-6.677568737e-04,-7.968344393e-04,-1.129001837e-04,-9.097346231e-04
-6.3,-3.670618102e-04,-9.246560005e-05,-4.595274102e-04,-4.417186733e-04,-1.197522654e-04,-5.614709387e-04,-5.273601055e-04,-8.852920092e-05,-6.158893064e-04,-7.267963161e-04,-1.406598248e-04,-8.674561409e-04,-4.771335916e-04,-2.348738595e-04,-7.120074511e-04,-5.645332684e-04,-1.561234445e-04,-7.206567129e-04,-4.268695035e-04,-1.959102925e-04,-6.227797959e-04,-2.445194770e-04,-1.642560034e-04,-4.087754804e-04,-1.240300822e-03,-2.309853357e-04,-1.471286158e-03,-4.427282624e-04,-3.813094121e-05,-4.808592036e-04,-1.012291458e-03,-1.092276794e-04,-1.121519137e-03,4.495526136e-04,-2.379962640e-04,2.115563496e-04,1.048663190e-03,-2.736598489e-04,7.750033416e-04,1.044593902e-04,-4.777238583e-05,5.668700433e-05,5.858118245e-04,-9.308251213e-05,4.927293124e-04,-6.950176867e-05,-5.193413164e-05,-1.214359003e-04,-2.542736245e-04,-1.110860590e-04,-3.653596836e-04,-7.293741561e-04,-9.913459006e-05,-8.285087462e-04,-8.092453044e-04,-3.434945730e-05,-8.435947617e-04,-3.766003738e-04,-7.936438829e-05,-4.559647621e-04,-5.598721930e-04,-3.560142899e-05,-5.954736220e-04,-3.534213716e-04,-2.329651881e-05,-3.767178904e-04,-5.154500893e-04,1.383434311e-06,-5.140666550e-04,-3.023898983e-04,-5.964947595e-05,-3.620393742e-04,2.160152754e-04,-1.393666704e-04,7.664860498e-05,1.104946245e-04,-1.682076139e-04,-5.771298941e-05,4.620465580e-04,-1.691031354e-04,2.929434226e-04,6.299977595e-04,-2.494955824e-04,3.805021771e-04,-1.520606347e-04,-1.675428364e-04,-3.196034711e-04,-1.072457567e-03,-7.655188636e-05,-1.149009454e-03,-1.145305230e-04,-1.845105769e-04,-2.990410999e-04,-9.324151371e-04,-9.822544020e-05,-1.030640577e-03,-4.301156285e-04,-5.080120197e-05,-4.809168304e-04,-3.459914057e-04,-7.714940336e-05,-4.231408091e-04,-7.874344396e-04,1.079353571e-04,-6.794990825e-04,-8.160821120e-04,-1.090011240e-04,-9.250832360e-04
-6.2,-2.519905405e-04,-6.381263691e-05,-3.158031774e-04,-3.539256771e-04,-1.117215172e-04,-4.656471943e-04,-3.993567705e-04,-6.773034004e-05,-4.670871106e-04,-6.491779029e-04,-1.378456602e-04,-7.870235632e-04,-4.438619118e-04,-2.259620448e-04,-6.698239567e-04,-5.517709512e-04,-1.468403796e-04,-6.986113308e-04,-4.371627825e-04,-1.874293745e-04,-6.245921570e-04,-2.817935604e-04,-1.549758571e-04,-4.367694175e-04,-1.214359323e-03,-2.288542895e-04,-1.443213613e-03,-4.425680987e-04,-2.649906211e-05,-4.690671608e-04,-9.428253836e-04,-9.636354358e-05,-1.039188927e-03,4.579157135e-04,-2.283279804e-04,2.295877331e-04,9.961024087e-04,-2.520116107e-04,7.440907980e-04,1.234308229e-04,-5.679979902e-05,6.663102392e-05,5.809293674e-04,-9.835974335e-05,4.825696240e-04,-1.033051275e-04,-4.953847985e-05,-1.528436073e-04,-3.070160217e-04,-1.038694137e-04,-4.108854354e-04,-7.225953918e-04,-9.665173483e-05,-8.192471266e-04,-7.995565587e-04,-3.494958476e-05,-8.345061434e-04,-3.685040352e-04,-7.208013027e-05,-4.405841655e-04,-4.876272644e-04,-2.975859398e-05,-5.173858584e-04,-3.144520076e-04,-2.158446823e-05,-3.360364758e-04,-4.187526470e-04,1.211955781e-05,-4.066330892e-04,-2.234929791e-04,-5.079822558e-05,-2.742912047e-04,1.845391009e-04,-1.397143930e-04,4.482470783e-05,9.283928679e-05,-1.626597812e-04,-6.982049442e-05,4.051772452e-04,-1.680888116e-04,2.370884336e-04,5.961018788e-04,-2.460756185e-04,3.500262602e-04,-2.146540621e-04,-1.605619885e-04,-3.752160505e-04,-1.058237078e-03,-7.549222532e-05,-1.133729304e-03,-1.624629600e-04,-1.848699725e-04,-3.473329325e-04,-9.154327090e-04,-9.615910619e-05,-1.011591815e-03,-4.687133202e-04,-4.837028298e-05,-5.170836032e-04,-3.908791927e-04,-7.626799360e-05,-4.671471863e-04,-7.906225375e-04,1.033245094e-04,-6.872980281e-04,-8.306811014e-04,-1.047458111e-04,-9.354269125e-04
-6.1,-1.392805175e-04,-3.591286921e-05,-1.751933867e-04,-2.661328142e-04,-1.034889156e-04,-3.696217298e-04,-2.725758126e-04,-4.760006735e-05,-3.201758800e-04,-5.692818973e-04,-1.345129041e-04,-7.037948015e-04,-4.091592637e-04,-2.163938322e-04,-6.255530960e-04,-5.355699309e-04,-1.370867211e-04,-6.726566520e-04,-4.441527209e-04,-1.783336993e-04,-6.224864202e-04,-3.161329302e-04,-1.454822973e-04,-4.616152276e-04,-1.184567605e-03,-2.258868021e-04,-1.410454407e-03,-4.407336474e-04,-1.499706737e-05,-4.557307148e-04,-8.709942154e-04,-8.329276248e-05,-9.542869778e-04,4.647693197e-04,-2.182685275e-04,2.465007922e-04,9.412215033e-04,-2.296291743e-04,7.115923290e-04,1.421542818e-04,-6.571344062e-05,7.644084116e-05,5.748769804e-04,-1.033656497e-04,4.715113308e-04,-1.349203507e-04,-4.706561699e-05,-1.819859677e-04,-3.557476739e-04,-9.640824635e-05,-4.521559203e-04,-7.116071337e-04,-9.411446353e-05,-8.057215972e-04,-7.860737932e-04,-3.549055742e-05,-8.215643506e-04,-3.582627620e-04,-6.468576317e-05,-4.229485252e-04,-4.142297781e-04,-2.383695152e-05,-4.380667296e-04,-2.746313974e-04,-1.969945289e-05,-2.943308503e-04,-3.220714756e-04,2.279179388e-05,-2.992796817e-04,-1.449049398e-04,-4.169447182e-05,-1.865994116e-04,1.541109349e-04,-1.398579861e-04,1.425294877e-05,7.610589251e-05,-1.568496513e-04,-8.074375875e-05,3.494733209e-04,-1.666593373e-04,1.828139835e-04,5.615691565e-04,-2.417161870e-04,3.198529695e-04,-2.739773154e-04,-1.530032877e-04,-4.269806031e-04,-1.039023052e-03,-7.437942273e-05,-1.113402475e-03,-2.072219317e-04,-1.843601620e-04,-3.915820937e-04,-8.949545348e-04,-9.343841872e-05,-9.883929535e-04,-5.035838520e-04,-4.560965914e-05,-5.491935111e-04,-4.321964051e-04,-7.508978591e-05,-5.072861910e-04,-7.896943649e-04,9.843975856e-05,-6.912546063e-04,-8.408344284e-04,-1.001318740e-04,-9.409663024e-04
-6,-2.957366341e-05,-8.923814639e-06,-3.849747805e-05,-1.788967281e-04,-9.509057690e-05,-2.739873050e-04,-1.477726805e-04,-2.825054797e-05,-1.760232285e-04,-4.875990477e-04,-1.306686705e-04,-6.182677182e-04,-3.732530998e-04,-2.061968697e-04,-5.794499695e-04,-5.162189036e-04,-1.268909209e-04,-6.431098245e-04,-4.479817973e-04,-1.686633914e-04,-6.166451887e-04,-3.475828984e-04,-1.357845088e-04,-4.833674072e-04,-1.151099538e-03,-2.220950684e-04,-1.373194606e-03,-4.373023768e-04,-3.656174719e-06,-4.409585515e-04,-7.971600667e-04,-7.007641721e-05,-8.672364839e-04,4.700011714e-04,-2.079259750e-04,2.620751965e-04,8.841815824e-04,-2.066896501e-04,6.774919322e-04,1.603437003e-04,-7.446189729e-05,8.588180297e-05,5.675311303e-04,-1.080580883e-04,4.594730419e-04,-1.644693034e-04,-4.449961949e-05,-2.089689229e-04,-4.005934644e-04,-8.868287582e-05,-4.892763402e-04,-6.967014673e-04,-9.151535773e-05,-7.882168250e-04,-7.690608635e-04,-3.596275543e-05,-8.050236189e-04,-3.460778965e-04,-5.718645120e-05,-4.032643477e-04,-3.400622041e-04,-1.784630105e-05,-3.579085051e-04,-2.341896299e-04,-1.764785037e-05,-2.518374803e-04,-2.258338527e-04,3.335526331e-05,-1.924785894e-04,-6.702352384e-05,-3.238828211e-05,-9.941180594e-05,1.246986974e-04,-1.397882603e-04,-1.508956292e-05,6.022602697e-05,-1.507776038e-04,-9.055157684e-05,2.949134882e-04,-1.647798740e-04,1.301336142e-04,5.263358062e-04,-2.363957538e-04,2.899400525e-04,-3.300364415e-04,-1.448739133e-04,-4.749103547e-04,-1.015147393e-03,-7.318178524e-05,-1.088329178e-03,-2.489187510e-04,-1.829584974e-04,-4.318772483e-04,-8.711966052e-04,-9.011649745e-05,-9.613131027e-04,-5.348553768e-04,-4.250498000e-05,-5.773603568e-04,-4.700004568e-04,-7.360435462e-05,-5.436048114e-04,-7.849381266e-04,9.344091462e-05,-6.914972119e-04,-8.467615120e-04,-9.516163719e-05,-9.419231492e-04
-5.9,7.656533490e-05,1.701915678e-05,9.358449168e-05,-9.274286928e-05,-8.655953802e-05,-1.793024073e-04,-2.563911043e-05,-9.772740974e-06,-3.541185141e-05,-4.046195772e-04,-1.263235194e-04,-5.309430966e-04,-3.363680770e-04,-1.954013026e-04,-5.317693796e-04,-4.940219895e-04,-1.162845975e-04,-6.103065870e-04,-4.488120645e-04,-1.584610870e-04,-6.072731515e-04,-3.762072094e-04,-1.258918152e-04,-5.020990247e-04,-1.114143348e-03,-2.174962082e-04,-1.331639556e-03,-4.323553085e-04,7.493629272e-06,-4.248616792e-04,-7.216833147e-04,-5.677589631e-05,-7.784592110e-04,4.735134777e-04,-1.973980761e-04,2.761154016e-04,8.251597914e-04,-1.833684356e-04,6.417913559e-04,1.777315283e-04,-8.299299855e-05,9.473852972e-05,5.587756588e-04,-1.123948629e-04,4.463807959e-04,-1.920826684e-04,-4.182360666e-05,-2.339062751e-04,-4.417020554e-04,-8.067737015e-05,-5.223794255e-04,-6.781894001e-04,-8.884838572e-05,-7.670377858e-04,-7.487947509e-04,-3.635634303e-05,-7.851510939e-04,-3.321573562e-04,-4.958810353e-05,-3.817454598e-04,-2.655003385e-04,-1.179808863e-05,-2.772984271e-04,-1.933504267e-04,-1.543928459e-05,-2.087897113e-04,-1.304502069e-04,4.376456358e-05,-8.668564330e-05,9.765164538e-06,-2.293338839e-05,-1.316822385e-05,9.625619895e-05,-1.394951342e-04,-4.323893521e-05,4.512552924e-05,-1.444446161e-04,-9.931908682e-05,2.414622137e-04,-1.624218238e-04,7.904038984e-05,4.903370232e-04,-2.301009208e-04,2.602361023e-04,-3.828600922e-04,-1.361844437e-04,-5.190445360e-04,-9.869661591e-04,-7.186667073e-05,-1.058832830e-03,-2.876894497e-04,-1.806481626e-04,-4.683376123e-04,-8.443790188e-04,-8.625501482e-05,-9.306340336e-04,-5.626718505e-04,-3.904726000e-05,-6.017191105e-04,-5.043659323e-04,-7.180798916e-05,-5.761739214e-04,-7.766637977e-04,8.848297630e-05,-6.881808214e-04,-8.486965120e-04,-8.984243397e-05,-9.385389460e-04
-5.8,1.786518696e-04,4.180341410e-05,2.204552837e-04,-8.162025339e-06,-7.792568930e-05,-8.608771464e-05,9.320206547e-05,7.763674422e-06,1.009657399e-04,-3.208292367e-04,-1.214912828e-04,-4.423205195e-04,-2.987248303e-04,-1.840395653e-04,-4.827643957e-04,-4.692964668e-04,-1.053023288e-04,-5.745987955e-04,-4.468238193e-04,-1.477714575e-04,-5.945952768e-04,-4.020870820e-04,-1.158137383e-04,-5.179008203e-04,-1.073900289e-03,-2.121119883e-04,-1.286012278e-03,-4.259771738e-04,1.842393059e-05,-4.075532432e-04,-6.449205882e-04,-4.345226162e-05,-6.883728498e-04,4.752206831e-04,-1.867698776e-04,2.884508055e-04,7.643482845e-04,-1.598382481e-04,6.045100364e-04,1.940698224e-04,-9.125416529e-05,1.028156571e-04,5.485028257e-04,-1.163347835e-04,4.321680422e-04,-2.179003991e-04,-3.901849541e-05,-2.569188945e-04,-4.792443238e-04,-7.238020652e-05,-5.516245303e-04,-6.563982026e-04,-8.610825176e-05,-7.425064543e-04,-7.255633877e-04,-3.666141980e-05,-7.622248075e-04,-3.167142575e-04,-4.189757109e-05,-3.586118286e-04,-1.909115286e-04,-5.705431141e-06,-1.966169597e-04,-1.523302005e-04,-1.308661927e-05,-1.654168197e-04,-3.631268685e-05,5.397414705e-05,1.766146021e-05,8.508847001e-05,-1.338648183e-05,7.170198818e-05,6.872392675e-05,-1.389675304e-04,-7.024360361e-05,3.072526665e-05,-1.378524893e-04,-1.071272226e-04,1.890717383e-04,-1.595643209e-04,2.950741745e-05,4.535089917e-04,-2.228268444e-04,2.306821474e-04,-4.324995235e-04,-1.269495426e-04,-5.594490661e-04,-9.548557151e-04,-7.040127198e-05,-1.025256987e-03,-3.236931210e-04,-1.774197762e-04,-5.011128971e-04,-8.147255484e-04,-8.192262232e-05,-8.966481707e-04,-5.871913474e-04,-3.523454490e-05,-6.224258923e-04,-5.353850527e-04,-6.970359403e-05,-6.050886467e-04,-7.651986237e-04,8.371214845e-05,-6.814864753e-04,-8.468869776e-04,-8.418683600e-05,-9.310738136e-04
-5.7,2.762815155e-04,6.533914070e-05,3.416206562e-04,7.439175736e-05,-6.921574411e-05,5.176013242e-06,2.081996823e-04,2.430984041e-05,2.325095227e-04,-2.367062727e-04,-1.161889460e-04,-3.528952188e-04,-2.605393801e-04,-1.721461400e-04,-4.326855201e-04,-4.423707780e-04,-9.398140672e-05,-5.363521847e-04,-4.422143465e-04,-1.366407773e-04,-5.788551238e-04,-4.253202896e-04,-1.055600244e-04,-5.308803140e-04,-1.030583096e-03,-2.059684351e-04,-1.236551531e-03,-4.182568713e-04,2.910817941e-05,-3.891486919e-04,-5.672231046e-04,-3.016565577e-05,-5.973887604e-04,4.750469360e-04,-1.761121519e-04,2.989347841e-04,7.019518105e-04,-1.362688899e-04,5.656829206e-04,2.091307098e-04,-9.919280359e-05,1.099379062e-04,5.366139274e-04,-1.198387494e-04,4.167751781e-04,-2.420725864e-04,-3.606219306e-05,-2.781347794e-04,-5.134134142e-04,-6.378395030e-05,-5.771973645e-04,-6.316693356e-04,-8.328965991e-05,-7.149589955e-04,-6.996637747e-04,-3.686831528e-05,-7.365320900e-04,-2.999657234e-04,-3.412271376e-05,-3.340884372e-04,-1.166533837e-04,4.169516245e-07,-1.162364321e-04,-1.113375366e-04,-1.060571873e-05,-1.219432553e-04,5.620599066e-05,6.393872812e-05,1.201447188e-04,1.585888721e-04,-3.806523813e-06,1.547823483e-04,4.202977405e-05,-1.381931160e-04,-9.616334200e-05,1.694140646e-05,-1.310039234e-04,-1.140625169e-04,1.376835340e-04,-1.561950613e-04,-1.851152726e-05,4.157905943e-04,-2.145775613e-04,2.012130330e-04,-4.790279277e-04,-1.171887395e-04,-5.962166672e-04,-9.192086789e-04,-6.875364327e-05,-9.879623221e-04,-3.571094247e-04,-1.732731316e-04,-5.303825563e-04,-7.824638622e-04,-7.719319755e-05,-8.596570598e-04,-6.085845073e-04,-3.107351016e-05,-6.396580175e-04,-5.631682789e-04,-6.730016450e-05,-6.304684434e-04,-7.508824454e-04,7.926173831e-05,-6.716207071e-04,-8.415922126e-04,-7.821273266e-05,-9.198049453e-04
-5.6,3.691280928e-04,8.755889513e-05,4.566869879e-04,1.545026297e-04,-6.045327423e-05,9.404935546e-05,3.188752674e-04,3.983680318e-05,3.587120705e-04,-1.527184929e-04,-1.104365873e-04,-2.631550802e-04,-2.220225110e-04,-1.597572744e-04,-3.817797854e-04,-4.135820298e-04,-8.236149729e-05,-4.959435271e-04,-4.351963177e-04,-1.251165168e-04,-5.603128345e-04,-4.460199066e-04,-9.514064430e-05,-5.411605509e-04,-9.844138979e-04,-1.990953478e-04,-1.183509246e-03,-4.092877344e-04,3.952193150e-05,-3.697658029e-04,-4.889348471e-04,-1.697468073e-05,-5.059095279e-04,4.729245058e-04,-1.654804665e-04,3.074440393e-04,6.381860011e-04,-1.128274199e-04,5.253585812e-04,2.227076009e-04,-1.067567035e-04,1.159508973e-04,5.230208172e-04,-1.228707377e-04,4.001500795e-04,-2.647593644e-04,-3.292941033e-05,-2.976887747e-04,-5.444246140e-04,-5.488434904e-05,-5.993089630e-04,-6.043561880e-04,-8.038668808e-05,-6.847428761e-04,-6.713999581e-04,-3.696793412e-05,-7.083678922e-04,-2.821313464e-04,-2.627236885e-05,-3.084037153e-04,-4.307235191e-05,6.552868395e-06,-3.651948352e-05,-7.057268458e-05,-8.015008546e-06,-7.858769312e-05,1.467539547e-04,7.361370107e-05,2.203676558e-04,2.299261156e-04,5.745959598e-06,2.356720752e-04,1.609028376e-05,-1.371579590e-04,-1.210676753e-04,3.685865443e-06,-1.239024845e-04,-1.202166190e-04,8.722981522e-05,-1.523103054e-04,-6.508049018e-05,3.771254734e-04,-2.053662572e-04,1.717592162e-04,-5.225381238e-04,-1.069272835e-04,-6.294654073e-04,-8.804289740e-04,-6.689396335e-05,-9.473229374e-04,-3.881348000e-04,-1.682185702e-04,-5.563533702e-04,-7.478255322e-04,-7.214402812e-05,-8.199695604e-04,-6.270324022e-04,-2.658057696e-05,-6.536129792e-04,-5.878440975e-04,-6.461192328e-05,-6.524560208e-04,-7.340623802e-04,7.524829623e-05,-6.588140840e-04,-8.330809185e-04,-7.194306833e-05,-9.050239868e-04
-5.5,4.569405971e-04,1.084167725e-04,5.653573695e-04,2.317945012e-04,-5.165882749e-05,1.801356737e-04,4.248230653e-04,5.433427091e-05,4.791573362e-04,-6.931969213e-05,-1.042572859e-04,-1.735769781e-04,-1.833785891e-04,-1.469106710e-04,-3.302892601e-04,-3.832725545e-04,-7.048415975e-05,-4.537567142e-04,-4.259955656e-04,-1.132469171e-04,-5.392424827e-04,-4.643124822e-04,-8.456577872e-05,-5.488782609e-04,-9.356214940e-04,-1.915257555e-04,-1.127147250e-03,-3.991673051e-04,4.964302204e-05,-3.495242831e-04,-4.103903522e-04,-3.935743760e-06,-4.143260960e-04,4.687938582e-04,-1.549146497e-04,3.138792086e-04,5.732772994e-04,-8.967829252e-05,4.835990069e-04,2.346175267e-04,-1.138944279e-04,1.207230987e-04,5.076486286e-04,-1.253986157e-04,3.822500129e-04,-2.861290819e-04,-2.959205290e-05,-3.157211348e-04,-5.725132577e-04,-4.567940880e-05,-6.181926665e-04,-5.748208510e-04,-7.739238620e-05,-6.522132372e-04,-6.410803462e-04,-3.695206701e-05,-6.780324133e-04,-2.634310116e-04,-1.835638922e-05,-2.817874008e-04,2.949821924e-05,1.268472882e-05,4.218294806e-05,-3.022680339e-05,-5.334968049e-06,-3.556177144e-05,2.350020435e-04,8.295555508e-05,3.179575986e-04,2.987799724e-04,1.520967361e-05,3.139896460e-04,-9.187099099e-06,-1.358462531e-04,-1.450333522e-04,-9.132487108e-06,-1.165525214e-04,-1.256850085e-04,3.763559347e-05,-1.479140445e-04,-1.102784511e-04,3.374649892e-04,-1.952154426e-04,1.422495466e-04,-5.631386732e-04,-9.619691961e-05,-6.593355929e-04,-8.389259613e-04,-6.479584591e-05,-9.037218072e-04,-4.169775894e-04,-1.622775491e-04,-5.792551385e-04,-7.110451064e-04,-6.685419541e-05,-7.778993018e-04,-6.427236344e-04,-2.178221926e-05,-6.645058537e-04,-6.095576002e-04,-6.165722974e-05,-6.712148300e-04,-7.150865426e-04,7.176804659e-05,-6.433184960e-04,-8.216282546e-04,-6.540511252e-05,-8.870333671e-04
-5.4,5.395395002e-04,1.278873446e-04,6.674268448e-04,3.059327947e-04,-4.285010099e-05,2.630826938e-04,5.257093500e-04,6.780914779e-05,5.935184978e-04,1.305450649e-05,-9.767691190e-05,-8.462240541e-05,-1.448038828e-04,-1.336451891e-04,-2.784490719e-04,-3.517858812e-04,-5.839228105e-05,-4.101781623e-04,-4.148483782e-04,-1.010805371e-04,-5.159289153e-04,-4.803357834e-04,-7.384582578e-05,-5.541816092e-04,-8.844382819e-04,-1.832953831e-04,-1.067733665e-03,-3.879967547e-04,5.945165609e-05,-3.285450986e-04,-3.319123828e-04,8.897560583e-06,-3.230148222e-04,4.626050801e-04,-1.444387552e-04,3.181663249e-04,5.074630934e-04,-6.698260066e-05,4.404804928e-04,2.447035604e-04,-1.205557187e-04,1.241478416e-04,4.904385362e-04,-1.273947737e-04,3.630437625e-04,-3.063550425e-04,-2.602009391e-05,-3.323751364e-04,-5.979303673e-04,-3.616872165e-05,-6.340990889e-04,-5.434298439e-04,-7.429854494e-05,-6.177283888e-04,-6.090143368e-04,-3.681359235e-05,-6.458279291e-04,-2.440824039e-04,-1.038582405e-05,-2.544682280e-04,1.007402647e-04,1.879352585e-05,1.195337905e-04,9.518868925e-06,-2.587651113e-06,6.931217813e-06,3.206457258e-04,9.192230392e-05,4.125680298e-04,3.648532390e-04,2.452351448e-05,3.893767535e-04,-3.390086343e-05,-1.342402172e-04,-1.681410806e-04,-2.160592796e-05,-1.089590618e-04,-1.305649898e-04,-1.117867681e-05,-1.430166751e-04,-1.541953520e-04,2.967717762e-04,-1.841569082e-04,1.126148680e-04,-6.009495949e-04,-8.503637705e-05,-6.859859719e-04,-7.951084978e-04,-6.243738275e-05,-8.575458806e-04,-4.438530352e-04,-1.554822975e-04,-5.993353327e-04,-6.723583309e-04,-6.140330261e-05,-7.337616335e-04,-6.558512827e-04,-1.671443765e-05,-6.725657204e-04,-6.284683602e-04,-5.845743736e-05,-6.869257976e-04,-6.942972098e-04,6.889344364e-05,-6.254037662e-04,-8.075129491e-04,-5.862936310e-05,-8.661423122e-04
-5.3,6.168123170e-04,1.459644558e-04,7.627767728e-04,3.766258055e-04,-3.404215280e-05,3.425836527e-04,6.212707468e-04,8.028384692e-05,7.015545937e-04,9.399053798e-05,-9.072381746e-05,3.266720511e-06,-1.064849936e-04,-1.200006161e-04,-2.264856097e-04,-3.194629219e-04,-4.612955126e-05,-3.655924732e-04,-4.019987507e-04,-8.866581848e-05,-4.906645692e-04,-4.942365321e-04,-6.299144532e-05,-5.572279774e-04,-8.310973247e-04,-1.744421301e-04,-1.005539455e-03,-3.758803438e-04,6.893043685e-05,-3.069499070e-04,-2.538099923e-04,2.147498170e-05,-2.323350106e-04,4.543197153e-04,-1.340620247e-04,3.202576906e-04,4.409895130e-04,-4.489562190e-05,3.960938911e-04,2.528359056e-04,-1.266919707e-04,1.261439349e-04,4.713490132e-04,-1.288366151e-04,3.425123981e-04,-3.256118669e-04,-2.218285718e-05,-3.477947241e-04,-6.209375366e-04,-2.635306277e-05,-6.472905994e-04,-5.105495258e-04,-7.109549395e-05,-5.816450197e-04,-5.755088312e-04,-3.654652581e-05,-6.120553571e-04,-2.242988376e-04,-2.373129776e-06,-2.266719674e-04,1.703527876e-04,2.485885388e-05,1.952116415e-04,4.849352071e-05,2.037868641e-07,4.869730758e-05,4.034064474e-04,1.004739319e-04,5.038803793e-04,4.278743660e-04,3.362768279e-05,4.615020487e-04,-5.815208415e-05,-1.323201858e-04,-1.904722700e-04,-3.382593230e-05,-1.011277062e-04,-1.349536385e-04,-5.929433990e-05,-1.376336002e-04,-1.969279401e-04,2.550228548e-04,-1.722313756e-04,8.279147919e-05,-6.360988804e-04,-7.349144105e-05,-7.095903214e-04,-7.493798477e-04,-5.980173125e-05,-8.091815790e-04,-4.689792332e-04,-1.478747317e-04,-6.168539649e-04,-6.320003407e-04,-5.587040873e-05,-6.878707494e-04,-6.666106409e-04,-1.142164940e-05,-6.780322903e-04,-6.447485167e-04,-5.503588089e-05,-6.997843976e-04,-6.720244773e-04,6.666998547e-05,-6.053544919e-04,-7.910150256e-04,-5.164836261e-05,-8.426633882e-04
-5.2,6.887081531e-04,1.626597684e-04,8.513679215e-04,4.436250183e-04,-2.524767815e-05,4.183773402e-04,7.113111681e-04,9.179434396e-05,8.031055121e-04,1.730996614e-04,-8.342852511e-05,8.967113625e-05,-6.859795071e-05,-1.060175292e-04,-1.746154799e-04,-2.866389009e-04,-3.374006034e-05,-3.203789613e-04,-3.876959353e-04,-7.605070667e-05,-4.637466420e-04,-5.061684714e-04,-5.201360888e-05,-5.581820803e-04,-7.758298840e-04,-1.650055339e-04,-9.408354178e-04,-3.629251587e-04,7.806438054e-05,-2.848607781e-04,-1.763772395e-04,3.375007595e-05,-1.426271635e-04,4.439122492e-04,-1.237811374e-04,3.201311118e-04,3.741056608e-04,-2.356267669e-05,3.505429841e-04,2.589111681e-04,-1.322567821e-04,1.266543860e-04,4.503551055e-04,-1.297068909e-04,3.206482146e-04,-3.440724090e-04,-1.805062112e-05,-3.621230302e-04,-6.418027103e-04,-1.623433141e-05,-6.580370417e-04,-4.765420952e-04,-6.777182760e-05,-5.443139228e-04,-5.408652621e-04,-3.614596258e-05,-5.770112246e-04,-2.042877098e-04,5.667708269e-06,-1.986200016e-04,2.380529157e-04,3.085908242e-05,2.689119982e-04,8.653675765e-05,3.015627062e-06,8.955238471e-05,4.830320834e-04,1.085728024e-04,5.916048858e-04,4.875994315e-04,4.246482327e-05,5.300642548e-04,-8.204169274e-05,-1.300648330e-04,-2.121065257e-04,-4.588179245e-05,-9.306454211e-05,-1.389463346e-04,-1.067923196e-04,-1.317838675e-04,-2.385761871e-04,2.122114206e-04,-1.594879080e-04,5.272351257e-05,-6.687200449e-04,-6.161467982e-05,-7.303347248e-04,-7.021336798e-04,-5.687729867e-05,-7.590109785e-04,-4.925743233e-04,-1.395049856e-04,-6.320793089e-04,-5.902045347e-04,-5.033283977e-05,-6.405373745e-04,-6.751982642e-04,-5.955239599e-06,-6.811535038e-04,-6.585815775e-04,-5.141703029e-05,-7.099986078e-04,-6.485814566e-04,6.511403002e-05,-5.834674266e-04,-7.724142087e-04,-4.449566792e-05,-8.169098766e-04
-5.1,7.552312765e-04,1.780009108e-04,9.332321872e-04,5.067242894e-04,-1.647737996e-05,4.902469095e-04,7.956973474e-04,1.023879965e-04,8.980853439e-04,2.500195173e-04,-7.582345783e-05,1.741960595e-04,-3.130798522e-05,-9.173720973e-05,-1.230451949e-04,-2.536409113e-04,-2.126798594e-05,-2.749088972e-04,-3.721922787e-04,-6.328232403e-05,-4.354746027e-04,-5.162907703e-04,-4.092359780e-05,-5.572143681e-04,-7.188633976e-04,-1.550262160e-04,-8.738896136e-04,-3.492409858e-04,8.684094071e-05,-2.624000451e-04,-9.989237148e-05,4.568063684e-05,-5.421173464e-05,4.313710035e-04,-1.135832641e-04,3.177877394e-04,3.070553773e-04,-3.114229913e-06,3.039411474e-04,2.628505500e-04,-1.372065370e-04,1.256440130e-04,4.274466331e-04,-1.299938454e-04,2.974527877e-04,-3.619053517e-04,-1.359640918e-05,-3.755017609e-04,-6.607969298e-04,-5.815997088e-06,-6.666129269e-04,-4.417625293e-04,-6.431407907e-05,-5.060766083e-04,-5.053772529e-04,-3.560801702e-05,-5.409852700e-04,-1.842493181e-04,1.372111714e-05,-1.705282010e-04,3.035764922e-04,3.677164904e-05,3.403481412e-04,1.234982997e-04,5.824181098e-06,1.293224808e-04,5.592967162e-04,1.161839674e-04,6.754806836e-04,5.438136488e-04,5.098103962e-05,5.947946884e-04,-1.056686512e-04,-1.274514044e-04,-2.331200556e-04,-5.785985345e-05,-8.477609730e-05,-1.426359507e-04,-1.537516233e-04,-1.254887560e-04,-2.792403792e-04,1.683473095e-04,-1.459832014e-04,2.236410803e-05,-6.989500682e-04,-4.946499633e-05,-7.484150645e-04,-6.537507425e-04,-5.365768186e-05,-7.074084244e-04,-5.148541505e-04,-1.304300543e-04,-6.452842047e-04,-5.472021532e-04,-4.486455295e-05,-5.920667061e-04,-6.818120588e-04,-3.717675682e-07,-6.821838264e-04,-6.701617050e-04,-4.762565243e-05,-7.177873574e-04,-6.242613955e-04,6.421249566e-05,-5.600488999e-04,-7.519886226e-04,-3.720503723e-05,-7.891936599e-04
-5,8.164341826e-04,1.920292551e-04,1.008463438e-03,5.657584024e-04,-7.740411047e-06,5.580179914e-04,8.743534546e-04,1.121212503e-04,9.864747048e-04,3.244151380e-04,-6.794267602e-05,2.564724620e-04,5.230531660e-06,-7.720152907e-05,-7.197099741e-05,-2.207854901e-04,-8.757287622e-06,-2.295427777e-04,-3.557410324e-04,-5.040667918e-05,-4.061477115e-04,-5.247664707e-04,-2.973292700e-05,-5.544993977e-04,-6.604196132e-04,-1.445453831e-04,-8.049649963e-04,-3.349398982e-04,9.525000658e-05,-2.396898916e-04,-2.461697972e-05,5.722907592e-05,3.261209620e-05,4.166987758e-04,-1.034489574e-04,3.132498184e-04,2.400690325e-04,1.633851761e-05,2.564075501e-04,2.645983489e-04,-1.415009815e-04,1.230973674e-04,4.026269534e-04,-1.296911966e-04,2.729357568e-04,-3.792727936e-04,-8.797775747e-06,-3.880705693e-04,-6.781908854e-04,4.895935095e-06,-6.732949503e-04,-4.065560957e-04,-6.070644589e-05,-4.672625416e-04,-4.693285654e-04,-3.492977909e-05,-5.042583445e-04,-1.643755120e-04,2.176986966e-05,-1.426056423e-04,3.666788145e-04,4.257335575e-05,4.092521703e-04,1.592378394e-04,8.606344688e-06,1.678441841e-04,6.320002746e-04,1.232753877e-04,7.552756623e-04,5.963328402e-04,5.912671953e-05,6.554595598e-04,-1.291286426e-04,-1.244558662e-04,-2.535845089e-04,-6.984290278e-05,-7.626932045e-05,-1.461122232e-04,-2.002481085e-04,-1.187703012e-04,-3.190184098e-04,1.234569130e-04,-1.317808290e-04,-8.323916016e-06,-7.269269291e-04,-3.710708204e-05,-7.640340112e-04,-6.045956773e-04,-5.014142906e-05,-6.547371064e-04,-5.360293554e-04,-1.207129067e-04,-6.567422620e-04,-5.032220158e-04,-3.953397943e-05,-5.427559952e-04,-6.866514362e-04,5.269272587e-06,-6.813821636e-04,-6.796926994e-04,-4.368578710e-05,-7.233784865e-04,-5.993361271e-04,6.392470427e-05,-5.354114229e-04,-7.300132183e-04,-2.980980507e-05,-7.598230234e-04
-4.9,8.724108162e-04,2.047975450e-04,1.077208361e-03,6.206016948e-04,9.551842438e-07,6.215568791e-04,9.472555120e-04,1.210573798e-04,1.068312892e-03,3.959802298e-04,-5.982155594e-05,3.361586738e-04,4.087458282e-05,-6.245275462e-05,-2.157817179e-05,-1.883756181e-04,3.748621954e-06,-1.846269962e-04,-3.385937956e-04,-3.746842367e-05,-3.760622192e-04,-5.317606349e-04,-1.845325521e-05,-5.502138901e-04,-6.007125949e-04,-1.336044666e-04,-7.343170615e-04,-3.201351536e-04,1.032838214e-04,-2.168513323e-04,4.920529921e-05,6.836269789e-05,1.175679971e-04,3.999139586e-04,-9.335432949e-05,3.065596291e-04,1.733574930e-04,3.470681128e-05,2.080643043e-04,2.641217617e-04,-1.451038063e-04,1.190179555e-04,3.759134002e-04,-1.287980003e-04,2.471153999e-04,-3.963270018e-04,-3.638398687e-06,-3.999654005e-04,-6.942502662e-04,1.589157417e-05,-6.783586920e-04,-3.712557877e-04,-5.693061722e-05,-4.281864049e-04,-4.329908373e-04,-3.410920848e-05,-4.671000458e-04,-1.448478704e-04,2.979505907e-05,-1.150528114e-04,4.271359560e-04,4.824065854e-05,4.753766145e-04,1.936253709e-04,1.134004883e-05,2.049654197e-04,7.009684512e-04,1.298181363e-04,8.307865875e-04,6.450051591e-04,6.685719205e-05,7.118623512e-04,-1.525125740e-04,-1.210530011e-04,-2.735655751e-04,-8.190918887e-05,-6.755155543e-05,-1.494607443e-04,-2.463529434e-04,-1.116498463e-04,-3.580027897e-04,7.758331891e-05,-1.169503814e-04,-3.936706248e-05,-7.527865605e-04,-2.461067514e-05,-7.773972357e-04,-5.550137977e-04,-4.633155411e-05,-6.013453518e-04,-5.563015446e-04,-1.104219990e-04,-6.667235437e-04,-4.584898635e-04,-3.440163098e-05,-4.928914945e-04,-6.899163848e-04,1.090793456e-05,-6.790084502e-04,-6.873858948e-04,-3.961955690e-05,-7.270054518e-04,-5.740547418e-04,6.418588008e-05,-5.098688617e-04,-7.067575329e-04,-2.234243227e-05,-7.290999651e-04
-4.8,9.232904209e-04,2.163675983e-04,1.139658019e-03,6.711670608e-04,9.602079335e-06,6.807691402e-04,1.014426079e-03,1.292643430e-04,1.143690422e-03,4.644389963e-04,-5.149638484e-05,4.129426114e-04,7.549356225e-05,-4.753331018e-05,2.796025207e-05,-1.566971499e-04,1.620717702e-05,-1.404899729e-04,-3.209975597e-04,-2.451067379e-05,-3.455082335e-04,-5.374381318e-04,-7.096365416e-06,-5.445344972e-04,-5.399466288e-04,-1.222449099e-04,-6.621915388e-04,-3.049394097e-04,1.109368198e-04,-1.940025899e-04,1.213504931e-04,7.905384430e-05,2.004043374e-04,3.810523704e-04,-8.327270127e-05,2.977796691e-04,1.071086695e-04,5.192638040e-05,1.590350499e-04,2.614116708e-04,-1.479832561e-04,1.134284147e-04,3.473388529e-04,-1.273183908e-04,2.200204621e-04,-4.132062926e-04,1.890575378e-06,-4.113157172e-04,-7.092298644e-04,2.715550252e-05,-6.820743619e-04,-3.361793148e-04,-5.296571663e-05,-3.891450314e-04,-3.966208505e-04,-3.314495996e-05,-4.297658105e-04,-1.258356291e-04,3.777624620e-05,-8.805938294e-05,4.847465018e-04,5.375005368e-05,5.384965555e-04,2.265418948e-04,1.400463543e-05,2.405465302e-04,7.660528859e-04,1.357866305e-04,9.018395165e-04,6.897128673e-04,7.413323962e-05,7.638461070e-04,-1.759045058e-04,-1.172166257e-04,-2.931211315e-04,-9.413098158e-05,-5.863047623e-05,-1.527614578e-04,-2.921306959e-04,-1.041467476e-04,-3.962774435e-04,3.078666272e-05,-1.015663768e-04,-7.077971405e-05,-7.766599574e-04,-1.204940757e-05,-7.887093650e-04,-5.053281642e-04,-4.223475515e-05,-5.475629194e-04,-5.758591139e-04,-9.963090155e-05,-6.754900155e-04,-4.132271920e-04,-2.951793721e-05,-4.427451292e-04,-6.918051097e-04,1.648603952e-05,-6.753190702e-04,-6.934568675e-04,-3.544607082e-05,-7.289029383e-04,-5.486417648e-04,6.491142260e-05,-4.837303422e-04,-6.824829533e-04,-1.483419314e-05,-6.973171464e-04
-4.7,9.692320371e-04,2.268081600e-04,1.196040197e-03,7.174049950e-04,1.819329953e-05,7.355982946e-04,1.075929150e-03,1.368127632e-04,1.212741913e-03,5.295479501e-04,-4.300391645e-05,4.865440336e-04,1.089704346e-04,-3.248557174e-05,7.648486287e-05,-1.260153963e-04,2.857689270e-05,-9.743850362e-05,-3.031917216e-04,-1.157487992e-05,-3.147666015e-04,-5.419614047e-04,4.325784736e-06,-5.376356200e-04,-4.783143575e-04,-1.105080129e-04,-5.888223704e-04,-2.894627137e-04,1.182054443e-04,-1.712572694e-04,1.916158944e-04,8.927994126e-05,2.808958357e-04,3.601688344e-04,-7.317611124e-05,2.869927232e-04,4.148536503e-05,6.795869379e-05,1.094440588e-04,2.564830166e-04,-1.501127611e-04,1.063702555e-04,3.169526448e-04,-1.252611696e-04,1.916914751e-04,-4.300310808e-04,7.789404686e-06,-4.222416761e-04,-7.233675415e-04,3.866504264e-05,-6.847024989e-04,-3.016258312e-04,-4.878848465e-05,-3.504143158e-04,-3.604576034e-04,-3.203626245e-05,-3.924938659e-04,-1.074939129e-04,4.569181334e-05,-6.180209953e-05,5.393330858e-04,5.907858744e-05,5.984116733e-04,2.578801259e-04,1.658118344e-05,2.744613093e-04,8.271312819e-04,1.411588598e-04,9.682901417e-04,7.303736295e-04,8.092143340e-05,8.112950629e-04,-1.993792862e-04,-1.129201497e-04,-3.122994359e-04,-1.065731366e-04,-4.951399409e-05,-1.560871307e-04,-3.376374731e-04,-9.627742977e-05,-4.339149029e-04,-1.685608861e-05,-8.570693047e-05,-1.025630191e-04,-7.986714210e-04,5.008499104e-07,-7.981705711e-04,-4.558374548e-04,-3.786045306e-05,-4.936979079e-04,-5.948736527e-04,-8.841787993e-05,-6.832915326e-04,-3.676499630e-04,-2.492164362e-05,-3.925716066e-04,-6.925110302e-04,2.194876263e-05,-6.705622675e-04,-6.981217429e-04,-3.118064414e-05,-7.293023871e-04,-5.232949833e-04,6.600112283e-05,-4.572938605e-04,-6.574401571e-04,-7.314912491e-06,-6.647550696e-04
-4.6,1.010419333e-03,2.361928889e-04,1.246612221e-03,7.593020815e-04,2.672182458e-05,7.860239061e-04,1.131864941e-03,1.437740698e-04,1.275639011e-03,5.910968676e-04,-3.438095877e-05,5.567159089e-04,1.412024067e-04,-1.735173018e-05,1.238506765e-04,-9.657267944e-05,4.081757402e-05,-5.575510542e-05,-2.854055374e-04,1.299297050e-06,-2.841062403e-04,-5.454886605e-04,1.580101748e-05,-5.296876430e-04,-4.159954661e-04,-9.843473290e-05,-5.144301990e-04,-2.738107706e-04,1.250879844e-04,-1.487227862e-04,2.598210540e-04,9.902349316e-05,3.588445471e-04,3.373372739e-04,-6.303686813e-05,2.743004058e-04,-2.337695431e-05,8.279145148e-05,5.941449717e-05,2.493736738e-04,-1.514715466e-04,9.790212728e-05,2.848195573e-04,-1.226392596e-04,1.621802977e-04,-4.469014028e-04,1.404892982e-05,-4.328524730e-04,-7.368797222e-04,5.038891283e-05,-6.864908094e-04,-2.678729597e-04,-4.437386806e-05,-3.122468278e-04,-3.247198876e-04,-3.078293461e-05,-3.555028222e-04,-8.996264323e-05,5.351939797e-05,-3.644324525e-05,5.907432390e-04,6.420434673e-05,6.549475857e-04,2.875449157e-04,1.905273256e-05,3.065976483e-04,8.841071809e-04,1.459165565e-04,1.030023737e-03,7.669408972e-04,8.719426114e-05,8.541351583e-04,-2.230005268e-04,-1.081375484e-04,-3.311380751e-04,-1.192922375e-04,-4.021019793e-05,-1.595024355e-04,-3.829194935e-04,-8.805502422e-05,-4.709745177e-04,-6.525266620e-05,-6.945233369e-05,-1.347049999e-04,-8.189382188e-04,1.296389859e-05,-8.059743202e-04,-4.068148312e-04,-3.321984397e-05,-4.400346751e-04,-6.134975192e-04,-7.686539704e-05,-6.903629162e-04,-3.219676961e-04,-2.063880872e-05,-3.426065048e-04,-6.922202523e-04,2.724560477e-05,-6.649746475e-04,-7.015941242e-04,-2.683430489e-05,-7.284284291e-04,-4.981836634e-04,6.734303860e-05,-4.308406248e-04,-6.318672248e-04,1.872580874e-07,-6.316799668e-04
-4.5,1.047055499e-03,2.445985072e-04,1.291654006e-03,7.968786521e-04,3.518016261e-05,8.320588147e-04,1.182364420e-03,1.502188732e-04,1.332583293e-03,6.489085202e-04,-2.566402954e-05,6.232444907e-04,1.721009084e-04,-2.173675165e-06,1.699272332e-04,-6.858707278e-05,5.289054843e-05,-1.569652436e-05,-2.678562292e-04,1.407412034e-05,-2.537821089e-04,-5.481726380e-04,2.731693994e-05,-5.208556980e-04,-3.531559551e-04,-8.606543795e-05,-4.392213931e-04,-2.580836313e-04,1.315844180e-04,-1.264992133e-04,3.258081298e-04,1.082720116e-04,4.340801414e-04,3.126492322e-04,-5.282916162e-05,2.598200706e-04,-8.737267449e-05,9.643817044e-05,9.065495950e-06,2.401420194e-04,-1.520451654e-04,8.809685402e-05,2.510172441e-04,-1.194690671e-04,1.315481770e-04,-4.638963742e-04,2.065021553e-05,-4.432461587e-04,-7.499591956e-04,6.228668270e-05,-6.876725129e-04,-2.351745821e-04,-3.969598910e-05,-2.748705712e-04,-2.896049207e-04,-2.938545538e-05,-3.189903760e-04,-7.336603840e-05,6.123626110e-05,-1.212977730e-05,6.388495455e-04,6.910678838e-05,7.079563339e-04,3.154533863e-04,2.140434994e-05,3.368577362e-04,9.369094448e-04,1.500453149e-04,1.086954760e-03,7.994033624e-04,9.293009771e-05,8.923334602e-04,-2.468194424e-04,-1.028445222e-04,-3.496639646e-04,-1.323365042e-04,-3.072735633e-05,-1.630638605e-04,-4.280121724e-04,-7.948964057e-05,-5.075018130e-04,-1.142983304e-04,-5.288373195e-05,-1.671820624e-04,-8.375711214e-04,2.526503146e-05,-8.123060899e-04,-3.585075138e-04,-2.832507156e-05,-3.868325854e-04,-6.318625140e-04,-6.505946962e-05,-6.969219837e-04,-2.763830134e-04,-1.668236607e-05,-2.930653794e-04,-6.911100263e-04,3.233101358e-05,-6.587790127e-04,-7.040830319e-04,-2.241344807e-05,-7.264964800e-04,-4.734478036e-04,6.881730425e-05,-4.046304993e-04,-6.059882952e-04,7.645914136e-06,-5.983423810e-04
-4.4,1.079358279e-03,2.521031866e-04,1.331461465e-03,8.301858863e-04,4.355997568e-05,8.737458620e-04,1.227583872e-03,1.562156291e-04,1.383799502e-03,7.028375996e-04,-1.688906778e-05,6.859485318e-04,2.015911856e-04,1.300716402e-05,2.145983496e-04,-4.225181276e-05,6.475891072e-05,2.250709796e-05,-2.507475672e-04,2.671390372e-05,-2.240336635e-04,-5.501597111e-04,3.886096302e-05,-5.112987481e-04,-2.899477365e-04,-7.343967976e-05,-3.633874163e-04,-2.423745300e-04,1.376961994e-04,-1.046783305e-04,3.894419934e-04,1.170178415e-04,5.064598349e-04,2.862118094e-04,-4.253054793e-05,2.436812615e-04,-1.504280393e-04,1.089371566e-04,-4.149088267e-05,2.288643816e-04,-1.518259092e-04,7.703847240e-05,2.156335990e-04,-1.157698260e-04,9.986377302e-05,-4.810748257e-04,2.756469375e-05,-4.535101320e-04,-7.627742951e-04,7.430896022e-05,-6.884653348e-04,-2.037593447e-04,-3.472927080e-05,-2.384886155e-04,-2.552879408e-04,-2.784495703e-05,-2.831328978e-04,-5.781232857e-05,6.881958860e-05,1.100726004e-05,6.835494694e-04,7.376694680e-05,7.573164162e-04,3.415349677e-04,2.362310227e-05,3.651580700e-04,9.854917677e-04,1.535347150e-04,1.139026483e-03,8.277838152e-04,9.811312466e-05,9.258969398e-04,-2.708746424e-04,-9.701948315e-05,-3.678941256e-04,-1.457461488e-04,-2.107392777e-05,-1.668200766e-04,-4.729396054e-04,-7.058896745e-05,-5.435285728e-04,-1.638791547e-04,-3.608204234e-05,-1.999611971e-04,-8.546749855e-04,3.733268411e-05,-8.173423014e-04,-3.111364193e-04,-2.318855766e-05,-3.343249770e-04,-6.500790886e-04,-5.308876084e-05,-7.031678494e-04,-2.310910915e-04,-1.305235953e-05,-2.441434510e-04,-6.893478407e-04,3.716487881e-05,-6.521829619e-04,-7.057913296e-04,-1.791963506e-05,-7.237109647e-04,-4.491984820e-04,7.030020251e-05,-3.788982795e-04,-5.800122777e-04,1.503628261e-05,-5.649759951e-04
-4.3,1.107555506e-03,2.587851792e-04,1.366340685e-03,8.593029749e-04,5.185183731e-05,9.111548122e-04,1.267700055e-03,1.618295689e-04,1.429529624e-03,7.527697439e-04,-8.091168384e-06,7.446785755e-04,2.296120622e-04,2.815004434e-05,2.577621065e-04,-1.773456201e-05,7.638774503e-05,5.865318302e-05,-2.342684972e-04,3.918510356e-05,-1.950833937e-04,-5.515888936e-04,5.042026377e-05,-5.011686298e-04,-2.265082291e-04,-6.059603973e-05,-2.871042689e-04,-2.267684656e-04,1.434259880e-04,-8.334247757e-05,4.506105755e-04,1.252578848e-04,5.758684603e-04,2.581461052e-04,-3.212299209e-05,2.260231131e-04,-2.125014950e-04,1.203504777e-04,-9.215101729e-05,2.156335617e-04,-1.508130657e-04,6.482049607e-05,1.787655563e-04,-1.115630420e-04,6.720251430e-05,-4.984757877e-04,3.475470830e-05,-4.637210794e-04,-7.754676848e-04,8.639786611e-05,-6.890698187e-04,-1.738292947e-04,-2.944955065e-05,-2.032788454e-04,-2.219220831e-04,-2.616312611e-05,-2.480852092e-04,-4.339332440e-05,7.624683273e-05,3.285350833e-05,7.247652829e-04,7.816766039e-05,8.029329433e-04,3.657315576e-04,2.569806695e-05,3.914296245e-04,1.029832550e-03,1.563784828e-04,1.186211032e-03,8.521378111e-04,1.027332667e-04,9.548710778e-04,-2.951924065e-04,-9.064421411e-05,-3.858366206e-04,-1.595535771e-04,-1.125852902e-05,-1.708121061e-04,-5.177142127e-04,-6.135872048e-05,-5.790729331e-04,-2.138746131e-04,-1.912715690e-05,-2.330017700e-04,-8.703488060e-04,4.910000335e-05,-8.212488026e-04,-2.648953133e-04,-1.782256730e-05,-2.827178806e-04,-6.682355977e-04,-4.104327570e-05,-7.092788734e-04,-1.862783990e-04,-9.736880222e-06,-1.960152792e-04,-6.870903209e-04,4.171293922e-05,-6.453773816e-04,-7.069136763e-04,-1.334966496e-05,-7.202633413e-04,-4.255189355e-04,7.166860773e-05,-3.538503277e-04,-5.541312562e-04,2.233508513e-05,-5.317961711e-04
-4.2,1.131881584e-03,2.647216042e-04,1.396603188e-03,8.843348309e-04,6.004511767e-05,9.443799485e-04,1.302906331e-03,1.671218413e-04,1.470028172e-03,7.986213082e-04,6.957059015e-07,7.993170141e-04,2.561162007e-04,4.321517605e-05,2.993313767e-04,4.823885701e-06,8.774431402e-05,9.256819972e-05,-2.185915178e-04,5.145638460e-05,-1.671351331e-04,-5.525905082e-04,6.198167444e-05,-4.906088338e-04,-1.629598529e-04,-4.757204563e-05,-2.105318985e-04,-2.113403942e-04,1.487773739e-04,-6.256302028e-05,5.092255697e-04,1.329932678e-04,6.422188376e-04,2.285866291e-04,-2.159338232e-05,2.069932467e-04,-2.735816004e-04,1.307631224e-04,-1.428184780e-04,2.005585567e-04,-1.490130006e-04,5.154555604e-05,1.405195595e-04,-1.068721427e-04,3.364741678e-05,-5.161181250e-04,4.217434771e-05,-4.739437773e-04,-7.881537405e-04,9.848731726e-05,-6.896664233e-04,-1.455580849e-04,-2.383518523e-05,-1.693932702e-04,-1.896379246e-04,-2.434210399e-05,-2.139800286e-04,-3.018378131e-05,8.349612786e-05,5.331234655e-05,7.624442421e-04,8.229384873e-05,8.447380908e-04,3.879978681e-04,2.762041030e-05,4.156182784e-04,1.069935134e-03,1.585746572e-04,1.228509791e-03,8.725522615e-04,1.067861401e-04,9.793384016e-04,-3.197868197e-04,-8.370432905e-05,-4.034911488e-04,-1.737830513e-04,-1.289885896e-06,-1.750729372e-04,-5.623363328e-04,-5.180266146e-05,-6.141389943e-04,-2.641588482e-04,-2.097413385e-06,-2.662562616e-04,-8.846853165e-04,6.050626553e-05,-8.241790510e-04,-2.199495536e-04,-1.223904185e-05,-2.321885955e-04,-6.863977461e-04,-2.901259088e-05,-7.154103370e-04,-1.421207492e-04,-6.713467404e-06,-1.488342166e-04,-6.844814547e-04,4.594707178e-05,-6.385343829e-04,-7.076335399e-04,-8.696003075e-06,-7.163295429e-04,-4.024660661e-04,7.280468731e-05,-3.296613787e-04,-5.285186310e-04,2.952060737e-05,-4.989980237e-04
-4.1,1.152574847e-03,2.699873231e-04,1.422562170e-03,9.054102055e-04,6.812792389e-05,9.735381294e-04,1.333409598e-03,1.721488511e-04,1.505558450e-03,8.403395814e-04,9.439072870e-06,8.497786542e-04,2.810705886e-04,5.816399022e-05,3.392345788e-04,2.531100338e-05,9.879822770e-05,1.241092311e-04,-2.038709825e-04,6.349869830e-05,-1.403722842e-04,-5.532847385e-04,7.353156270e-05,-4.797531758e-04,-9.940966002e-05,-3.440412453e-05,-1.338137845e-04,-1.961533503e-04,1.537546552e-04,-4.239869513e-05,5.652231207e-04,1.402289811e-04,7.054521018e-04,1.976811956e-04,-1.093380806e-05,1.867473875e-04,-3.336829293e-04,1.402817887e-04,-1.934011406e-04,1.837643694e-04,-1.464390833e-04,3.732528609e-05,1.010123790e-04,-1.017223397e-04,-7.099606594e-07,-5.339999269e-04,4.977049256e-05,-4.842294343e-04,-8.009150581e-04,1.105028942e-04,-6.904121639e-04,-1.190889592e-04,-1.786808982e-05,-1.369570490e-04,-1.585427902e-04,-2.238444849e-05,-1.809272387e-04,-1.824087996e-05,9.054668209e-05,7.230580213e-05,7.965586980e-04,8.613272695e-05,8.826914250e-04,4.083017955e-04,2.938341105e-05,4.376852065e-04,1.105828034e-03,1.601257133e-04,1.265953748e-03,8.891436755e-04,1.102729789e-04,9.994166544e-04,-3.446597047e-04,-7.618965402e-05,-4.208493587e-04,-1.884500619e-04,8.823190442e-06,-1.796268715e-04,-6.067938335e-04,-4.192238645e-05,-6.487162200e-04,-3.146010550e-04,1.493072235e-05,-2.996703327e-04,-8.977708326e-04,7.149797470e-05,-8.262728579e-04,-1.764350815e-04,-6.449556368e-06,-1.828846378e-04,-7.046089032e-04,-1.708371709e-05,-7.216926203e-04,-9.878138076e-05,-3.950679159e-06,-1.027320599e-04,-6.816506070e-04,4.984549988e-05,-6.318051071e-04,-7.081197829e-04,-3.947575648e-06,-7.120673586e-04,-3.800722489e-04,7.360040575e-05,-3.064718432e-04,-5.033274590e-04,3.657299521e-05,-4.667544638e-04
-4,1.169875287e-03,2.746539513e-04,1.444529238e-03,9.226795562e-04,7.608704776e-05,9.987666040e-04,1.359427378e-03,1.769618113e-04,1.536389189e-03,8.779024665e-04,1.810832206e-05,8.960107886e-04,3.044565872e-04,7.295938468e-05,3.774159719e-04,4.364311145e-05,1.095215874e-04,1.531646989e-04,-1.902418515e-04,7.528538727e-05,-1.149564642e-04,-5.537805331e-04,8.505577516e-05,-4.687247580e-04,-3.594945980e-05,-2.112757476e-05,-5.707703456e-05,-1.812570117e-04,1.583626564e-04,-2.289435523e-05,6.185639770e-04,1.469734719e-04,7.655374490e-04,1.655901714e-04,-1.419037733e-07,1.654482676e-04,-3.928413399e-04,1.490324377e-04,-2.438089022e-04,1.653906171e-04,-1.431115230e-04,2.227909405e-05,6.037061481e-05,-9.614062476e-05,-3.577000996e-05,-5.520988832e-04,5.748403771e-05,-4.946148455e-04,-8.137995716e-04,1.223614581e-04,-6.914381135e-04,-9.453351711e-05,-1.153441261e-05,-1.060679297e-04,-1.287205377e-04,-2.029310499e-05,-1.490136427e-04,-7.604245800e-06,9.737905251e-05,8.977480671e-05,8.271056539e-04,8.967386527e-05,9.167795192e-04,4.266245147e-04,3.098232616e-05,4.576068409e-04,1.137564660e-03,1.610386200e-04,1.298603280e-03,9.020557307e-04,1.132005250e-04,1.015256256e-03,-3.698009358e-04,-6.809443931e-05,-4.378953751e-04,-2.035610767e-04,1.907181801e-05,-1.844892587e-04,-6.510620965e-04,-3.171738681e-05,-6.827794833e-04,-3.650660638e-04,3.188286464e-05,-3.331831991e-04,-9.096860554e-04,8.202965294e-05,-8.276564025e-04,-1.344582941e-04,-4.651935277e-07,-1.349234876e-04,-7.228917390e-04,-5.338903869e-06,-7.282306428e-04,-5.640980909e-05,-1.409624273e-06,-5.781943336e-05,-6.787112551e-04,5.339294196e-05,-6.253183132e-04,-7.085237876e-04,9.090397899e-07,-7.076147478e-04,-3.583473853e-04,7.396114231e-05,-2.843862430e-04,-4.786895167e-04,4.347457424e-05,-4.352149425e-04
-3.9,1.184022097e-03,2.787891005e-04,1.462811197e-03,9.363121458e-04,8.390793524e-05,1.020220081e-03,1.381184620e-03,1.816064972e-04,1.562791118e-03,9.113169463e-04,2.667506244e-05,9.379920087e-04,3.262691177e-04,8.756594208e-05,4.138350597e-04,5.976465560e-05,1.198890660e-04,1.796537216e-04,-1.778192517e-04,8.679227152e-05,-9.102698013e-05,-5.541751453e-04,9.653965043e-05,-4.576354949e-04,2.734340104e-05,-7.776565759e-06,1.956683528e-05,-1.666869661e-04,1.626065509e-04,-4.080415153e-06,6.692328874e-04,1.532381733e-04,8.224710607e-04,1.324840814e-04,1.077888561e-05,1.432629670e-04,-4.511095809e-04,1.571560891e-04,-2.939534917e-04,1.455886423e-04,-1.390571627e-04,6.531479611e-06,1.872841261e-05,-9.015580296e-05,-7.142739035e-05,-5.703742363e-04,6.525125400e-05,-5.051229823e-04,-8.268195203e-04,1.339709348e-04,-6.928485854e-04,-7.197206679e-05,-4.824611091e-06,-7.679667788e-05,-1.002324172e-04,-1.807129836e-05,-1.183037155e-04,1.703327795e-06,1.039753394e-04,1.056786672e-04,8.541055543e-04,9.290915557e-05,9.470147099e-04,4.429600947e-04,3.241416332e-05,4.753742580e-04,1.165222263e-03,1.613248250e-04,1.326547088e-03,9.114561497e-04,1.155808764e-04,1.027037026e-03,-3.951896608e-04,-5.941728884e-05,-4.546069497e-04,-2.191141154e-04,2.944711406e-05,-1.896670013e-04,-6.951048053e-04,-2.118563549e-05,-7.162904407e-04,-4.154158032e-04,4.868690125e-05,-3.667289020e-04,-9.205079020e-04,9.206449981e-05,-8.284434022e-04,-9.409688073e-05,5.703685190e-06,-8.839319554e-05,-7.412509532e-04,6.146286203e-06,-7.351046670e-04,-1.514162316e-05,9.547042095e-07,-1.418691895e-05,-6.757609034e-04,5.658062000e-05,-6.191802834e-04,-7.089776559e-04,5.888019945e-06,-7.030896359e-04,-3.372811300e-04,7.380797284e-05,-2.634731572e-04,-4.547152986e-04,5.021003279e-05,-4.045052658e-04
-3.8,1.195250905e-03,2.824558738e-04,1.477706779e-03,9.464924575e-04,9.157470547e-05,1.038067163e-03,1.398910321e-03,1.861231433e-04,1.585033465e-03,9.406165345e-04,3.511332943e-05,9.757298639e-04,3.465151541e-04,1.019501168e-04,4.484652710e-04,7.364655233e-05,1.298779010e-04,2.035244533e-04,-1.666987287e-04,9.799765838e-05,-6.870107034e-05,-5.545541753e-04,1.079680685e-04,-4.465861068e-04,9.040475755e-05,5.615832797e-06,9.602059035e-05,-1.524644972e-04,1.664916823e-04,1.402718507e-05,7.172374648e-04,1.590370069e-04,8.762744717e-04,9.853939288e-05,2.181971325e-05,1.203591061e-04,-5.085529687e-04,1.648029602e-04,-3.437500085e-04,1.245180228e-04,-1.343091998e-04,-9.791176971e-06,-2.377556376e-05,-8.379846867e-05,-1.075740324e-04,-5.887697922e-04,7.300524310e-05,-5.157645491e-04,-8.399528099e-04,1.452307902e-04,-6.947220197e-04,-5.145539305e-05,2.266877509e-06,-4.918851554e-05,-7.311892302e-05,-1.572236436e-05,-8.884128738e-05,9.674693731e-06,1.103193926e-04,1.199940863e-04,8.776005749e-04,9.583282162e-05,9.734333965e-04,4.573147135e-04,3.367751408e-05,4.909922276e-04,1.188900201e-03,1.610001338e-04,1.349900334e-03,9.175332178e-04,1.174312813e-04,1.034964499e-03,-4.207962498e-04,-5.016097682e-05,-4.709572266e-04,-2.350999949e-04,3.994033499e-05,-1.951596599e-04,-7.388757396e-04,-1.032444853e-05,-7.492001881e-04,-4.655114618e-04,6.527324556e-05,-4.002382162e-04,-9.303115298e-04,1.015749766e-04,-8.287365533e-04,-5.540110818e-05,1.204756962e-05,-4.335353856e-05,-7.596764426e-04,1.730461876e-05,-7.423718238e-04,2.490125261e-05,3.192338341e-06,2.809359095e-05,-6.728817432e-04,5.940601962e-05,-6.134757236e-04,-7.095933210e-04,1.100248415e-05,-6.985908369e-04,-3.168450164e-04,7.307854735e-05,-2.437664690e-04,-4.314947148e-04,5.676650766e-05,-3.747282072e-04
-3.7,1.203791125e-03,2.857125440e-04,1.489503668e-03,9.534165566e-04,9.907022539e-05,1.052486782e-03,1.412834431e-03,1.905464310e-04,1.603380862e-03,9.658585875e-04,4.339963088e-05,1.009258218e-03,3.652121236e-04,1.160804017e-04,4.812925253e-04,8.528447585e-05,1.394678512e-04,2.247523271e-04,-1.569567177e-04,1.088822671e-04,-4.807445056e-05,-5.549917220e-04,1.193255311e-04,-4.356661908e-04,1.531821840e-04,1.901760134e-05,1.721997854e-04,-1.385964327e-04,1.700234062e-04,3.142697349e-05,7.626069930e-04,1.643859239e-04,9.269929169e-04,6.393350316e-05,3.296779728e-05,9.690130045e-05,-5.652440036e-04,1.721255387e-04,-3.931184649e-04,1.023438094e-04,-1.289067600e-04,-2.656295061e-05,-6.700030879e-05,-7.710083502e-05,-1.441011438e-04,-6.072168682e-04,8.067745437e-05,-5.265394138e-04,-8.531468091e-04,1.560338104e-04,-6.971129987e-04,-3.300708931e-05,9.741998376e-06,-2.326509094e-05,-4.740197275e-05,-1.324962075e-05,-6.065159350e-05,1.631721599e-05,1.163970316e-04,1.327142475e-04,8.976529968e-04,9.844150350e-05,9.960945003e-04,4.697058441e-04,3.477249475e-05,5.044783389e-04,1.208717954e-03,1.600844389e-04,1.368802393e-03,9.204924392e-04,1.187738785e-04,1.039266318e-03,-4.465841206e-04,-4.033254601e-05,-4.869166666e-04,-2.515035900e-04,5.054298836e-05,-2.009606016e-04,-7.823212203e-04,8.687610814e-07,-7.814524593e-04,-5.152156938e-04,8.157530136e-05,-4.336403924e-04,-9.391713578e-04,1.105431759e-04,-8.286281819e-04,-1.839488414e-05,1.855766490e-05,1.627807641e-07,-7.781462249e-04,2.807878664e-05,-7.500674383e-04,6.361058086e-05,5.357311967e-06,6.896789282e-05,-6.701411287e-04,6.187241946e-05,-6.082687093e-04,-7.104619755e-04,1.626281938e-05,-6.941991561e-04,-2.969939811e-04,7.172655744e-05,-2.252674237e-04,-4.090979389e-04,6.313368646e-05,-3.459642525e-04
-3.6,1.209863932e-03,2.886123542e-04,1.498476286e-03,9.572891059e-04,1.063762417e-04,1.063665348e-03,1.423185544e-03,1.949055732e-04,1.618091117e-03,9.871223789e-04,5.151292052e-05,1.038635299e-03,3.823867704e-04,1.299274958e-04,5.123142662e-04,9.469770249e-05,1.486411950e-04,2.433388975e-04,-1.486508204e-04,1.194291100e-04,-2.922171041e-05,-5.555503416e-04,1.305963015e-04,-4.249540402e-04,2.156336098e-04,3.239767908e-05,2.480312889e-04,-1.250747269e-04,1.732069546e-04,4.813222774e-05,8.053914957e-04,1.693024894e-04,9.746939851e-04,2.884065639e-05,4.420851575e-05,7.304917215e-05,-6.212550726e-04,1.792713161e-04,-4.419837564e-04,7.923511479e-05,-1.228942970e-04,-4.365918222e-05,-1.108030456e-04,-7.009640870e-05,-1.808994543e-04,-6.256362811e-04,8.819923019e-05,-5.374370509e-04,-8.663239615e-04,1.662694765e-04,-7.000544850e-04,-1.662568122e-05,1.759933575e-05,9.736545274e-07,-2.308671163e-05,-1.065630021e-05,-3.374301184e-05,2.165205233e-05,1.221961738e-04,1.438482261e-04,9.143440885e-04,1.007343143e-04,1.015078403e-03,4.801617378e-04,3.570068713e-05,5.158624249e-04,1.224813221e-03,1.586013109e-04,1.383414532e-03,9.205535780e-04,1.196354139e-04,1.040188992e-03,-4.725105909e-04,-2.994390395e-05,-5.024544949e-04,-2.683044434e-04,6.124680028e-05,-2.070576431e-04,-8.253823583e-04,1.239591437e-05,-8.129864439e-04,-5.643943118e-04,9.753029743e-05,-4.668640143e-04,-9.471605739e-04,1.189608148e-04,-8.281997592e-04,1.692360462e-05,2.522555046e-05,4.214915508e-05,-7.966287267e-04,3.842300805e-05,-7.582057186e-04,1.008924987e-04,7.506459911e-06,1.083989586e-04,-6.675913262e-04,6.398834973e-05,-6.036029765e-04,-7.116532693e-04,2.167538292e-05,-6.899778864e-04,-2.776671068e-04,6.971983356e-05,-2.079472732e-04,-3.875759947e-04,6.930397441e-05,-3.182720202e-04
-3.5,1.213681081e-03,2.912034653e-04,1.504884546e-03,9.583212194e-04,1.134735796e-04,1.071794799e-03,1.430189401e-03,1.992245115e-04,1.629413912e-03,1.004508116e-03,5.943461343e-05,1.063942730e-03,3.980745305e-04,1.434644725e-04,5.415390030e-04,1.019283170e-04,1.573827768e-04,2.593110938e-04,-1.418199017e-04,1.296233648e-04,-1.219653689e-05,-5.562808716e-04,1.417646060e-04,-4.145162656e-04,2.777258998e-04,4.572578751e-05,3.234516873e-04,-1.118759056e-04,1.760473103e-04,6.417140469e-05,8.456609075e-04,1.738054563e-04,1.019466364e-03,-6.570413084e-06,5.552720523e-05,4.895679215e-05,-6.766498443e-04,1.863756579e-04,-4.902741864e-04,5.536432484e-05,-1.163208731e-04,-6.095654830e-05,-1.550390080e-04,-6.281961811e-05,-2.178586261e-04,-6.439394218e-04,9.550326084e-05,-5.484361609e-04,-8.793880554e-04,1.758283502e-04,-7.035597051e-04,-2.286311729e-06,2.583433993e-05,2.354802820e-05,-1.627265039e-07,-7.945492921e-06,-8.108219425e-06,2.571367136e-05,1.277068211e-04,1.534204925e-04,9.277733099e-04,1.027127946e-04,1.030486104e-03,4.887211206e-04,3.646497359e-05,5.251860941e-04,1.237339981e-03,1.565775374e-04,1.393917518e-03,9.179478440e-04,1.200469541e-04,1.037994798e-03,-4.985267253e-04,-1.901268437e-05,-5.175394096e-04,-2.854766930e-04,7.204355681e-05,-2.134331362e-04,-8.679964490e-04,2.425760364e-05,-8.437388453e-04,-6.129174140e-04,1.130804032e-04,-4.998370108e-04,-9.543497709e-04,1.268287772e-04,-8.275209937e-04,5.058118822e-05,3.204283068e-05,8.262401890e-05,-8.150845514e-04,4.830429465e-05,-7.667802567e-04,1.366684215e-04,9.698015261e-06,1.463664368e-04,-6.652689615e-04,6.576706447e-05,-5.995018970e-04,-7.132143431e-04,2.724157701e-05,-6.859727661e-04,-2.587882520e-04,6.703759827e-05,-1.917506538e-04,-3.669612243e-04,7.527268984e-05,-2.916885345e-04
