Time,S1D1HbO,S1D1HbR,S1D1HbT,S2D2HbO,S2D2HbR,S2D2HbT,S3D3HbO,S3D3HbR,S3D3HbT,S4D4HbO,S4D4HbR,S4D4HbT,S5D5HbO,S5D5HbR,S5D5HbT,S6D6HbO,S6D6HbR,S6D6HbT,S7D7HbO,S7D7HbR,S7D7HbT,S8D8HbO,S8D8HbR,S8D8HbT,S9D9HbO,S9D9HbR,S9D9HbT,S10D10HbO,S10D10HbR,S10D10HbT,S11D11HbO,S11D11HbR,S11D11HbT,S12D12HbO,S12D12HbR,S12D12HbT,S13D13HbO,S13D13HbR,S13D13HbT,S14D14HbO,S14D14HbR,S14D14HbT,S15D15HbO,S15D15HbR,S15D15HbT,S16D16HbO,S16D16HbR,S16D16HbT,S17D17HbO,S17D17HbR,S17D17HbT,S18D18HbO,S18D18HbR,S18D18HbT,S19D19HbO,S19D19HbR,S19D19HbT,S20D20HbO,S20D20HbR,S20D20HbT,S21D21HbO,S21D21HbR,S21D21HbT,S22D22HbO,S22D22HbR,S22D22HbT,S23D23HbO,S23D23HbR,S23D23HbT,S24D24HbO,S24D24HbR,S24D24HbT,S25D25HbO,S25D25HbR,S25D25HbT,S26D26HbO,S26D26HbR,S26D26HbT,S27D27HbO,S27D27HbR,S27D27HbT,S28D28HbO,S28D28HbR,S28D28HbT,S29D29HbO,S29D29HbR,S29D29HbT,S30D30HbO,S30D30HbR,S30D30HbT,S31D31HbO,S31D31HbR,S31D31HbT,S32D32HbO,S32D32HbR,S32D32HbT,S33D33HbO,S33D33HbR,S33D33HbT,S34D34HbO,S34D34HbR,S34D34HbT,S35D35HbO,S35D35HbR,S35D35HbT,S36D36HbO,S36D36HbR,S36D36HbT,
-10,-5.060072776e-04,-1.768269928e-05,-5.236899769e-04,-9.735363116e-04,-1.021290719e-04,-1.075665384e-03,-3.872699536e-04,-1.938604527e-04,-5.811304063e-04,-7.862280614e-04,-1.971329815e-04,-9.833610429e-04,-5.551535861e-04,-2.075745252e-04,-7.627281113e-04,-7.691468997e-04,-3.744029411e-05,-8.065871938e-04,-6.646734921e-04,-2.805232004e-05,-6.927258121e-04,-6.938811968e-04,-8.737132638e-05,-7.812525232e-04,-5.694973658e-04,-1.107831465e-04,-6.802805122e-04,-6.684061544e-04,-1.233403157e-04,-7.917464701e-04,-4.087208419e-04,-2.812453341e-04,-6.899661761e-04,-8.119571285e-04,-7.484790202e-05,-8.868050305e-04,-8.615138903e-04,1.431521161e-05,-8.471986787e-04,-6.503013360e-04,2.701522606e-05,-6.232861099e-04,-8.198707591e-04,-9.008243455e-05,-9.099531936e-04,-1.150835890e-03,-7.415341168e-05,-1.224989301e-03,-1.118583427e-03,-9.522549760e-05,-1.213808924e-03,-6.995255855e-04,-6.840279118e-05,-7.679283767e-04,-6.653425105e-04,-5.893464166e-05,-7.242771522e-04,-6.791494569e-04,-4.892769210e-05,-7.280771490e-04,-7.047060060e-04,-2.329203494e-04,-9.376263554e-04,-6.772688074e-04,-8.741170487e-05,-7.646805123e-04,-4.443074778e-04,-1.646573060e-04,-6.089647838e-04,-1.184189658e-04,-8.089925329e-05,-1.993182191e-04,-1.649191761e-04,-2.007648792e-04,-3.656840553e-04,-4.590645492e-04,-5.673102108e-05,-5.157955703e-04,-1.238343078e-03,-1.778955353e-04,-1.416238613e-03,-1.441701766e-03,7.574900423e-05,-1.365952761e-03,-6.593977297e-04,-1.010483985e-04,-7.604461282e-04,-6.662347941e-04,-8.149804575e-05,-7.477328398e-04,-8.568967502e-04,-1.424027657e-04,-9.992995158e-04,-7.551259225e-04,-1.578831595e-04,-9.130090821e-04,-2.037082831e-04,-3.572431068e-04,-5.609513898e-04,-1.878656987e-04,-2.356870474e-04,-4.235527461e-04,-9.177312633e-04,-2.781770999e-05,-9.455489733e-04,-7.752641054e-04,2.195903984e-05,-7.533050656e-04
-9.9,-5.020877444e-04,-1.391377636e-05,-5.160015208e-04,-9.620253937e-04,-9.927346250e-05,-1.061298856e-03,-3.889552043e-04,-1.825051272e-04,-5.714603315e-04,-7.776561618e-04,-1.905156109e-04,-9.681717727e-04,-5.577234672e-04,-1.972720421e-04,-7.549955093e-04,-7.717225072e-04,-3.008822152e-05,-8.018107287e-04,-6.714151917e-04,-2.136053565e-05,-6.927757273e-04,-7.059010624e-04,-8.063199128e-05,-7.865330536e-04,-5.767479224e-04,-1.029716261e-04,-6.797195486e-04,-6.773096347e-04,-1.140812809e-04,-7.913909156e-04,-4.141519413e-04,-2.689168490e-04,-6.830687902e-04,-8.141043929e-04,-6.686500283e-05,-8.809693958e-04,-8.542684199e-04,7.383275525e-06,-8.468851444e-04,-6.585464316e-04,3.275169158e-05,-6.257947400e-04,-8.351910042e-04,-7.574293413e-05,-9.109339383e-04,-1.134664351e-03,-7.122691687e-05,-1.205891268e-03,-1.119804305e-03,-9.677816315e-05,-1.216582469e-03,-6.988119842e-04,-6.648845203e-05,-7.653004362e-04,-6.923148986e-04,-5.201857348e-05,-7.443334721e-04,-6.777503507e-04,-4.354905520e-05,-7.212994059e-04,-6.953595762e-04,-2.240670672e-04,-9.194266434e-04,-6.726993667e-04,-8.410152578e-05,-7.568008925e-04,-4.372209343e-04,-1.587807766e-04,-5.960017108e-04,-1.256266280e-04,-7.527498594e-05,-2.009016140e-04,-1.969008449e-04,-1.826561609e-04,-3.795570059e-04,-4.725098101e-04,-4.964910400e-05,-5.221589141e-04,-1.239370744e-03,-1.731636595e-04,-1.412534404e-03,-1.435341185e-03,9.223650046e-05,-1.343104684e-03,-6.515521143e-04,-1.021161548e-04,-7.536682691e-04,-6.767880632e-04,-7.841449886e-05,-7.552025620e-04,-8.599449916e-04,-1.334385046e-04,-9.933834961e-04,-7.839693676e-04,-1.475082827e-04,-9.314776503e-04,-2.140046425e-04,-3.523302802e-04,-5.663349227e-04,-1.973574094e-04,-2.296620511e-04,-4.270194605e-04,-9.572108752e-04,-5.684574812e-06,-9.628954500e-04,-7.722318819e-04,1.637949595e-05,-7.558523859e-04
-9.8,-4.980982461e-04,-1.037532602e-05,-5.084735722e-04,-9.501415278e-04,-9.638023811e-05,-1.046521766e-03,-3.904473882e-04,-1.713503163e-04,-5.617977045e-04,-7.691752506e-04,-1.838300209e-04,-9.530052715e-04,-5.607198664e-04,-1.868255759e-04,-7.475454423e-04,-7.742040028e-04,-2.279896297e-05,-7.970029658e-04,-6.782593844e-04,-1.460744905e-05,-6.928668334e-04,-7.178540877e-04,-7.377658193e-05,-7.916306696e-04,-5.842550636e-04,-9.515572483e-05,-6.794107885e-04,-6.857943809e-04,-1.049664781e-04,-7.907608589e-04,-4.189775403e-04,-2.568030865e-04,-6.757806268e-04,-8.156399560e-04,-5.903491464e-05,-8.746748706e-04,-8.458871405e-04,-4.652175934e-07,-8.463523581e-04,-6.661931247e-04,3.837437451e-05,-6.278187502e-04,-8.503700291e-04,-6.159831720e-05,-9.119683463e-04,-1.117386390e-03,-6.827698190e-05,-1.185663372e-03,-1.118935854e-03,-9.871349470e-05,-1.217649349e-03,-6.979727918e-04,-6.441968061e-05,-7.623924724e-04,-7.186758793e-04,-4.556768981e-05,-7.642435691e-04,-6.757230617e-04,-3.830205176e-05,-7.140251135e-04,-6.855927763e-04,-2.152975704e-04,-9.008903466e-04,-6.680307350e-04,-8.083876386e-05,-7.488694988e-04,-4.297069383e-04,-1.531165326e-04,-5.828234709e-04,-1.330879318e-04,-6.982971992e-05,-2.029176517e-04,-2.288310007e-04,-1.645370946e-04,-3.933680954e-04,-4.860029939e-04,-4.263149354e-05,-5.286344875e-04,-1.239922864e-03,-1.682770714e-04,-1.408199935e-03,-1.424874872e-03,1.057670672e-04,-1.319107805e-03,-6.434814144e-04,-1.036870197e-04,-7.471684341e-04,-6.871810014e-04,-7.548754275e-05,-7.626685442e-04,-8.627008010e-04,-1.246494007e-04,-9.873502017e-04,-8.123559927e-04,-1.367141248e-04,-9.490701176e-04,-2.261592212e-04,-3.462160802e-04,-5.723753014e-04,-2.093937494e-04,-2.224580964e-04,-4.318518458e-04,-9.953866992e-04,1.595095188e-05,-9.794357473e-04,-7.698905274e-04,1.154352972e-05,-7.583469977e-04
-9.7,-4.940539085e-04,-7.069972401e-06,-5.011238809e-04,-9.379004677e-04,-9.344617582e-05,-1.031346643e-03,-3.917321079e-04,-1.604259949e-04,-5.521581027e-04,-7.607717073e-04,-1.770912680e-04,-9.378629754e-04,-5.641039442e-04,-1.762601185e-04,-7.403640627e-04,-7.765781538e-04,-1.559239569e-05,-7.921705495e-04,-6.851628107e-04,-7.811314088e-06,-6.929741247e-04,-7.297112294e-04,-6.680374723e-05,-7.965149766e-04,-5.919707724e-04,-8.735390463e-05,-6.793246770e-04,-6.938324730e-04,-9.601388369e-05,-7.898463567e-04,-4.231880338e-04,-2.449183904e-04,-6.681064242e-04,-8.165810623e-04,-5.137314199e-05,-8.679542043e-04,-8.364376120e-04,-9.155766767e-06,-8.455933788e-04,-6.732459154e-04,4.387426536e-05,-6.293716500e-04,-8.653419051e-04,-4.774209663e-05,-9.130840018e-04,-1.099129219e-03,-6.527894253e-05,-1.164408162e-03,-1.116072831e-03,-1.009405188e-04,-1.217013350e-03,-6.971042618e-04,-6.216071285e-05,-7.592649746e-04,-7.443798103e-04,-3.961696353e-05,-7.839967739e-04,-6.730972109e-04,-3.319861192e-05,-7.062958228e-04,-6.754526450e-04,-2.066318283e-04,-8.820844733e-04,-6.632724693e-04,-7.762716310e-05,-7.408996324e-04,-4.218410148e-04,-1.476757534e-04,-5.695167682e-04,-1.407988218e-04,-6.457002032e-05,-2.053688421e-04,-2.606451132e-04,-1.464584413e-04,-4.071035544e-04,-4.995701554e-04,-3.570722168e-05,-5.352773771e-04,-1.240039217e-03,-1.632381525e-04,-1.403277370e-03,-1.410486986e-03,1.163426640e-04,-1.294144322e-03,-6.352821746e-04,-1.056791972e-04,-7.409613718e-04,-6.974935055e-04,-7.265645750e-05,-7.701499630e-04,-8.651738905e-04,-1.160592130e-04,-9.812331035e-04,-8.402335089e-04,-1.255406600e-04,-9.657741689e-04,-2.403370710e-04,-3.388945531e-04,-5.792316241e-04,-2.240176100e-04,-2.140988728e-04,-4.381164828e-04,-1.032154256e-03,3.697083947e-05,-9.951834164e-04,-7.682847545e-04,7.456302803e-06,-7.608284516e-04
-9.6,-4.899683941e-04,-3.999058515e-06,-4.939674526e-04,-9.253170831e-04,-9.046817836e-05,-1.015785261e-03,-3.927960261e-04,-1.497591704e-04,-5.425551965e-04,-7.524308150e-04,-1.703136136e-04,-9.227444286e-04,-5.678352846e-04,-1.656003979e-04,-7.334356826e-04,-7.788312198e-04,-8.488138661e-06,-7.873193584e-04,-6.920796791e-04,-9.912913931e-07,-6.930709705e-04,-7.414399109e-04,-5.971263942e-05,-8.011525503e-04,-5.998442547e-04,-7.958459550e-05,-6.794288502e-04,-7.013929656e-04,-8.723839194e-05,-7.886313575e-04,-4.267742548e-04,-2.332731701e-04,-6.600474249e-04,-8.169461275e-04,-4.389372460e-05,-8.608398521e-04,-8.260048862e-04,-1.859980973e-05,-8.446046959e-04,-6.797089176e-04,4.924284551e-05,-6.304660721e-04,-8.800229811e-04,-3.426997467e-05,-9.142929557e-04,-1.080025298e-03,-6.221293448e-05,-1.142238232e-03,-1.111339923e-03,-1.033442726e-04,-1.214684196e-03,-6.962948507e-04,-5.968294741e-05,-7.559777981e-04,-7.693910211e-04,-3.418935518e-05,-8.035803763e-04,-6.699010209e-04,-2.824836471e-05,-6.981493856e-04,-6.649813636e-04,-1.980879216e-04,-8.630692852e-04,-6.584311101e-04,-7.446957187e-05,-7.329006820e-04,-4.136903450e-04,-1.424661241e-04,-5.561564691e-04,-1.487479985e-04,-5.950044486e-05,-2.082484434e-04,-2.922759488e-04,-1.284706537e-04,-4.207466025e-04,-5.132319521e-04,-2.890665545e-05,-5.421386075e-04,-1.239759881e-03,-1.580521750e-04,-1.397812056e-03,-1.392420827e-03,1.240015083e-04,-1.268419318e-03,-6.270536288e-04,-1.080099337e-04,-7.350635625e-04,-7.077980607e-04,-6.986451444e-05,-7.776625751e-04,-8.673698026e-04,-1.076942856e-04,-9.750640882e-04,-8.675340603e-04,-1.140464295e-04,-9.815804898e-04,-2.566661759e-04,-3.303882908e-04,-5.870544667e-04,-2.412411382e-04,-2.046336749e-04,-4.458748131e-04,-1.067392428e-03,5.723396138e-05,-1.010158467e-03,-7.674393391e-04,4.106210341e-06,-7.633331287e-04
-9.5,-4.858535522e-04,-1.162784799e-06,-4.870163370e-04,-9.124045948e-04,-8.744327645e-05,-9.998478713e-04,-3.936269774e-04,-1.393738376e-04,-5.330008151e-04,-7.441365288e-04,-1.635104262e-04,-9.076469550e-04,-5.718725947e-04,-1.548708439e-04,-7.267434386e-04,-7.809482502e-04,-1.505611665e-06,-7.824538618e-04,-6.989616443e-04,5.832448869e-06,-6.931291954e-04,-7.530037936e-04,-5.250331417e-05,-8.055071077e-04,-6.078225220e-04,-7.186601431e-05,-6.796885363e-04,-7.084421129e-04,-7.865192874e-05,-7.870940417e-04,-4.297274899e-04,-2.218739756e-04,-6.516014656e-04,-8.167545701e-04,-3.660933995e-05,-8.533639100e-04,-8.146901522e-04,-2.869699014e-05,-8.433871423e-04,-6.855861513e-04,5.447193382e-05,-6.311142175e-04,-8.943148843e-04,-2.127705600e-05,-9.155919403e-04,-1.060210994e-03,-5.906366978e-05,-1.119274663e-03,-1.104887431e-03,-1.057892525e-04,-1.210676683e-03,-6.956230449e-04,-5.696677038e-05,-7.525898153e-04,-7.936824723e-04,-2.929672817e-05,-8.229792004e-04,-6.661610735e-04,-2.345865507e-05,-6.896197286e-04,-6.542159634e-04,-1.896818891e-04,-8.438978525e-04,-6.535100535e-04,-7.136799913e-05,-7.248780527e-04,-4.053134540e-04,-1.374919251e-04,-5.428053791e-04,-1.569168278e-04,-5.462366726e-05,-2.115404951e-04,-3.236531188e-04,-1.106235367e-04,-4.342766555e-04,-5.270022755e-04,-2.226079563e-05,-5.492630711e-04,-1.239123882e-03,-1.527265404e-04,-1.391850422e-03,-1.370969910e-03,1.288144460e-04,-1.242155463e-03,-6.188969223e-04,-1.105966064e-04,-7.294935288e-04,-7.181572012e-04,-6.705973309e-05,-7.852169343e-04,-8.692899565e-04,-9.958407557e-05,-9.688740321e-04,-8.941741609e-04,-1.023084277e-04,-9.964825886e-04,-2.752325228e-04,-3.207503085e-04,-5.959828313e-04,-2.610434445e-04,-1.941366384e-04,-4.551800830e-04,-1.100966331e-03,7.657785215e-05,-1.024388479e-03,-7.673624663e-04,1.469651405e-06,-7.658928149e-04
-9.4,-4.817195634e-04,1.439640017e-06,-4.802799234e-04,-8.991742970e-04,-8.436861363e-05,-9.835429106e-04,-3.942146423e-04,-1.292909501e-04,-5.235055924e-04,-7.358717745e-04,-1.566940658e-04,-8.925658403e-04,-5.761747571e-04,-1.440955315e-04,-7.202702886e-04,-7.829128343e-04,5.335974416e-06,-7.775768599e-04,-7.057581939e-04,1.263866842e-05,-6.931195255e-04,-7.643630577e-04,-4.517702240e-05,-8.095400801e-04,-6.158513307e-04,-6.421597154e-05,-6.800673022e-04,-7.149439671e-04,-7.026358509e-05,-7.852075522e-04,-4.320399764e-04,-2.107236093e-04,-6.427635857e-04,-8.160273778e-04,-2.953143488e-05,-8.455588127e-04,-8.026098996e-04,-3.933760875e-05,-8.419475084e-04,-6.908823700e-04,5.955351549e-05,-6.313288545e-04,-9.081092217e-04,-8.854970324e-06,-9.169641920e-04,-1.039825867e-03,-5.582008932e-05,-1.095645956e-03,-1.096887575e-03,-1.081222889e-04,-1.205009864e-03,-6.951568385e-04,-5.400266501e-05,-7.491595035e-04,-8.172350781e-04,-2.494108307e-05,-8.421761611e-04,-6.619024122e-04,-1.883465868e-05,-6.807370709e-04,-6.431886528e-04,-1.814276601e-04,-8.246163129e-04,-6.485097658e-04,-6.832369913e-05,-7.168334650e-04,-3.967603757e-04,-1.327541571e-04,-5.295145328e-04,-1.652795754e-04,-4.994060989e-05,-2.152201853e-04,-3.547033073e-04,-9.296586730e-05,-4.476691746e-04,-5.408875267e-04,-1.580052626e-05,-5.566880530e-04,-1.238168421e-03,-1.472700713e-04,-1.385438492e-03,-1.346467509e-03,1.308802701e-04,-1.215587239e-03,-6.109147631e-04,-1.133577595e-04,-7.242725226e-04,-7.286213584e-04,-6.419623381e-05,-7.928175922e-04,-8.709329586e-04,-9.176093216e-05,-9.626938907e-04,-9.200569894e-04,-9.042018265e-05,-1.010477172e-03,-2.960785568e-04,-3.100633391e-04,-6.061418958e-04,-2.833701822e-04,-1.827046597e-04,-4.660748419e-04,-1.132732054e-03,9.482126841e-05,-1.037910786e-03,-7.680495228e-04,-4.837505961e-07,-7.685332734e-04
-9.3,-4.775752264e-04,3.809881522e-06,-4.737653449e-04,-8.856355637e-04,-8.124138878e-05,-9.668769524e-04,-3.945511417e-04,-1.195284062e-04,-5.140795479e-04,-7.276188466e-04,-1.498757910e-04,-8.774946376e-04,-5.807017243e-04,-1.332981031e-04,-7.139998274e-04,-7.847070409e-04,1.201774486e-05,-7.726892960e-04,-7.124171424e-04,1.940506340e-05,-6.930120790e-04,-7.754747820e-04,-3.773644419e-05,-8.132112262e-04,-6.238761331e-04,-5.665168578e-05,-6.805278189e-04,-7.208609678e-04,-6.207976636e-05,-7.829407341e-04,-4.337053310e-04,-1.998212810e-04,-6.335266119e-04,-8.147877799e-04,-2.267039525e-05,-8.374581751e-04,-7.898947755e-04,-5.040473792e-05,-8.402995134e-04,-6.956036415e-04,6.447955091e-05,-6.311240906e-04,-9.212921782e-04,2.910763495e-06,-9.183814148e-04,-1.019012090e-03,-5.247510494e-05,-1.071487195e-03,-1.087529972e-03,-1.101758907e-04,-1.197705862e-03,-6.949543534e-04,-5.079131274e-05,-7.457456662e-04,-8.400368542e-04,-2.111598059e-05,-8.611528348e-04,-6.571486277e-04,-1.437952899e-05,-6.715281567e-04,-6.319270514e-04,-1.733370397e-04,-8.052640911e-04,-6.434278671e-04,-6.533724078e-05,-7.087651078e-04,-3.880725046e-04,-1.282506614e-04,-5.163231660e-04,-1.738035772e-04,-4.545056603e-05,-2.192541433e-04,-3.853508237e-04,-7.554498953e-05,-4.608958133e-04,-5.548862290e-04,-9.555899522e-06,-5.644421285e-04,-1.236928193e-03,-1.416924298e-04,-1.378620622e-03,-1.319275566e-03,1.303211065e-04,-1.188954459e-03,-6.032107759e-04,-1.162141474e-04,-7.194249233e-04,-7.392265873e-04,-6.123618981e-05,-8.004627771e-04,-8.722962906e-04,-8.425943007e-05,-9.565557207e-04,-9.450760334e-04,-7.848811579e-05,-1.023564149e-03,-3.192038924e-04,-2.984367318e-04,-6.176406242e-04,-3.081349152e-04,-1.704540509e-04,-4.785889662e-04,-1.162540713e-03,1.117677208e-04,-1.050772992e-03,-7.694864665e-04,-1.785901954e-06,-7.712723685e-04
-9.2,-4.734279335e-04,5.950411227e-06,-4.674775222e-04,-8.717958066e-04,-7.805877684e-05,-9.498545834e-04,-3.946309041e-04,-1.101010630e-04,-5.047319671e-04,-7.193594172e-04,-1.430657339e-04,-8.624251510e-04,-5.854147457e-04,-1.225016975e-04,-7.079164433e-04,-7.863111597e-04,1.852139473e-05,-7.677897650e-04,-7.188848621e-04,2.610833075e-05,-6.927765313e-04,-7.862929540e-04,-3.018589997e-05,-8.164788539e-04,-6.318426491e-04,-4.918960922e-05,-6.810322583e-04,-7.261541463e-04,-5.410434965e-05,-7.802584960e-04,-4.347183875e-04,-1.891628074e-04,-6.238811949e-04,-8.130613267e-04,-1.603571157e-05,-8.290970383e-04,-7.766872024e-04,-6.177605556e-05,-8.384632579e-04,-6.997569632e-04,6.924177603e-05,-6.305151872e-04,-9.337475040e-04,1.394275154e-05,-9.198047525e-04,-9.979133245e-04,-4.902557199e-05,-1.046938897e-03,-1.077014961e-03,-1.117733296e-04,-1.188788291e-03,-6.950646411e-04,-4.734275989e-05,-7.424074010e-04,-8.620808359e-04,-1.780809838e-05,-8.798889343e-04,-6.519215524e-04,-1.009450501e-05,-6.620160574e-04,-6.204536911e-04,-1.654196932e-04,-7.858733842e-04,-6.382586319e-04,-6.240852025e-05,-7.006671521e-04,-3.792815018e-04,-1.239762262e-04,-5.032577281e-04,-1.824489791e-04,-4.115131862e-05,-2.236002977e-04,-4.155179862e-04,-5.840641653e-05,-4.739244027e-04,-5.689885159e-04,-3.555559999e-06,-5.725440759e-04,-1.235434268e-03,-1.360036253e-04,-1.371437893e-03,-1.289773816e-03,1.272793591e-04,-1.162494457e-03,-5.958880583e-04,-1.190896924e-04,-7.149777507e-04,-7.499918772e-04,-5.815195499e-05,-8.081438322e-04,-8.733775320e-04,-7.711543583e-05,-9.504929678e-04,-9.691182920e-04,-6.662721303e-05,-1.035745505e-03,-3.445664443e-04,-2.860021547e-04,-6.305685990e-04,-3.352211907e-04,-1.575164865e-04,-4.927376772e-04,-1.190240675e-03,1.272102011e-04,-1.063030474e-03,-7.716519802e-04,-2.465603704e-06,-7.741175839e-04
-9.1,-4.692829536e-04,7.864462971e-06,-4.614184906e-04,-8.576600612e-04,-7.481788281e-05,-9.324779440e-04,-3.944494236e-04,-1.010207911e-04,-4.954702148e-04,-7.110738207e-04,-1.362729584e-04,-8.473467791e-04,-5.902756689e-04,-1.117289151e-04,-7.020045840e-04,-7.877028988e-04,2.482947641e-05,-7.628734224e-04,-7.251059768e-04,3.272430238e-05,-6.923816744e-04,-7.967677865e-04,-2.253155449e-05,-8.192993410e-04,-6.396967847e-04,-4.184526948e-05,-6.815420541e-04,-7.307827316e-04,-4.633885422e-05,-7.771215858e-04,-4.350741662e-04,-1.787408677e-04,-6.138150340e-04,-8.108748608e-04,-9.636064804e-06,-8.205109256e-04,-7.631376054e-04,-7.332559683e-05,-8.364632022e-04,-7.033485832e-04,7.383151438e-05,-6.295170688e-04,-9.453573265e-04,2.417280123e-05,-9.211845253e-04,-9.766725339e-04,-4.547242255e-05,-1.022144956e-03,-1.065544257e-03,-1.127358886e-04,-1.178280145e-03,-6.955277357e-04,-4.367500209e-05,-7.392027378e-04,-8.833611173e-04,-1.499886586e-05,-8.983599832e-04,-6.462402945e-04,-5.979010470e-06,-6.522193050e-04,-6.087845027e-04,-1.576831169e-04,-7.664676195e-04,-6.329916975e-04,-5.953672792e-05,-6.925284255e-04,-3.704071633e-04,-1.199227002e-04,-4.903298636e-04,-1.911679095e-04,-3.703928277e-05,-2.282071923e-04,-4.451248805e-04,-4.159349928e-05,-4.867183798e-04,-5.831750331e-04,2.173599882e-06,-5.810014333e-04,-1.233712271e-03,-1.302136330e-04,-1.363925904e-03,-1.258349575e-03,1.219164179e-04,-1.136433158e-03,-5.890467853e-04,-1.219123442e-04,-7.109591295e-04,-7.609159508e-04,-5.492799331e-05,-8.158439441e-04,-8.741746481e-04,-7.036495835e-05,-9.445396065e-04,-9.920656656e-04,-5.495717278e-05,-1.047022838e-03,-3.720827799e-04,-2.729091568e-04,-6.449919367e-04,-3.644839070e-04,-1.440349070e-04,-5.085188140e-04,-1.215677835e-03,1.409371239e-04,-1.074740712e-03,-7.745185387e-04,-2.544460898e-06,-7.770629996e-04
-9,-4.651419662e-04,9.555980120e-06,-4.555859861e-04,-8.432301027e-04,-7.151577213e-05,-9.147458749e-04,-3.940010564e-04,-9.229657177e-05,-4.862976282e-04,-7.027396306e-04,-1.295055835e-04,-8.322452141e-04,-5.952454765e-04,-1.010018320e-04,-6.962473085e-04,-7.888559363e-04,3.092566743e-05,-7.579302688e-04,-7.310225026e-04,3.922813489e-05,-6.917943677e-04,-8.068443301e-04,-1.478164632e-05,-8.216259765e-04,-6.473839022e-04,-3.463314789e-05,-6.820170501e-04,-7.347032515e-04,-3.878266036e-05,-7.734859118e-04,-4.347661481e-04,-1.685453396e-04,-6.033114877e-04,-8.082543087e-04,-3.479356482e-06,-8.117336651e-04,-7.493996424e-04,-8.492569106e-05,-8.343253335e-04,-7.063813571e-04,7.823951120e-05,-6.281418459e-04,-9.560015701e-04,3.354234413e-05,-9.224592259e-04,-9.554286944e-04,-4.182076350e-05,-9.972494579e-04,-1.053309665e-03,-1.128915573e-04,-1.166201222e-03,-6.963735734e-04,-3.981243580e-05,-7.361860092e-04,-9.038674506e-04,-1.266602413e-05,-9.165334747e-04,-6.401196509e-04,-2.030848391e-06,-6.421504993e-04,-5.969265938e-04,-1.501326443e-04,-7.470592381e-04,-6.276101969e-04,-5.672032716e-05,-6.843305240e-04,-3.614548579e-04,-1.160791485e-04,-4.775340064e-04,-1.999033061e-04,-3.310969562e-05,-2.330130017e-04,-4.740883483e-04,-2.514719464e-05,-4.992355429e-04,-5.974151156e-04,7.606568837e-06,-5.898085468e-04,-1.231779751e-03,-1.243322287e-04,-1.356111980e-03,-1.225388073e-03,1.144117515e-04,-1.110976322e-03,-5.827810637e-04,-1.246149490e-04,-7.073960127e-04,-7.719737539e-04,-5.156249335e-05,-8.235362473e-04,-8.746853353e-04,-6.404277605e-05,-9.387281113e-04,-1.013794662e-03,-4.359922627e-05,-1.057393888e-03,-4.016280398e-04,-2.593206209e-04,-6.609486606e-04,-3.957494191e-04,-1.301598742e-04,-5.259092932e-04,-1.238693933e-03,1.527388306e-04,-1.085955103e-03,-7.780533032e-04,-2.032889615e-06,-7.800861928e-04
-8.9,-4.610011998e-04,1.102954224e-05,-4.499716576e-04,-8.285032970e-04,-6.814958040e-05,-8.966528774e-04,-3.932764941e-04,-8.393463684e-05,-4.772111310e-04,-6.943299092e-04,-1.227709287e-04,-8.171008379e-04,-6.002825684e-04,-9.034205726e-05,-6.906246257e-04,-7.897380704e-04,3.679494327e-05,-7.529431272e-04,-7.365727058e-04,4.559451443e-05,-6.909781914e-04,-8.164607279e-04,-6.946771028e-06,-8.234074990e-04,-6.548477575e-04,-2.756661165e-05,-6.824143692e-04,-7.378685179e-04,-3.143332085e-05,-7.693018387e-04,-4.337844323e-04,-1.585637442e-04,-5.923481765e-04,-8.052217585e-04,2.427144636e-06,-8.027946138e-04,-7.356250633e-04,-9.644925773e-05,-8.320743210e-04,-7.088520200e-04,8.245578689e-05,-6.263962332e-04,-9.655575360e-04,4.200287705e-05,-9.235546590e-04,-9.343129224e-04,-3.807984964e-05,-9.723927720e-04,-1.040481752e-03,-1.120841978e-04,-1.152565950e-03,-6.976200378e-04,-3.578460459e-05,-7.334046423e-04,-9.235797814e-04,-1.078494348e-05,-9.343647249e-04,-6.335683152e-04,1.753474941e-06,-6.318148403e-04,-5.848761104e-04,-1.427715348e-04,-7.276476452e-04,-6.220888948e-04,-5.395709057e-05,-6.760459854e-04,-3.524135492e-04,-1.124320793e-04,-4.648456285e-04,-2.085878807e-04,-2.935685220e-05,-2.379447329e-04,-5.023204965e-04,-9.105914653e-06,-5.114264111e-04,-6.116646038e-04,1.272026021e-05,-5.989443436e-04,-1.229642921e-03,-1.183691213e-04,-1.348012043e-03,-1.191263374e-03,1.049611786e-04,-1.086302195e-03,-5.771754508e-04,-1.271361937e-04,-7.043116445e-04,-7.831134449e-04,-4.806837628e-05,-8.311818212e-04,-8.749057989e-04,-5.818086429e-05,-9.330866632e-04,-1.034175708e-03,-3.267304168e-05,-1.066848750e-03,-4.330366880e-04,-2.454077461e-04,-6.784444341e-04,-4.288150330e-04,-1.160466979e-04,-5.448617310e-04,-1.259123384e-03,1.624133872e-04,-1.096709997e-03,-7.822193283e-04,-9.265857483e-07,-7.831459141e-04
-8.8,-4.568497738e-04,1.229027949e-05,-4.445594943e-04,-8.134715930e-04,-6.471668196e-05,-8.781882750e-04,-3.922607247e-04,-7.593866744e-05,-4.681993922e-04,-6.858116819e-04,-1.160756560e-04,-8.018873379e-04,-6.053413929e-04,-7.977081573e-05,-6.851122086e-04,-7.903094551e-04,4.242360766e-05,-7.478858475e-04,-7.416901243e-04,5.179783862e-05,-6.898922856e-04,-8.255466827e-04,9.598085820e-07,-8.245868742e-04,-6.620295861e-04,-2.065789334e-05,-6.826874794e-04,-7.402270012e-04,-2.428697111e-05,-7.645139724e-04,-4.321144754e-04,-1.487817898e-04,-5.808962652e-04,-8.017927206e-04,8.076438966e-06,-7.937162816e-04,-7.219592603e-04,-1.077721610e-04,-8.297314213e-04,-7.107493548e-04,8.646951967e-05,-6.242798351e-04,-9.739008782e-04,4.951668110e-05,-9.243841971e-04,-9.134448745e-04,-3.426300437e-05,-9.477078789e-04,-1.027200474e-03,-1.101826477e-04,-1.137383122e-03,-6.992708250e-04,-3.162552442e-05,-7.308963494e-04,-9.424641091e-04,-9.329719128e-06,-9.517938283e-04,-6.265874835e-04,5.378383225e-06,-6.212091003e-04,-5.726170548e-04,-1.356011311e-04,-7.082181859e-04,-6.163929695e-04,-5.124419573e-05,-6.676371652e-04,-3.432552925e-04,-1.089657491e-04,-4.522210415e-04,-2.171437227e-04,-2.577436587e-05,-2.429180886e-04,-5.297273133e-04,6.494555404e-06,-5.232327578e-04,-6.258639573e-04,1.749360433e-05,-6.083703530e-04,-1.227293353e-03,-1.123342881e-04,-1.339627641e-03,-1.156330682e-03,9.377461591e-05,-1.062556066e-03,-5.723015941e-04,-1.294215868e-04,-7.017231809e-04,-7.942551142e-04,-4.447301718e-05,-8.387281314e-04,-8.748295606e-04,-5.280678063e-05,-9.276363412e-04,-1.053073325e-03,-2.229332870e-05,-1.075366653e-03,-4.661049586e-04,-2.313447332e-04,-6.974496919e-04,-4.634491350e-04,-1.018535095e-04,-5.653026445e-04,-1.276790261e-03,1.697708182e-04,-1.107019443e-03,-7.869762968e-04,7.951447971e-07,-7.861811520e-04
-8.7,-4.526687841e-04,1.334377967e-05,-4.393250044e-04,-7.981210527e-04,-6.121489882e-05,-8.593359515e-04,-3.909320979e-04,-6.831006087e-05,-4.592421588e-04,-6.771451222e-04,-1.094258929e-04,-7.865710151e-04,-6.103718692e-04,-6.930903627e-05,-6.796809054e-04,-7.905214540e-04,4.779921426e-05,-7.427222398e-04,-7.463031686e-04,5.781238097e-05,-6.884907876e-04,-8.340226808e-04,8.921904434e-06,-8.251007763e-04,-6.688677614e-04,-1.391809018e-05,-6.827858515e-04,-7.417229738e-04,-1.733878892e-05,-7.590617628e-04,-4.297369096e-04,-1.391839573e-04,-5.689208669e-04,-7.979745618e-04,1.346136178e-05,-7.845132000e-04,-7.085385602e-04,-1.187751336e-04,-8.273136937e-04,-7.120538937e-04,9.026898857e-05,-6.217849051e-04,-9.809084779e-04,5.605764574e-05,-9.248508321e-04,-8.929302712e-04,-3.038756801e-05,-9.233178392e-04,-1.013569060e-03,-1.070892220e-04,-1.120658282e-03,-7.013139897e-04,-2.737357549e-05,-7.286875652e-04,-9.604704529e-04,-8.274165933e-06,-9.687446189e-04,-6.191703193e-04,8.848920390e-06,-6.103213989e-04,-5.601215941e-04,-1.286210408e-04,-6.887426349e-04,-6.104778430e-04,-4.857836273e-05,-6.590562057e-04,-3.339365998e-04,-1.056625374e-04,-4.395991372e-04,-2.254828328e-04,-2.235543046e-05,-2.478382633e-04,-5.562079530e-04,2.162104838e-05,-5.345869046e-04,-6.399372451e-04,2.190772305e-05,-6.180295221e-04,-1.224705481e-03,-1.062382999e-04,-1.330943781e-03,-1.120921591e-03,8.107464098e-05,-1.039846950e-03,-5.682154422e-04,-1.314243267e-04,-6.996397689e-04,-8.052920187e-04,-4.081628632e-05,-8.461083051e-04,-8.744468364e-04,-4.794224498e-05,-9.223890814e-04,-1.070347672e-03,-1.256633916e-05,-1.082914011e-03,-5.005948819e-04,-2.173038356e-04,-7.178987174e-04,-4.993932849e-04,-8.774000706e-05,-5.871332920e-04,-1.291508230e-03,1.746364532e-04,-1.116871777e-03,-7.922795554e-04,3.168019707e-06,-7.891115357e-04
-8.6,-4.484313985e-04,1.419598764e-05,-4.342354109e-04,-7.824321331e-04,-5.764273114e-05,-8.400748642e-04,-3.892627238e-04,-6.104823854e-05,-4.503109623e-04,-6.682837097e-04,-1.028273246e-04,-7.711110343e-04,-6.153197401e-04,-5.897740674e-05,-6.742971469e-04,-7.903164826e-04,5.291049637e-05,-7.374059862e-04,-7.503355218e-04,6.361248213e-05,-6.867230397e-04,-8.418002659e-04,1.692028484e-05,-8.248799810e-04,-6.752981992e-04,-7.357157998e-06,-6.826553572e-04,-7.422975008e-04,-1.058343299e-05,-7.528809338e-04,-4.266285513e-04,-1.297540596e-04,-5.563826109e-04,-7.937666289e-04,1.857431246e-05,-7.751923164e-04,-6.954892817e-04,-1.293452268e-04,-8.248345084e-04,-7.127392274e-04,9.384159740e-05,-6.188976300e-04,-9.864632874e-04,6.161226794e-05,-9.248510195e-04,-8.728599933e-04,-2.647484646e-05,-8.993348397e-04,-9.996513647e-04,-1.027467975e-04,-1.102398162e-03,-7.037218628e-04,-2.307161898e-05,-7.267934818e-04,-9.775331488e-04,-7.592648711e-06,-9.851257975e-04,-6.113023836e-04,1.217051209e-05,-5.991318715e-04,-5.473518645e-04,-1.218293382e-04,-6.691812027e-04,-6.042901093e-04,-4.595602447e-05,-6.502461338e-04,-3.244014901e-04,-1.025033636e-04,-4.269048537e-04,-2.335085883e-04,-1.909306859e-05,-2.526016569e-04,-5.816550048e-04,3.624289507e-05,-5.454121097e-04,-6.537922917e-04,2.594612498e-05,-6.278461667e-04,-1.221835535e-03,-1.000925154e-04,-1.321928051e-03,-1.085343310e-03,6.709676251e-05,-1.018246547e-03,-5.649554223e-04,-1.331058251e-04,-6.980612474e-04,-8.160940998e-04,-3.714738701e-05,-8.532414868e-04,-8.737446979e-04,-4.360205654e-05,-9.173467545e-04,-1.085857304e-03,-3.586792921e-06,-1.089444097e-03,-5.362392987e-04,-2.034512146e-04,-7.396905133e-04,-5.363671113e-04,-7.386605320e-05,-6.102331645e-04,-1.303085585e-03,1.768551927e-04,-1.126230393e-03,-7.980771665e-04,6.238485414e-06,-7.918386811e-04
-8.5,-4.441038848e-04,1.485311423e-05,-4.292507706e-04,-7.663807027e-04,-5.399957910e-05,-8.203802818e-04,-3.872199744e-04,-5.415093460e-05,-4.413709090e-04,-6.591753108e-04,-9.628524375e-05,-7.554605545e-04,-6.201276470e-04,-4.879635878e-05,-6.689240057e-04,-7.896288560e-04,5.774740335e-05,-7.318814527e-04,-7.537072736e-04,6.917281123e-05,-6.845344624e-04,-8.487833146e-04,2.493276442e-05,-8.238505501e-04,-6.812553763e-04,-9.838955851e-07,-6.822392718e-04,-7.418900284e-04,-4.015417878e-06,-7.459054463e-04,-4.227642980e-04,-1.204757371e-04,-5.432400352e-04,-7.891618043e-04,2.340725355e-05,-7.657545508e-04,-6.829276317e-04,-1.393770850e-04,-8.223047166e-04,-7.127744072e-04,9.717396342e-05,-6.156004437e-04,-9.904606436e-04,6.618109743e-05,-9.242795461e-04,-8.533105650e-04,-2.254998081e-05,-8.758605458e-04,-9.854720727e-04,-9.714386156e-05,-1.082615934e-03,-7.064524915e-04,-1.876689127e-05,-7.252193827e-04,-9.935732567e-04,-7.260493339e-06,-1.000833750e-03,-6.029627953e-04,1.534876170e-05,-5.876140336e-04,-5.342627777e-04,-1.152228196e-04,-6.494855973e-04,-5.977692533e-04,-4.337351583e-05,-6.411427691e-04,-3.145855022e-04,-9.946810451e-05,-4.140536067e-04,-2.411178556e-04,-1.598035511e-05,-2.570982107e-04,-6.059557383e-04,5.033171348e-05,-5.556240248e-04,-6.673219595e-04,2.959485946e-05,-6.377271000e-04,-1.218621944e-03,-9.390919507e-05,-1.312531139e-03,-1.049880913e-03,5.209079860e-05,-9.977901145e-04,-5.625417373e-04,-1.344356983e-04,-6.969774356e-04,-8.265128311e-04,-3.352134986e-05,-8.600341810e-04,-8.727078017e-04,-3.979332620e-05,-9.125011279e-04,-1.099462486e-03,4.564273615e-06,-1.094898212e-03,-5.727474737e-04,-1.899433250e-04,-7.626907987e-04,-5.740752006e-04,-6.038958323e-05,-6.344647839e-04,-1.311334795e-03,1.762975323e-04,-1.135037263e-03,-8.043056448e-04,1.005743677e-05,-7.942482081e-04
-8.4,-4.396471714e-04,1.532159520e-05,-4.243255762e-04,-7.499395311e-04,-5.028592624e-05,-8.002254573e-04,-3.847683913e-04,-4.761442366e-05,-4.323828150e-04,-6.497637692e-04,-8.980457187e-05,-7.395683411e-04,-6.247364008e-04,-3.878597442e-05,-6.635223753e-04,-7.883862299e-04,6.230122227e-05,-7.260850076e-04,-7.563364474e-04,7.446870558e-05,-6.818677418e-04,-8.548699147e-04,3.293453040e-05,-8.219353843e-04,-6.866735665e-04,5.194069574e-06,-6.814794969e-04,-7.404400789e-04,2.370573516e-06,-7.380695054e-04,-4.181192617e-04,-1.113328928e-04,-5.294521545e-04,-7.841486286e-04,2.795195540e-05,-7.561966732e-04,-6.709596012e-04,-1.487740943e-04,-8.197336955e-04,-7.121264487e-04,1.002520282e-04,-6.118744205e-04,-9.928144708e-04,6.978035780e-05,-9.230341130e-04,-8.343453575e-04,-1.864170598e-05,-8.529870635e-04,-9.710188997e-04,-9.031713689e-05,-1.061336037e-03,-7.094520335e-04,-1.451045587e-05,-7.239624893e-04,-1.008502250e-03,-7.253802668e-06,-1.015756052e-03,-5.941256315e-04,1.838927284e-05,-5.757363586e-04,-5.208049730e-04,-1.087973170e-04,-6.296022901e-04,-5.908495728e-04,-4.082723673e-05,-6.316768095e-04,-3.044195844e-04,-9.653597097e-05,-4.009555553e-04,-2.482032476e-04,-1.301060658e-05,-2.612138542e-04,-6.289939992e-04,6.386117654e-05,-5.651328226e-04,-6.804062456e-04,3.284258734e-05,-6.475636583e-04,-1.214986865e-03,-8.770164049e-05,-1.302688505e-03,-1.014799827e-03,3.632161128e-05,-9.784782158e-04,-5.609765297e-04,-1.353912308e-04,-6.963677605e-04,-8.363863347e-04,-2.999565111e-05,-8.663819859e-04,-8.713191476e-04,-3.651501090e-05,-9.078341585e-04,-1.111028272e-03,1.182070495e-05,-1.099207567e-03,-6.098109653e-04,-1.769232342e-04,-7.867341995e-04,-6.122135981e-04,-4.746413317e-05,-6.596777312e-04,-1.316083133e-03,1.728662787e-04,-1.143216854e-03,-8.108851110e-04,1.467283651e-05,-7.962122745e-04
-8.3,-4.350183251e-04,1.560813162e-05,-4.194101935e-04,-7.330798058e-04,-4.650348023e-05,-7.795832860e-04,-3.818710417e-04,-4.143369842e-05,-4.233047401e-04,-6.399903403e-04,-8.338990758e-05,-7.233802479e-04,-6.290857821e-04,-2.896585243e-05,-6.580516345e-04,-7.865109620e-04,6.656468386e-05,-7.199462782e-04,-7.581404056e-04,7.947656132e-05,-6.786638443e-04,-8.599541958e-04,4.089865701e-05,-8.190555388e-04,-6.914877845e-04,1.117028087e-05,-6.803175036e-04,-7.378885035e-04,8.579417117e-06,-7.293090864e-04,-4.126703533e-04,-1.023100944e-04,-5.149804477e-04,-7.787129073e-04,3.220042733e-05,-7.465124800e-04,-6.596805728e-04,-1.574490240e-04,-8.171295968e-04,-7.107618079e-04,1.030611585e-04,-6.077006494e-04,-9.934611904e-04,7.244291575e-05,-9.210182746e-04,-8.160156354e-04,-1.478203530e-05,-8.307976707e-04,-9.562460848e-04,-8.235127414e-05,-1.038597359e-03,-7.126570489e-04,-1.035631872e-05,-7.230133676e-04,-1.022225533e-03,-7.548794837e-06,-1.029774328e-03,-5.847609961e-04,2.129751865e-05,-5.634634775e-04,-5.069269951e-04,-1.025480000e-04,-6.094749951e-04,-5.834616396e-04,-3.831373205e-05,-6.217753717e-04,-2.938328583e-04,-9.368582426e-05,-3.875186825e-04,-2.546550016e-04,-1.017753716e-05,-2.648325388e-04,-6.506521792e-04,7.680682737e-05,-5.738453519e-04,-6.929145388e-04,3.568048600e-05,-6.572340528e-04,-1.210838153e-03,-8.148444984e-05,-1.292322603e-03,-9.803461095e-04,2.006756607e-05,-9.602785434e-04,-5.602443087e-04,-1.359565521e-04,-6.962008608e-04,-8.455439936e-04,-2.662702250e-05,-8.721710161e-04,-8.695601837e-04,-3.375788152e-05,-9.033180653e-04,-1.120426784e-03,1.813197310e-05,-1.102294811e-03,-6.471090482e-04,-1.645167837e-04,-8.116258319e-04,-6.504742195e-04,-3.523616755e-05,-6.857103871e-04,-1.317180657e-03,1.665025798e-04,-1.150678078e-03,-8.177144425e-04,2.012202311e-05,-7.975924194e-04
-8.2,-4.301713790e-04,1.571979689e-05,-4.144515821e-04,-7.157722364e-04,-4.265529507e-05,-7.584275315e-04,-3.784896186e-04,-3.560264331e-05,-4.140922619e-04,-6.297944028e-04,-7.704565063e-05,-7.068400534e-04,-6.331144110e-04,-1.935499148e-05,-6.524694025e-04,-7.839208458e-04,7.053199914e-05,-7.133888466e-04,-7.590366718e-04,8.417423122e-05,-6.748624406e-04,-8.639275031e-04,4.879668639e-05,-8.151308167e-04,-6.956340327e-04,1.693942522e-05,-6.786946075e-04,-7.341779358e-04,1.461529122e-05,-7.195626445e-04,-4.063967808e-04,-9.339297101e-05,-4.997897518e-04,-7.728380233e-04,3.614550122e-05,-7.366925221e-04,-6.491746456e-04,-1.653236768e-04,-8.144983224e-04,-7.086461380e-04,1.055862338e-04,-6.030599042e-04,-9.923599760e-04,7.421800737e-05,-9.181419686e-04,-7.983606006e-04,-1.100592426e-05,-8.093665249e-04,-9.410787012e-04,-7.337518810e-05,-1.014453889e-03,-7.159957734e-04,-6.360411666e-06,-7.223561851e-04,-1.034644393e-03,-8.121030054e-06,-1.042765423e-03,-5.748353360e-04,2.407873912e-05,-5.507565969e-04,-4.925761321e-04,-9.646958928e-05,-5.890457214e-04,-5.755328812e-04,-3.582967362e-05,-6.113625548e-04,-2.827538176e-04,-9.089644555e-05,-3.736502631e-04,-2.603621822e-04,-7.475393573e-06,-2.678375757e-04,-6.708126721e-04,8.914595954e-05,-5.816667126e-04,-7.047073092e-04,3.810191436e-05,-6.666053949e-04,-1.206071070e-03,-7.527394764e-05,-1.281345018e-03,-9.467442871e-04,3.616494855e-06,-9.431277922e-04,-5.603120527e-04,-1.361218718e-04,-6.964339245e-04,-8.538101738e-04,-2.346853584e-05,-8.772787096e-04,-8.674097755e-04,-3.150499354e-05,-8.989147690e-04,-1.127538253e-03,2.346386016e-05,-1.104074393e-03,-6.843130408e-04,-1.528290847e-04,-8.371421255e-04,-6.885476323e-04,-2.384156669e-05,-7.123891990e-04,-1.314504032e-03,1.571910860e-04,-1.157312946e-03,-8.246670278e-04,2.642465134e-05,-7.982423765e-04
-8.1,-4.250572791e-04,1.566415809e-05,-4.093931211e-04,-6.979875242e-04,-3.874590029e-05,-7.367334245e-04,-3.745832534e-04,-3.011423665e-05,-4.046974900e-04,-6.191132988e-04,-7.077620486e-05,-6.898895037e-04,-6.367587107e-04,-9.971730736e-06,-6.467304414e-04,-7.805290629e-04,7.419885972e-05,-7.063302032e-04,-7.589429995e-04,8.854138733e-05,-6.704016122e-04,-8.666786841e-04,5.659913928e-05,-8.100795448e-04,-6.990487638e-04,2.249726279e-05,-6.765515010e-04,-7.292524538e-04,2.048141006e-05,-7.087710438e-04,-3.992794426e-04,-8.456862670e-05,-4.838480693e-04,-7.665039004e-04,3.978156421e-05,-7.267223362e-04,-6.395137825e-04,-1.723273921e-04,-8.118411746e-04,-7.057424670e-04,1.078117312e-04,-5.979307358e-04,-9.894895614e-04,7.516972112e-05,-9.143198403e-04,-7.814060053e-04,-7.350893342e-06,-7.887568986e-04,-9.254177072e-04,-6.355511713e-05,-9.889728244e-04,-7.193881554e-04,-2.579502951e-06,-7.219676583e-04,-1.045655961e-03,-8.944884674e-06,-1.054600845e-03,-5.643109518e-04,2.673779329e-05,-5.375731585e-04,-4.776979877e-04,-9.055648262e-05,-5.682544703e-04,-5.669873322e-04,-3.337179535e-05,-6.003591275e-04,-2.711102746e-04,-8.814679753e-05,-3.592570721e-04,-2.652132939e-04,-4.899083604e-06,-2.701123775e-04,-6.893585049e-04,1.008575373e-04,-5.885009676e-04,-7.156368833e-04,4.010189293e-05,-6.755349904e-04,-1.200569340e-03,-6.908876036e-05,-1.269658101e-03,-9.141947314e-04,-1.273915697e-05,-9.269338883e-04,-5.611288035e-04,-1.358829795e-04,-6.970117830e-04,-8.610069963e-04,-2.056715707e-05,-8.815741534e-04,-8.648421096e-04,-2.973246032e-05,-8.945745699e-04,-1.132250502e-03,2.779887384e-05,-1.104451628e-03,-7.210895263e-04,-1.419418541e-04,-8.630313804e-04,-7.261255408e-04,-1.340096657e-05,-7.395265074e-04,-1.307957674e-03,1.449649689e-04,-1.162992705e-03,-8.315875100e-04,3.357707611e-05,-7.980104339e-04
-8,-4.196231772e-04,1.544936446e-05,-4.041738128e-04,-6.796963014e-04,-3.478143987e-05,-7.144777413e-04,-3.701066760e-04,-2.496077728e-05,-3.950674533e-04,-6.078816086e-04,-6.458621335e-05,-6.724678219e-04,-6.399514241e-04,-8.337559797e-07,-6.407851801e-04,-7.762436366e-04,7.756243663e-05,-6.986812000e-04,-7.577768917e-04,9.255981052e-05,-6.652170811e-04,-8.680937430e-04,6.427585471e-05,-8.038178883e-04,-7.016678522e-04,2.784049961e-05,-6.738273526e-04,-7.230568591e-04,2.617971961e-05,-6.968771394e-04,-3.912997444e-04,-7.582608563e-05,-4.671258300e-04,-7.596853026e-04,4.310541239e-05,-7.165798902e-04,-6.307568350e-04,-1.783948639e-04,-8.091516989e-04,-7.020087363e-04,1.097218188e-04,-5.922869175e-04,-9.848429687e-04,7.537446615e-05,-9.094685026e-04,-7.651617671e-04,-3.856437988e-06,-7.690182051e-04,-9.091459655e-04,-5.308507995e-05,-9.622310455e-04,-7.227451939e-04,9.300997433e-07,-7.218150941e-04,-1.055152003e-03,-9.993397045e-06,-1.065145400e-03,-5.531451163e-04,2.927892014e-05,-5.238661961e-04,-4.622355231e-04,-8.480284420e-05,-5.470383673e-04,-5.577451015e-04,-3.093685796e-05,-5.886819595e-04,-2.588290364e-04,-8.541631837e-05,-3.442453548e-04,-2.690967627e-04,-2.444302452e-06,-2.715410651e-04,-7.061732713e-04,1.119221325e-04,-5.942511388e-04,-7.255475513e-04,4.167657514e-05,-6.838709762e-04,-1.194205653e-03,-6.295032818e-05,-1.257155981e-03,-8.828730576e-04,-2.870570461e-05,-9.115787622e-04,-5.626250480e-04,-1.352409615e-04,-6.978660094e-04,-8.669564525e-04,-1.796191260e-05,-8.849183651e-04,-8.618241965e-04,-2.841025703e-05,-8.902344535e-04,-1.134457100e-03,3.113599416e-05,-1.103321106e-03,-7.571028043e-04,-1.319119198e-04,-8.890147241e-04,-7.629034338e-04,-4.014895687e-06,-7.669183294e-04,-1.297474868e-03,1.299111085e-04,-1.167563759e-03,-8.382896584e-04,4.154855468e-05,-7.967411038e-04
-7.9,-4.138116911e-04,1.508418211e-05,-3.987275090e-04,-6.608689323e-04,-3.076980177e-05,-6.916387341e-04,-3.650087638e-04,-2.013412224e-05,-3.851428860e-04,-5.960304860e-04,-5.848076938e-05,-6.545112554e-04,-6.426204015e-04,8.041846499e-06,-6.345785550e-04,-7.709669769e-04,8.062134771e-05,-6.903456292e-04,-7.554550812e-04,9.621357808e-05,-6.592415031e-04,-8.680554757e-04,7.179612206e-05,-7.962593536e-04,-7.034256544e-04,3.296661093e-05,-6.704590435e-04,-7.155362175e-04,3.171055662e-05,-6.838256609e-04,-3.824387108e-04,-6.715676283e-05,-4.495954737e-04,-7.523505294e-04,4.611711335e-05,-7.062334160e-04,-6.229484266e-04,-1.834642903e-04,-8.064127169e-04,-6.973960652e-04,1.113004777e-04,-5.860955875e-04,-9.784219919e-04,7.491760371e-05,-9.035043882e-04,-7.496198699e-04,-5.630081521e-07,-7.501828780e-04,-8.921351436e-04,-4.217606954e-05,-9.343112131e-04,-7.259685581e-04,4.114220339e-06,-7.218543378e-04,-1.063018013e-03,-1.123836252e-05,-1.074256375e-03,-5.412895363e-04,3.170546049e-05,-5.095840758e-04,-4.461287045e-04,-7.920268740e-05,-5.253313919e-04,-5.477223924e-04,-2.852168801e-05,-5.762440804e-04,-2.458365848e-04,-8.268527117e-05,-3.285218560e-04,-2.719019292e-04,-1.076546208e-07,-2.720095838e-04,-7.211409057e-04,1.223218594e-04,-5.988190462e-04,-7.342757371e-04,4.282291607e-05,-6.914528211e-04,-1.186842123e-03,-5.688305583e-05,-1.243725179e-03,-8.529321608e-04,-4.398963729e-05,-8.969217981e-04,-5.647124900e-04,-1.342019384e-04,-6.989144284e-04,-8.714825181e-04,-1.568270418e-05,-8.871652223e-04,-8.583138783e-04,-2.750298340e-05,-8.858168617e-04,-1.134055244e-03,3.348968977e-05,-1.100565554e-03,-7.920170132e-04,-1.227711054e-04,-9.147881186e-04,-7.985830053e-04,4.239956093e-06,-7.943430493e-04,-1.283020510e-03,1.121744556e-04,-1.170846055e-03,-8.445559731e-04,5.027947669e-05,-7.942764964e-04
-7.8,-4.075608705e-04,1.457796504e-05,-3.929829055e-04,-6.414756783e-04,-2.672071232e-05,-6.681963906e-04,-3.592324866e-04,-1.562593912e-05,-3.748584258e-04,-5.834877612e-04,-5.246556490e-05,-6.359533261e-04,-6.446883501e-04,1.663851970e-05,-6.280498304e-04,-7.645961859e-04,8.337554062e-05,-6.812206452e-04,-7.518935594e-04,9.948914770e-05,-6.524044117e-04,-8.664437542e-04,7.912864135e-05,-7.873151129e-04,-7.042547390e-04,3.787365633e-05,-6.663810826e-04,-7.066362332e-04,3.707232208e-05,-6.695639111e-04,-3.726771893e-04,-5.855491375e-05,-4.312321031e-04,-7.444614194e-04,4.882068756e-05,-6.956407319e-04,-6.161179218e-04,-1.874767730e-04,-8.035946948e-04,-6.918488654e-04,1.125316787e-04,-5.793171868e-04,-9.702331445e-04,7.388946420e-05,-8.963436803e-04,-7.347539297e-04,2.489468222e-06,-7.322644615e-04,-8.742528689e-04,-3.104580763e-05,-9.052986765e-04,-7.289514044e-04,6.922774876e-06,-7.220286295e-04,-1.069133945e-03,-1.265047858e-05,-1.081784424e-03,-5.286908331e-04,3.401964609e-05,-4.946711870e-04,-4.293156973e-04,-7.374995011e-05,-5.030656474e-04,-5.368327770e-04,-2.612328821e-05,-5.629560652e-04,-2.320615962e-04,-7.993514314e-05,-3.119967393e-04,-2.735210314e-04,2.113231475e-06,-2.714077999e-04,-7.341460234e-04,1.320402793e-04,-6.021057441e-04,-7.416511122e-04,4.353868284e-05,-6.981124293e-04,-1.178331525e-03,-5.091393017e-05,-1.229245455e-03,-8.245047001e-04,-5.829919065e-05,-8.828038907e-04,-5.672849305e-04,-1.327765904e-04,-7.000615209e-04,-8.744138950e-04,-1.374974761e-05,-8.881636426e-04,-8.542591225e-04,-2.697061734e-05,-8.812297399e-04,-1.130944730e-03,3.488856465e-05,-1.096056166e-03,-8.254986315e-04,-1.145273874e-04,-9.400260189e-04,-8.328742905e-04,1.131286500e-05,-8.215614255e-04,-1.264596001e-03,9.196008822e-05,-1.172635912e-03,-8.501403345e-04,5.968194481e-05,-7.904583897e-04
-7.7,-4.008053229e-04,1.394055981e-05,-3.868647630e-04,-6.214875583e-04,-2.264577001e-05,-6.441333283e-04,-3.527167017e-04,-1.142796807e-05,-3.641446698e-04,-5.701792307e-04,-4.654695668e-05,-6.167261873e-04,-6.460738557e-04,2.494018491e-05,-6.211336708e-04,-7.570245244e-04,8.582608634e-05,-6.711984380e-04,-7.470085087e-04,1.023753727e-04,-6.446331360e-04,-8.631368502e-04,8.624140013e-05,-7.768954501e-04,-7.040865558e-04,4.256013436e-05,-6.615264215e-04,-6.963046269e-04,4.226124333e-05,-6.540433836e-04,-3.619974170e-04,-5.001799405e-05,-4.120154111e-04,-7.359749652e-04,5.122441888e-05,-6.847505463e-04,-6.102791294e-04,-1.903770100e-04,-8.006561395e-04,-6.853070741e-04,1.133996335e-04,-5.719074406e-04,-9.602860575e-04,7.238111092e-05,-8.879049466e-04,-7.205210163e-04,5.263328925e-06,-7.152576874e-04,-8.553693187e-04,-1.991063280e-05,-8.752799515e-04,-7.315807088e-04,9.311639245e-06,-7.222690696e-04,-1.073377108e-03,-1.419948667e-05,-1.087576595e-03,-5.152922572e-04,3.622251399e-05,-4.790697432e-04,-4.117357864e-04,-6.843857968e-05,-4.801743661e-04,-5.249898807e-04,-2.373899774e-05,-5.487288784e-04,-2.174391771e-04,-7.714906118e-05,-2.945882383e-04,-2.738522079e-04,4.219596784e-06,-2.696326111e-04,-7.450753383e-04,1.410622595e-04,-6.040130788e-04,-7.474992052e-04,4.382279884e-05,-7.036764064e-04,-1.168519900e-03,-4.507161689e-05,-1.213591517e-03,-7.977029959e-04,-7.134877343e-05,-8.690517694e-04,-5.702207793e-04,-1.309792658e-04,-7.012000451e-04,-8.755875229e-04,-1.217352793e-05,-8.877610509e-04,-8.495990162e-04,-2.676921102e-05,-8.763682272e-04,-1.125028921e-03,3.537410512e-05,-1.089654816e-03,-8.572198879e-04,-1.071669771e-04,-9.643868649e-04,-8.654982787e-04,1.718016696e-05,-8.483181117e-04,-1.242246178e-03,6.953246846e-05,-1.172713710e-03,-8.547745949e-04,6.964283848e-05,-7.851317564e-04
-7.6,-3.934784206e-04,1.318216221e-05,-3.802962584e-04,-6.008778675e-04,-1.855839400e-05,-6.194362615e-04,-3.453994477e-04,-7.532250226e-06,-3.529316979e-04,-5.560310411e-04,-4.073194493e-05,-5.967629860e-04,-6.466934139e-04,3.293124002e-05,-6.137621738e-04,-7.481439679e-04,8.797493395e-05,-6.601690340e-04,-7.407180832e-04,1.048634969e-04,-6.358545863e-04,-8.580137359e-04,9.310156293e-05,-7.649121729e-04,-7.028528853e-04,4.702489299e-05,-6.558279923e-04,-6.844932260e-04,4.727127109e-05,-6.372219549e-04,-3.503855697e-04,-4.154688173e-05,-3.919324515e-04,-7.268460971e-04,5.334069821e-05,-6.735053989e-04,-6.054312241e-04,-1.921146355e-04,-7.975458596e-04,-6.777098241e-04,1.138891081e-04,-5.638207159e-04,-9.485942200e-04,7.048031908e-05,-8.781139009e-04,-7.068653143e-04,7.724994091e-06,-6.991403202e-04,-8.353625949e-04,-8.980104991e-06,-8.443426999e-04,-7.337407036e-04,1.124411157e-05,-7.224965920e-04,-1.075626579e-03,-1.585445808e-05,-1.091481037e-03,-5.010363035e-04,3.831391329e-05,-4.627223902e-04,-3.933333643e-04,-6.326267683e-05,-4.565960412e-04,-5.121110318e-04,-2.136668571e-05,-5.334777175e-04,-2.019158472e-04,-7.431217509e-05,-2.762280223e-04,-2.728031209e-04,6.211453840e-06,-2.665916670e-04,-7.538201733e-04,1.493738187e-04,-6.044463545e-04,-7.516454390e-04,4.367586991e-05,-7.079695690e-04,-1.157250490e-03,-3.938518910e-05,-1.196635680e-03,-7.726152561e-04,-8.286699903e-05,-8.554822551e-04,-5.733870576e-04,-1.288267032e-04,-7.022137607e-04,-8.748524738e-04,-1.095511754e-05,-8.858075914e-04,-8.442662446e-04,-2.685155056e-05,-8.711177951e-04,-1.116217561e-03,3.499964528e-05,-1.081217916e-03,-8.868627207e-04,-1.006570465e-04,-9.875197672e-04,-8.961906373e-04,2.184601998e-05,-8.743446173e-04,-1.216066936e-03,4.521229775e-05,-1.170854638e-03,-8.581783644e-04,8.002885283e-05,-7.781495116e-04
-7.5,-3.855150524e-04,1.231316729e-05,-3.732018851e-04,-5.796239819e-04,-1.447367090e-05,-5.940976528e-04,-3.372217851e-04,-3.931269764e-06,-3.411530548e-04,-5.409726008e-04,-3.502808567e-05,-5.760006865e-04,-6.464637950e-04,4.059661862e-05,-6.058671764e-04,-7.378483569e-04,8.982467993e-05,-6.480236769e-04,-7.329446130e-04,1.069471533e-04,-6.259974598e-04,-8.509569092e-04,9.967543737e-05,-7.512814718e-04,-7.004876080e-04,5.126707282e-05,-6.492205352e-04,-6.711601812e-04,5.209410514e-05,-6.190660760e-04,-3.378344810e-04,-3.314596516e-05,-3.709804462e-04,-7.170306689e-04,5.518541456e-05,-6.618452543e-04,-6.015604727e-04,-1.926457024e-04,-7.942061752e-04,-6.689993277e-04,1.139857645e-04,-5.550135632e-04,-9.351769572e-04,6.826822779e-05,-8.669087294e-04,-6.937225763e-04,9.846722892e-06,-6.838758534e-04,-8.141226633e-04,1.546337338e-06,-8.125763260e-04,-7.353166368e-04,1.269201298e-05,-7.226246238e-04,-1.075767857e-03,-1.758430486e-05,-1.093352161e-03,-4.858675583e-04,4.029253760e-05,-4.455750207e-04,-3.740618778e-04,-5.821671930e-05,-4.322785971e-04,-4.981210784e-04,-1.900494889e-05,-5.171260273e-04,-1.854539654e-04,-7.141195973e-05,-2.568659251e-04,-2.702945682e-04,8.087504252e-06,-2.622070640e-04,-7.602796060e-04,1.569620253e-04,-6.033175807e-04,-7.539199968e-04,4.310071534e-05,-7.108192814e-04,-1.144368313e-03,-3.388275891e-05,-1.178251072e-03,-7.492994838e-04,-9.260678443e-05,-8.419062682e-04,-5.766439503e-04,-1.263366920e-04,-7.029806422e-04,-8.720735633e-04,-1.008681458e-05,-8.821603779e-04,-8.381900911e-04,-2.716803397e-05,-8.653581250e-04,-1.104430518e-03,3.382925078e-05,-1.070601267e-03,-9.141224426e-04,-9.494877494e-05,-1.009071218e-03,-9.247059299e-04,2.534282009e-05,-8.993631098e-04,-1.186210491e-03,1.937120026e-05,-1.166839291e-03,-8.600698216e-04,9.069243426e-05,-7.693773874e-04
-7.4,-3.768541872e-04,1.134405595e-05,-3.655101313e-04,-5.577089145e-04,-1.040810805e-05,-5.681170225e-04,-3.281310684e-04,-6.180000507e-07,-3.287490685e-04,-5.249392502e-04,-2.944338752e-05,-5.543826377e-04,-6.453039912e-04,4.792188655e-05,-5.973821047e-04,-7.260364490e-04,9.137835944e-05,-6.346580896e-04,-7.236166476e-04,1.086223514e-04,-6.149942962e-04,-8.418551344e-04,1.059285530e-04,-7.359265814e-04,-6.969282654e-04,5.528604825e-05,-6.416422171e-04,-6.562717076e-04,5.671930778e-05,-5.995523998e-04,-3.243456550e-04,-2.482313882e-05,-3.491687938e-04,-7.064875368e-04,5.677697197e-05,-6.497105649e-04,-5.986416343e-04,-1.919341827e-04,-7.905758170e-04,-6.591237201e-04,1.136764952e-04,-5.454472249e-04,-9.200609876e-04,6.581680624e-05,-8.542441814e-04,-6.810241495e-04,1.160816738e-05,-6.694159821e-04,-7.915539112e-04,1.148199734e-05,-7.800719139e-04,-7.361980186e-04,1.363661343e-05,-7.225614052e-04,-1.073696500e-03,-1.935828347e-05,-1.093054784e-03,-4.697350815e-04,4.215595967e-05,-4.275791218e-04,-3.538866505e-04,-5.329580851e-05,-4.071824590e-04,-4.829555321e-04,-1.665325928e-05,-4.996087914e-04,-1.680344956e-04,-6.843840625e-05,-2.364729018e-04,-2.662634733e-04,9.845081288e-06,-2.564183920e-04,-7.643635298e-04,1.638150039e-04,-6.005485259e-04,-7.541626532e-04,4.210275456e-05,-7.120598987e-04,-1.129724446e-03,-2.859036834e-05,-1.158314814e-03,-7.277771418e-04,-1.003552550e-04,-8.281323968e-04,-5.798487198e-04,-1.235269797e-04,-7.033756996e-04,-8.671340065e-04,-9.553115925e-06,-8.766871224e-04,-8.312987422e-04,-2.766796939e-05,-8.589667116e-04,-1.089601324e-03,3.193627204e-05,-1.057665052e-03,-9.387107080e-04,-8.998017340e-05,-1.028690881e-03,-9.508209471e-04,2.773081877e-05,-9.230901283e-04,-1.152885084e-03,-7.575967448e-06,-1.160461052e-03,-8.601752529e-04,1.014774494e-04,-7.586978035e-04
-7.3,-3.674406368e-04,1.028533495e-05,-3.571553019e-04,-5.351221672e-04,-6.379327630e-06,-5.415014949e-04,-3.180828515e-04,2.414108913e-06,-3.156687426e-04,-5.078740702e-04,-2.398624563e-05,-5.318603159e-04,-6.431362524e-04,5.489332456e-05,-5.882429278e-04,-7.126142599e-04,9.263923385e-05,-6.199750261e-04,-7.126703596e-04,1.098874293e-04,-6.027829303e-04,-8.306056158e-04,1.118258879e-04,-7.187797279e-04,-6.921170313e-04,5.908134770e-05,-6.330356836e-04,-6.398029711e-04,6.113446490e-05,-5.786685062e-04,-3.099299865e-04,-1.658974865e-05,-3.265197351e-04,-6.951789817e-04,5.813508644e-05,-6.370438953e-04,-5.966381538e-04,-1.899533592e-04,-7.865915130e-04,-6.480380781e-04,1.129497330e-04,-5.350883451e-04,-9.032801445e-04,6.318695077e-05,-8.400931937e-04,-6.686996270e-04,1.299760234e-05,-6.557020246e-04,-7.675762539e-04,2.065562248e-05,-7.469206314e-04,-7.362805926e-04,1.406936793e-05,-7.222112246e-04,-1.069320020e-03,-2.114614780e-05,-1.090466168e-03,-4.525938691e-04,4.390069046e-05,-4.086931786e-04,-3.327859550e-04,-4.849585198e-05,-3.812818070e-04,-4.665624784e-04,-1.431201993e-05,-4.808744984e-04,-1.496576471e-04,-6.538411199e-05,-2.150417591e-04,-2.606648772e-04,1.148012157e-05,-2.491847556e-04,-7.659948950e-04,1.699220186e-04,-5.960728764e-04,-7.522267030e-04,4.069010617e-05,-7.115365968e-04,-1.113179151e-03,-2.353145226e-05,-1.136710604e-03,-7.080279655e-04,-1.059416866e-04,-8.139696521e-04,-5.828582200e-04,-1.204144844e-04,-7.032727045e-04,-8.599367310e-04,-9.331861644e-06,-8.692685926e-04,-8.235202115e-04,-2.830114059e-05,-8.518213521e-04,-1.071679837e-03,2.940172810e-05,-1.042278108e-03,-9.603577725e-04,-8.567835977e-05,-1.046036132e-03,-9.743361821e-04,2.909668922e-05,-9.452394928e-04,-1.116348038e-03,-3.518119752e-05,-1.151529235e-03,-8.582359368e-04,1.122237552e-04,-7.460121816e-04
-7.2,-3.572257758e-04,9.147505004e-06,-3.480782708e-04,-5.118597006e-04,-2.405748523e-06,-5.142654491e-04,-3.070412984e-04,5.171160363e-06,-3.018701380e-04,-4.897286357e-04,-1.866543116e-05,-5.083940669e-04,-6.398861805e-04,6.149795467e-05,-5.783882258e-04,-6.974964315e-04,9.361056288e-05,-6.038858687e-04,-7.000501503e-04,1.107429619e-04,-5.893071884e-04,-8.171154411e-04,1.173322591e-04,-6.997831821e-04,-6.860010267e-04,6.265255082e-05,-6.233484759e-04,-6.217381278e-04,6.532537094e-05,-5.564127569e-04,-2.946071634e-04,-8.460507137e-06,-3.030676706e-04,-6.830695051e-04,5.927959654e-05,-6.237899086e-04,-5.955011697e-04,-1.866868510e-04,-7.821880207e-04,-6.357036941e-04,1.117957289e-04,-5.239079652e-04,-8.848731277e-04,6.042730466e-05,-8.244458231e-04,-6.566777718e-04,1.401274245e-05,-6.426650293e-04,-7.421249531e-04,2.891407360e-05,-7.132108795e-04,-7.354666515e-04,1.399227811e-05,-7.214743734e-04,-1.062558008e-03,-2.291787615e-05,-1.085475884e-03,-4.344053954e-04,4.552227515e-05,-3.888831202e-04,-3.107504792e-04,-4.381365245e-05,-3.545641316e-04,-4.489032627e-04,-1.198255254e-05,-4.608858153e-04,-1.303418483e-04,-6.224431332e-05,-1.925861617e-04,-2.534729773e-04,1.298716408e-05,-2.404858133e-04,-7.651106863e-04,1.752735332e-04,-5.898371531e-04,-7.479814470e-04,3.887330743e-05,-7.091081396e-04,-1.094603384e-03,-1.872689487e-05,-1.113330279e-03,-6.899863206e-04,-1.092424875e-04,-7.992288081e-04,-5.855299173e-04,-1.170147647e-04,-7.025446820e-04,-8.504044848e-04,-9.395372886e-06,-8.597998577e-04,-8.147820265e-04,-2.901929130e-05,-8.438013178e-04,-1.050633925e-03,2.631290071e-05,-1.024321024e-03,-9.788140254e-04,-8.196145161e-05,-1.060775477e-03,-9.950750704e-04,2.955086051e-05,-9.655242099e-04,-1.076894258e-03,-6.297517813e-05,-1.139869436e-03,-8.540122038e-04,1.227704221e-04,-7.312417817e-04
-7.1,-3.461674953e-04,7.941013371e-06,-3.382264819e-04,-4.879232424e-04,1.493709647e-06,-4.864295327e-04,-2.949787324e-04,7.658844377e-06,-2.873198880e-04,-4.704630542e-04,-1.349010723e-05,-4.839531614e-04,-6.354823399e-04,6.772351408e-05,-5.677588258e-04,-6.806068856e-04,9.429537946e-05,-5.863115061e-04,-6.857087017e-04,1.111916290e-04,-5.745170727e-04,-8.013024893e-04,1.224128250e-04,-6.788896644e-04,-6.785322587e-04,6.599916583e-05,-6.125330929e-04,-6.020699123e-04,6.927622357e-05,-5.327936887e-04,-2.784043593e-04,-4.533788124e-07,-2.788577381e-04,-6.701238599e-04,6.022946080e-05,-6.098943991e-04,-5.951681823e-04,-1.821289827e-04,-7.772971650e-04,-6.220866216e-04,1.102067968e-04,-5.118798248e-04,-8.648807983e-04,5.757438552e-05,-8.073064128e-04,-6.448860634e-04,1.466101746e-05,-6.302250460e-04,-7.151501214e-04,3.612478593e-05,-6.790253355e-04,-7.336640749e-04,1.341776617e-05,-7.202463087e-04,-1.053341164e-03,-2.464322996e-05,-1.077984394e-03,-4.151377061e-04,4.701540221e-05,-3.681223039e-04,-2.877821254e-04,-3.924694515e-05,-3.270290705e-04,-4.299525719e-04,-9.667091858e-06,-4.396196637e-04,-1.101222669e-04,-5.901690997e-05,-1.691391768e-04,-2.446816680e-04,1.435938181e-05,-2.303222862e-04,-7.616617719e-04,1.798611902e-04,-5.818005817e-04,-7.413133010e-04,3.666472192e-05,-7.046485791e-04,-1.073879070e-03,-1.419531010e-05,-1.088074380e-03,-6.735384317e-04,-1.101833292e-04,-7.837217608e-04,-5.877219415e-04,-1.133417441e-04,-7.010636856e-04,-8.384793110e-04,-9.711753942e-06,-8.481910650e-04,-8.050104484e-04,-2.977724652e-05,-8.347876949e-04,-1.026450591e-03,2.276229101e-05,-1.003688300e-03,-9.938511416e-04,-7.874026483e-05,-1.072591406e-03,-1.012881183e-03,2.922339089e-05,-9.836577918e-04,-1.034844017e-03,-9.047982765e-05,-1.125323845e-03,-8.472856536e-04,1.329580421e-04,-7.143276115e-04
-7,-3.342300604e-04,6.676168947e-06,-3.275538915e-04,-4.633194751e-04,5.299896920e-06,-4.580195782e-04,-2.818753914e-04,9.882487639e-06,-2.719929038e-04,-4.500459883e-04,-8.469816867e-06,-4.585158052e-04,-6.298561034e-04,7.355841688e-05,-5.562976866e-04,-6.618794024e-04,9.469629712e-05,-5.671831053e-04,-6.696069927e-04,1.112380498e-04,-5.583689429e-04,-7.830962478e-04,1.270336028e-04,-6.560626450e-04,-6.696676609e-04,6.912049624e-05,-6.005471646e-04,-5.807993530e-04,7.296982128e-05,-5.078295317e-04,-2.613551426e-04,7.410575568e-06,-2.539445670e-04,-6.563055097e-04,6.100193373e-05,-5.953035760e-04,-5.955626922e-04,-1.762842298e-04,-7.718469220e-04,-6.071568760e-04,1.081775121e-04,-4.989793639e-04,-8.433450770e-04,5.465442552e-05,-7.886906515e-04,-6.332498525e-04,1.495921942e-05,-6.182906331e-04,-6.866174161e-04,4.217847666e-05,-6.444389395e-04,-7.307851443e-04,1.236809094e-05,-7.184170534e-04,-1.041610271e-03,-2.629148182e-05,-1.067901753e-03,-3.947657518e-04,4.837401144e-05,-3.463917404e-04,-2.638933589e-04,-3.479442429e-05,-2.986877832e-04,-4.096987591e-04,-7.368834111e-06,-4.170675932e-04,-8.905012065e-05,-5.570249808e-05,-1.447526187e-04,-2.343051483e-04,1.558866209e-05,-2.187164862e-04,-7.556123198e-04,1.836777582e-04,-5.719345616e-04,-7.321262006e-04,3.407787303e-05,-6.980483275e-04,-1.050899259e-03,-9.953066278e-06,-1.060852325e-03,-6.585196019e-04,-1.087395511e-04,-7.672591529e-04,-5.892930603e-04,-1.094076538e-04,-6.987007141e-04,-8.241219965e-04,-1.024664754e-05,-8.343686441e-04,-7.941301771e-04,-3.053353085e-05,-8.246637080e-04,-9.991369229e-04,1.884667085e-05,-9.802902520e-04,-1.005263766e-03,-7.591979655e-05,-1.081183562e-03,-1.027614533e-03,2.825860710e-05,-9.993559261e-04,-9.905330106e-04,-1.172205512e-04,-1.107753562e-03,-8.378610164e-04,1.426307491e-04,-6.952302673e-04
-6.9,-3.213845197e-04,5.363029538e-06,-3.160214902e-04,-4.380596373e-04,8.993699392e-06,-4.290659379e-04,-2.677202184e-04,1.184713647e-05,-2.558730820e-04,-4.284552711e-04,-3.614406290e-06,-4.320696774e-04,-6.229422812e-04,7.899174427e-05,-5.439505369e-04,-6.412587181e-04,9.481537232e-05,-5.464433458e-04,-6.517147438e-04,1.108885819e-04,-5.408261620e-04,-7.624389966e-04,1.311619620e-04,-6.312770346e-04,-6.593696054e-04,7.201552141e-05,-5.873540840e-04,-5.579360354e-04,7.638778182e-05,-4.815482536e-04,-2.434992729e-04,1.510742460e-05,-2.283918483e-04,-6.415763800e-04,6.161182322e-05,-5.799645568e-04,-5.965956811e-04,-1.691658407e-04,-7.657615218e-04,-5.908891600e-04,1.057048658e-04,-4.851842942e-04,-8.203105139e-04,5.168668081e-05,-7.686238331e-04,-6.216923107e-04,1.493266043e-05,-6.067596502e-04,-6.565109345e-04,4.699273047e-05,-6.095182041e-04,-7.267461671e-04,1.087441798e-05,-7.158717492e-04,-1.027316059e-03,-2.783146789e-05,-1.055147527e-03,-3.732724512e-04,4.959143822e-05,-3.236810130e-04,-2.391078515e-04,-3.045574483e-05,-2.695635963e-04,-3.881449365e-04,-5.092011707e-06,-3.932369482e-04,-6.719325939e-05,-5.230439140e-05,-1.194976508e-04,-2.223788761e-04,1.666574837e-05,-2.057131278e-04,-7.469395786e-04,1.867171482e-04,-5.602224305e-04,-7.203421540e-04,3.112696531e-05,-6.892151887e-04,-1.025569139e-03,-6.013825100e-06,-1.031582964e-03,-6.447123188e-04,-1.049357483e-04,-7.496480671e-04,-5.901033258e-04,-1.052230949e-04,-6.953264207e-04,-8.073118146e-04,-1.096534282e-05,-8.182771574e-04,-7.820651119e-04,-3.125054478e-05,-8.133156566e-04,-9.687209646e-04,1.466576812e-05,-9.540551965e-04,-1.012872337e-03,-7.340073153e-05,-1.086273069e-03,-1.039148650e-03,2.680930409e-05,-1.012339346e-03,-9.443051740e-04,-1.427379435e-04,-1.087043117e-03,-8.255685438e-04,1.516379847e-04,-6.739305591e-04
-6.8,-3.076098898e-04,4.011283277e-06,-3.035986066e-04,-4.121597454e-04,1.255631932e-05,-3.996034260e-04,-2.525127888e-04,1.355768338e-05,-2.389551054e-04,-4.056792727e-04,1.066114377e-06,-4.046131584e-04,-6.146805754e-04,8.401328532e-05,-5.306672901e-04,-6.187023197e-04,9.465403925e-05,-5.240482805e-04,-6.320114274e-04,1.101511014e-04,-5.218603260e-04,-7.392875399e-04,1.347671292e-04,-6.045204108e-04,-6.476069397e-04,7.468282535e-05,-5.729241144e-04,-5.334989405e-04,7.951082966e-05,-4.539881108e-04,-2.248834306e-04,2.261070068e-05,-2.022727299e-04,-6.258980675e-04,6.207082335e-05,-5.638272442e-04,-5.981683995e-04,-1.607945112e-04,-7.589629107e-04,-5.732650257e-04,1.027884086e-04,-4.704766171e-04,-7.958281242e-04,4.868759972e-05,-7.471405244e-04,-6.101358291e-04,1.461418096e-05,-5.955216481e-04,-6.248380373e-04,5.051640538e-05,-5.743216320e-04,-7.214681972e-04,8.975660945e-06,-7.124925363e-04,-1.010420293e-03,-2.923192473e-05,-1.039652217e-03,-3.506505014e-04,5.066063363e-05,-2.999898677e-04,-2.134623151e-04,-2.623146532e-05,-2.396937804e-04,-3.653107722e-04,-2.841936037e-06,-3.681527082e-04,-4.463757421e-05,-4.882859473e-05,-9.346616895e-05,-2.089607132e-04,1.758044083e-05,-1.913802724e-04,-7.356344183e-04,1.889745716e-04,-5.466598468e-04,-7.059024211e-04,2.782670931e-05,-6.780757118e-04,-9.978080770e-04,-2.387686672e-06,-1.000195764e-03,-6.318482383e-04,-9.884423329e-05,-7.306924716e-04,-5.900155579e-04,-1.007971526e-04,-6.908127105e-04,-7.880465704e-04,-1.183476890e-05,-7.998813393e-04,-7.687400081e-04,-3.189459864e-05,-8.006346067e-04,-9.352523903e-04,1.032033885e-05,-9.249320514e-04,-1.016526685e-03,-7.108145349e-05,-1.087608138e-03,-1.047369350e-03,2.503134361e-05,-1.022338006e-03,-8.965066135e-04,-1.665994795e-04,-1.063106093e-03,-8.102669382e-04,1.598357986e-04,-6.504311397e-04
-6.7,-2.928948513e-04,2.630145920e-06,-2.902647054e-04,-3.856412526e-04,1.596956912e-05,-3.696716835e-04,-2.362658055e-04,1.501904962e-05,-2.212467559e-04,-3.817187148e-04,5.561750930e-06,-3.761569639e-04,-6.050174341e-04,8.861363908e-05,-5.164037950e-04,-5.941826825e-04,9.421313202e-05,-4.999695504e-04,-6.104876251e-04,1.090347997e-04,-5.014528255e-04,-7.136152680e-04,1.378207284e-04,-5.757945396e-04,-6.343562867e-04,7.712059209e-05,-5.572356946e-04,-5.075175265e-04,8.231919372e-05,-4.251983328e-04,-2.055623828e-04,2.989186734e-05,-1.756705155e-04,-6.092340440e-04,6.238703487e-05,-5.468470091e-04,-6.001748245e-04,-1.511982077e-04,-7.513730322e-04,-5.542756760e-04,9.943043188e-05,-4.548452441e-04,-7.699600752e-04,4.567509761e-05,-7.242849776e-04,-5.985045484e-04,1.404326236e-05,-5.844612860e-04,-5.916347075e-04,5.273387018e-05,-5.389008373e-04,-7.148783440e-04,6.717148001e-06,-7.081611960e-04,-9.908975512e-04,-3.046203923e-05,-1.021359590e-03,-3.269045073e-04,5.157442936e-05,-2.753300780e-04,-1.870087529e-04,-2.212294112e-05,-2.091316941e-04,-3.412344620e-04,-6.249857690e-07,-3.418594478e-04,-2.148828813e-05,-4.528369799e-05,-6.677198612e-05,-1.941318385e-04,1.832184637e-05,-1.758099921e-04,-7.217024763e-04,1.904468412e-04,-5.312556351e-04,-6.887692179e-04,2.419238847e-05,-6.645768294e-04,-9.675521381e-04,9.197745727e-07,-9.666323635e-04,-6.196162267e-04,-9.058155665e-05,-7.101977833e-04,-5.888972687e-04,-9.613756385e-05,-6.850348326e-04,-7.663427317e-04,-1.282491643e-05,-7.791676481e-04,-7.540822991e-04,-3.243619907e-05,-7.865184982e-04,-8.988028197e-04,5.909769583e-06,-8.928930501e-04,-1.016109467e-03,-6.886061951e-05,-1.084970086e-03,-1.052175167e-03,2.307926435e-05,-1.029095903e-03,-8.474785028e-04,-1.884118378e-04,-1.035890341e-03,-7.918466258e-04,1.670883031e-04,-6.247583226e-04
-6.6,-2.772394202e-04,1.228294312e-06,-2.760111259e-04,-3.585317450e-04,1.921617456e-05,-3.393155705e-04,-2.190073225e-04,1.623643957e-05,-2.027708829e-04,-3.565883926e-04,9.862723967e-06,-3.467256687e-04,-5.939077059e-04,9.278437859e-05,-5.011233273e-04,-5.676894415e-04,9.349298188e-05,-4.741964596e-04,-5.871463209e-04,1.075500276e-04,-4.795962933e-04,-6.854140766e-04,1.402973146e-04,-5.451167620e-04,-6.196032004e-04,7.932664903e-05,-5.402765514e-04,-4.800325634e-04,8.479310002e-05,-3.952394633e-04,-1.855998702e-04,3.692090251e-05,-1.486789677e-04,-5.915520188e-04,6.256476307e-05,-5.289872557e-04,-6.025024372e-04,-1.404134246e-04,-7.429158619e-04,-5.339243744e-04,9.563619890e-05,-4.382881755e-04,-7.427833647e-04,4.267205203e-05,-7.001113127e-04,-5.867269882e-04,1.326517543e-05,-5.734618128e-04,-5.569698760e-04,5.366775006e-05,-5.033021259e-04,-7.069109270e-04,4.149158313e-06,-7.027617687e-04,-9.687367318e-04,-3.149215762e-05,-1.000228889e-03,-3.020528018e-04,5.232577565e-05,-2.497270261e-04,-1.598161373e-04,-1.813220352e-05,-1.779483408e-04,-3.159741574e-04,1.551445116e-06,-3.144227123e-04,2.129829854e-06,-4.168066763e-05,-3.955083778e-05,-1.779969500e-04,1.887867815e-05,-1.591182718e-04,-7.051653951e-04,1.911327651e-04,-5.140326300e-04,-6.689274734e-04,2.024003627e-05,-6.486874371e-04,-9.347563217e-04,3.908259104e-06,-9.308480626e-04,-6.076754330e-04,-8.030307041e-05,-6.879785034e-04,-5.866224049e-04,-9.125093514e-05,-6.778733400e-04,-7.422352494e-04,-1.390946896e-05,-7.561447183e-04,-7.380233304e-04,-3.285077800e-05,-7.708741084e-04,-8.594654479e-04,1.529498665e-06,-8.579359493e-04,-1.011538684e-03,-6.663979451e-05,-1.078178478e-03,-1.053478763e-03,2.110314012e-05,-1.032375623e-03,-7.975479593e-04,-2.078333739e-04,-1.005381333e-03,-7.702332344e-04,1.732703742e-04,-5.969628602e-04
-6.5,-2.606560557e-04,-1.861534143e-07,-2.608422091e-04,-3.308652716e-04,2.228008654e-05,-3.085851851e-04,-2.007819686e-04,1.721565863e-05,-1.835663099e-04,-3.303182744e-04,1.395966400e-05,-3.163586104e-04,-5.813156182e-04,9.651825468e-05,-4.847973636e-04,-5.392309655e-04,9.249355001e-05,-4.467374155e-04,-5.620037249e-04,1.057081873e-04,-4.562955376e-04,-6.546956842e-04,1.421748273e-04,-5.125208569e-04,-6.033428130e-04,8.129851063e-05,-5.220443024e-04,-4.510962993e-04,8.691328870e-05,-3.641830106e-04,-1.650686043e-04,4.366694349e-05,-1.214016608e-04,-5.728256430e-04,6.260458656e-05,-5.102210565e-04,-6.050310240e-04,-1.284873262e-04,-7.335183503e-04,-5.122276194e-04,9.141418545e-05,-4.208134339e-04,-7.143909542e-04,3.970837327e-05,-6.746825809e-04,-5.747377589e-04,1.232995902e-05,-5.624077998e-04,-5.209475847e-04,5.337928790e-05,-4.675682968e-04,-6.975079533e-04,1.325456221e-06,-6.961824971e-04,-9.439415724e-04,-3.229454591e-05,-9.762361183e-04,-2.761284278e-04,5.290793109e-05,-2.232204967e-04,-1.319707351e-04,-1.426181895e-05,-1.462325541e-04,-2.896082485e-04,3.679037188e-06,-2.859292113e-04,2.607393830e-05,-3.803252733e-05,-1.195858903e-05,-1.606834019e-04,1.923961162e-05,-1.414437903e-04,-6.860615554e-04,1.910335737e-04,-4.950279816e-04,-6.463861059e-04,1.598661768e-05,-6.303994882e-04,-8.993959646e-04,6.583077533e-06,-8.928128871e-04,-5.956705729e-04,-6.819615275e-05,-6.638667256e-04,-5.830724165e-04,-8.614293829e-05,-6.692153548e-04,-7.157767045e-04,-1.506563726e-05,-7.308423418e-04,-7.204987277e-04,-3.311961819e-05,-7.536183459e-04,-8.173534572e-04,-2.731572179e-06,-8.200850294e-04,-1.002768845e-03,-6.432567890e-05,-1.067094524e-03,-1.051208315e-03,1.924627822e-05,-1.031962037e-03,-7.470176273e-04,-2.245848012e-04,-9.716024285e-04,-7.453909879e-04,1.782718186e-04,-5.671191693e-04
-6.4,-2.431698676e-04,-1.605625019e-06,-2.447754926e-04,-3.026820422e-04,2.514679148e-05,-2.775352508e-04,-1.816508232e-04,1.796344574e-05,-1.636873774e-04,-3.029536603e-04,1.784377465e-05,-2.851098857e-04,-5.672148841e-04,9.980939344e-05,-4.674054907e-04,-5.088349941e-04,9.121456151e-05,-4.176204326e-04,-5.350894004e-04,1.035216396e-04,-4.315677608e-04,-6.214921076e-04,1.434349049e-04,-4.780572027e-04,-5.855797982e-04,8.303338090e-05,-5.025464173e-04,-4.207718094e-04,8.866148260e-05,-3.321103268e-04,-1.440491394e-04,5.009893574e-05,-9.395020363e-05,-5.530351340e-04,6.250369060e-05,-4.905314433e-04,-6.076300631e-04,-1.154800306e-04,-7.231100937e-04,-4.892147769e-04,8.677628036e-05,-4.024384965e-04,-6.848899566e-04,3.682160311e-05,-6.480683535e-04,-5.624778500e-04,1.129119090e-05,-5.511866591e-04,-4.837063024e-04,5.196608486e-05,-4.317402175e-04,-6.866186243e-04,-1.698086114e-06,-6.883167104e-04,-9.165299779e-04,-3.284408887e-05,-9.493740667e-04,-2.491790781e-04,5.331464691e-05,-1.958644312e-04,-1.035748362e-04,-1.051468125e-05,-1.140895174e-04,-2.622342783e-04,5.748696476e-06,-2.564855819e-04,5.018629513e-05,-3.435395167e-05,1.583234347e-05,-1.423391789e-04,1.939368883e-05,-1.229454901e-04,-6.644458746e-04,1.901533331e-04,-4.742925415e-04,-6.211784046e-04,1.145014282e-05,-6.097282618e-04,-8.614671670e-04,8.955122748e-06,-8.525120442e-04,-5.832471921e-04,-5.447254928e-05,-6.377197413e-04,-5.781365455e-04,-8.081835414e-05,-6.589548996e-04,-6.870358485e-04,-1.627321458e-05,-7.033090631e-04,-7.014481877e-04,-3.323040444e-05,-7.346785921e-04,-7.725969981e-04,-6.793522618e-06,-7.793905207e-04,-9.897905517e-04,-6.183188706e-05,-1.051622439e-03,-1.045308072e-03,1.764299275e-05,-1.027665079e-03,-6.961555659e-04,-2.384562291e-04,-9.346117951e-04,-7.173253819e-04,1.820020060e-04,-5.353233759e-04
-6.3,-2.248179228e-04,-3.023090634e-06,-2.278410135e-04,-2.740274578e-04,2.780358928e-05,-2.462238685e-04,-1.616900957e-04,1.848775809e-05,-1.432023376e-04,-2.745544384e-04,2.150694811e-05,-2.530474903e-04,-5.515880825e-04,1.026534422e-04,-4.489346403e-04,-4.765483401e-04,8.965561542e-05,-3.868927247e-04,-5.064457335e-04,1.010035922e-04,-4.054421413e-04,-5.858553637e-04,1.440630579e-04,-4.417923058e-04,-5.663277424e-04,8.452811336e-05,-4.817996290e-04,-3.891317145e-04,9.002077780e-05,-2.991109367e-04,-1.226278782e-04,5.618625287e-05,-6.644162532e-05,-5.321669636e-04,6.225650223e-05,-4.699104614e-04,-6.101558235e-04,-1.014663093e-04,-7.116221328e-04,-4.649265668e-04,8.173792386e-05,-3.831886430e-04,-6.543976234e-04,3.405633997e-05,-6.203412834e-04,-5.498934340e-04,1.020458073e-05,-5.396888533e-04,-4.454154308e-04,4.955753486e-05,-3.958578959e-04,-6.741978247e-04,-4.864865123e-06,-6.790626899e-04,-8.865323200e-04,-3.311892933e-05,-9.196512493e-04,-2.212661800e-04,5.354036788e-05,-1.677258121e-04,-7.474428358e-05,-6.893715473e-06,-8.163799905e-05,-2.339667618e-04,7.750766772e-06,-2.262159950e-04,7.429845329e-05,-3.066082802e-05,4.363762527e-05,-1.231299407e-04,1.933074359e-05,-1.037991971e-04,-6.403886003e-04,1.884992907e-04,-4.518893095e-04,-5.933613351e-04,6.649664663e-06,-5.867116704e-04,-8.209864781e-04,1.104075011e-05,-8.099457280e-04,-5.700656921e-04,-3.936022826e-05,-6.094259204e-04,-5.717116067e-04,-7.528097065e-05,-6.469925774e-04,-6.560960605e-04,-1.751293348e-05,-6.736089940e-04,-6.808152269e-04,-3.317699325e-05,-7.139922202e-04,-7.253393043e-04,-1.058743606e-05,-7.359267403e-04,-9.726283732e-04,-5.908046725e-05,-1.031708840e-03,-1.035737761e-03,1.641588534e-05,-1.019321876e-03,-6.451865719e-04,-2.493102577e-04,-8.944968295e-04,-6.860840713e-04,1.843933221e-04,-5.016907492e-04
-6.2,-2.056480081e-04,-4.432112608e-06,-2.100801207e-04,-2.449507224e-04,3.023980754e-05,-2.147109148e-04,-1.409892086e-04,1.879797512e-05,-1.221912335e-04,-2.451938238e-04,2.494185196e-05,-2.202519719e-04,-5.344257508e-04,1.050476493e-04,-4.293781015e-04,-4.424359962e-04,8.781625486e-05,-3.546197413e-04,-4.761270464e-04,9.816794991e-05,-3.779590965e-04,-5.478567342e-04,1.440487419e-04,-4.038079923e-04,-5.456082507e-04,8.577916474e-05,-4.598290860e-04,-3.562567180e-04,9.097596512e-05,-2.652807529e-04,-1.008948581e-04,6.189927762e-05,-3.899558046e-05,-5.102132048e-04,6.185558511e-05,-4.483576197e-04,-6.124494666e-04,-8.653610116e-05,-6.989855678e-04,-4.394133030e-04,7.631817478e-05,-3.630951282e-04,-6.230363796e-04,3.146276393e-05,-5.915736156e-04,-5.369334846e-04,9.126283836e-06,-5.278072008e-04,-4.062700429e-04,4.630866105e-05,-3.599613818e-04,-6.602040810e-04,-8.119011277e-06,-6.683230923e-04,-8.539892150e-04,-3.310111990e-05,-8.870903349e-04,-1.924636189e-04,5.358040563e-05,-1.388832133e-04,-4.560566667e-05,-3.401545672e-06,-4.900721234e-05,-2.049345457e-04,9.675251691e-06,-1.952592940e-04,9.823542788e-05,-2.696983913e-05,7.126558875e-05,-1.032356147e-04,1.904182459e-05,-8.419379013e-05,-6.139734764e-04,1.860821115e-04,-4.278913649e-04,-5.630139839e-04,1.605163604e-06,-5.614088203e-04,-7.779902793e-04,1.286183473e-05,-7.651284446e-04,-5.558136715e-04,-2.309523851e-05,-5.789089100e-04,-5.637016759e-04,-6.953363846e-05,-6.332353143e-04,-6.230541200e-04,-1.876460551e-05,-6.418187256e-04,-6.585472791e-04,-3.295854230e-05,-6.915058214e-04,-6.757329882e-04,-1.405671543e-05,-6.897897037e-04,-9.513372100e-04,-5.600342502e-05,-1.007340635e-03,-1.022470952e-03,1.567250654e-05,-1.006798446e-03,-5.942858208e-04,-2.570814980e-04,-8.513673188e-04,-6.517549543e-04,1.854020734e-04,-4.663528809e-04
-6.1,-1.857173988e-04,-5.826953140e-06,-1.915443519e-04,-2.155034945e-04,3.244695108e-05,-1.830565434e-04,-1.196490211e-04,1.890503114e-05,-1.007439899e-04,-2.149571259e-04,2.814203240e-05,-1.868150935e-04,-5.157257303e-04,1.069908982e-04,-4.087348321e-04,-4.065801429e-04,8.569601068e-05,-3.208841323e-04,-4.441987627e-04,9.502913053e-05,-3.491696321e-04,-5.075860387e-04,1.433853787e-04,-3.642006600e-04,-5.234501902e-04,8.678257932e-05,-4.366676109e-04,-3.222344336e-04,9.151380027e-05,-2.307206333e-04,-7.894201458e-05,6.720993792e-05,-1.173207666e-05,-4.871712032e-04,6.129261097e-05,-4.258785922e-04,-6.143368353e-04,-7.079385746e-05,-6.851306928e-04,-4.127337986e-04,7.053968477e-05,-3.421941138e-04,-5.909291071e-04,2.909449829e-05,-5.618346088e-04,-5.235470079e-04,8.110860053e-06,-5.154361478e-04,-3.664852053e-04,4.239312809e-05,-3.240920772e-04,-6.445979447e-04,-1.140680015e-05,-6.560047448e-04,-8.189494687e-04,-3.277734601e-05,-8.517268147e-04,-1.628566351e-04,5.343103283e-05,-1.094256023e-04,-1.629403955e-05,-4.021704134e-08,-1.633425659e-05,-1.752783565e-04,1.151199530e-05,-1.637663612e-04,1.218190012e-04,-2.329807680e-05,9.852092438e-05,-8.284699955e-05,1.851962263e-05,-6.432737692e-05,-5.852959448e-04,1.829160122e-04,-4.023799326e-04,-5.302357406e-04,-3.662592182e-06,-5.338983328e-04,-7.325342372e-04,1.444602868e-05,-7.180882086e-04,-5.402163644e-04,-5.914030433e-06,-5.461303948e-04,-5.540180079e-04,-6.357888299e-05,-6.175968909e-04,-5.880191794e-04,-2.000582478e-05,-6.080250042e-04,-6.345963268e-04,-3.257843454e-05,-6.671747613e-04,-6.239373076e-04,-1.715760883e-05,-6.410949165e-04,-9.259978917e-04,-5.254447316e-05,-9.785423649e-04,-1.005493051e-03,1.550193769e-05,-9.899911136e-04,-5.435761912e-04,-2.617725013e-04,-8.053486925e-04,-6.144614180e-04,1.850065856e-04,-4.294548324e-04
-6,-1.650920719e-04,-7.202693425e-06,-1.722947654e-04,-1.857389922e-04,3.441881135e-05,-1.513201809e-04,-9.778064337e-05,1.882150245e-05,-7.895914092e-05,-1.839409339e-04,3.110206380e-05,-1.528388701e-04,-4.954931235e-04,1.084837295e-04,-3.870093940e-04,-3.690794285e-04,8.329446034e-05,-2.857849682e-04,-4.107369308e-04,9.160186914e-05,-3.191350616e-04,-4.651512501e-04,1.420703685e-04,-3.230808816e-04,-4.998893346e-04,8.753401600e-05,-4.123553186e-04,-2.871587670e-04,9.162323689e-05,-1.955355301e-04,-5.686230898e-05,7.209219898e-05,1.522989000e-05,-4.630439125e-04,6.055920975e-05,-4.024847027e-04,-6.156297588e-04,-5.435732448e-05,-6.699870833e-04,-3.849553461e-04,6.442856743e-05,-3.205267787e-04,-5.581955301e-04,2.700611449e-05,-5.311894156e-04,-5.096809266e-04,7.209076792e-06,-5.024718498e-04,-3.262905834e-04,3.799607850e-05,-2.882945049e-04,-6.273415409e-04,-1.467773470e-05,-6.420192756e-04,-7.814686716e-04,-3.213975098e-05,-8.136084226e-04,-1.325412131e-04,5.308951046e-05,-7.945170265e-05,1.304839727e-05,3.188991076e-06,1.623738835e-05,-1.451488724e-04,1.325083717e-05,-1.318980352e-04,1.448699489e-04,-1.966265264e-05,1.252072963e-04,-6.216261091e-05,1.775893003e-05,-4.440368088e-05,-5.544619334e-04,1.790188429e-04,-3.754430905e-04,-4.951448371e-04,-9.132068142e-06,-5.042769052e-04,-6.846929577e-04,1.582694773e-05,-6.688660100e-04,-5.230442528e-04,1.195293590e-05,-5.110913169e-04,-5.425793482e-04,-5.742015412e-05,-5.999995024e-04,-5.511117290e-04,-2.121158355e-05,-5.723233125e-04,-6.089202339e-04,-3.204319004e-05,-6.409634240e-04,-5.701165899e-04,-1.985910893e-05,-5.899756988e-04,-8.967132324e-04,-4.866063405e-05,-9.453738664e-04,-9.848000511e-04,1.597229714e-05,-9.688277539e-04,-4.931302630e-04,-2.634464969e-04,-7.565767599e-04,-5.743558846e-04,1.832033077e-04,-3.911525769e-04
-5.9,-1.438464710e-04,-8.555306688e-06,-1.524017777e-04,-1.557117263e-04,3.615154598e-05,-1.195601803e-04,-7.550482096e-05,1.856166064e-05,-5.694316033e-05,-1.522527998e-04,3.381773454e-05,-1.184350652e-04,-4.737408765e-04,1.095283684e-04,-3.642125081e-04,-3.300486014e-04,8.061134635e-05,-2.494372550e-04,-3.758281600e-04,8.790103912e-05,-2.879271208e-04,-4.206785041e-04,1.401051329e-04,-2.805733712e-04,-4.749684263e-04,8.802881728e-05,-3.869396090e-04,-2.511298109e-04,9.129564518e-05,-1.598341657e-04,-3.474965722e-05,7.652253204e-05,4.177287483e-05,-4.378408084e-04,5.964763039e-05,-3.781931780e-04,-6.161285565e-04,-3.735612171e-05,-6.534846783e-04,-3.561545337e-04,5.801418467e-05,-2.981403490e-04,-5.249499877e-04,2.525060727e-05,-4.996993805e-04,-4.952792446e-04,6.465990587e-06,-4.888132540e-04,-2.859252365e-04,3.330740745e-05,-2.526178290e-04,-6.083993184e-04,-1.788517987e-05,-6.262844983e-04,-7.416085979e-04,-3.118678851e-05,-7.727953864e-04,-1.016239465e-04,5.255411725e-05,-4.906982927e-05,4.227278528e-05,6.285708229e-06,4.855849351e-05,-1.147052331e-04,1.488181155e-05,-9.982342151e-05,1.672095740e-04,-1.608026357e-05,1.511293105e-04,-4.138571005e-05,1.675714830e-05,-2.462856175e-05,-5.215873734e-04,1.744121339e-04,-3.471752396e-04,-4.578774932e-04,-1.478079267e-05,-4.726582858e-04,-6.345596711e-04,1.704385498e-05,-6.175158161e-04,-5.041170770e-04,3.028538632e-05,-4.738316907e-04,-5.293126534e-04,-5.106339876e-05,-5.803760522e-04,-5.124625828e-04,-2.235450022e-05,-5.348170831e-04,-5.814848364e-04,-3.136125610e-05,-6.128460925e-04,-5.144396708e-04,-2.214237099e-05,-5.365820418e-04,-8.636057589e-04,-4.432263063e-05,-9.079283895e-04,-9.603987934e-04,1.712978457e-05,-9.432690089e-04,-4.429765230e-04,-2.622183769e-04,-7.051949000e-04,-5.316134812e-04,1.800022644e-04,-3.516112168e-04
-5.8,-1.220635823e-04,-9.881657427e-06,-1.319452397e-04,-1.254777492e-04,3.764370550e-05,-8.783404368e-05,-5.295148770e-05,1.814149019e-05,-3.480999750e-05,-1.200111818e-04,3.628623391e-05,-8.372494787e-05,-4.504906831e-04,1.101287539e-04,-3.403619292e-04,-2.896182881e-04,7.764678649e-05,-2.119715017e-04,-3.395697780e-04,8.394152462e-05,-2.556282534e-04,-3.743122384e-04,1.374951889e-04,-2.368170495e-04,-4.487374325e-04,8.826211907e-05,-3.604753135e-04,-2.142539684e-04,9.052504761e-05,-1.237289207e-04,-1.269921756e-05,8.048038510e-05,6.778116754e-05,-4.115790144e-04,5.855128025e-05,-3.530277342e-04,-6.156256831e-04,-1.992975715e-05,-6.355554403e-04,-3.264181878e-04,5.132888801e-05,-2.750892997e-04,-4.913001546e-04,2.387699695e-05,-4.674231577e-04,-4.802833233e-04,5.919659180e-06,-4.743636641e-04,-2.456321259e-04,2.851594854e-05,-2.171161774e-04,-5.877395267e-04,-2.098666588e-05,-6.087261926e-04,-6.994373497e-04,-2.992391725e-05,-7.293612669e-04,-7.022205168e-05,5.182423996e-05,-1.839781172e-05,7.122388379e-05,9.250624641e-06,8.047450843e-05,-8.411355721e-05,1.639544043e-05,-6.771811678e-05,1.886613147e-04,-1.256669724e-05,1.760946175e-04,-2.072122970e-05,1.551482218e-05,-5.206407513e-06,-4.867981789e-04,1.691210942e-04,-3.176770848e-04,-4.185874857e-04,-2.058504865e-05,-4.391725344e-04,-5.822455578e-04,1.814045725e-05,-5.641051005e-04,-4.833051344e-04,4.887540456e-05,-4.344297299e-04,-5.141540909e-04,-4.451854383e-05,-5.586726347e-04,-4.722117030e-04,-2.340538973e-05,-4.956170928e-04,-5.522664577e-04,-3.054160553e-05,-5.828080632e-04,-4.570800907e-04,-2.399951900e-05,-4.810796097e-04,-8.268174001e-04,-3.951356404e-05,-8.663309642e-04,-9.323084348e-04,1.899898127e-05,-9.133094535e-04,-3.931078487e-04,-2.582456121e-04,-6.513534608e-04,-4.864274916e-04,1.754234640e-04,-3.110040276e-04
-5.7,-9.983485636e-05,-1.117942775e-05,-1.110142841e-04,-9.509508878e-05,3.889618068e-05,-5.619890810e-05,-3.025890769e-05,1.757867325e-05,-1.268023444e-05,-8.734518548e-05,3.850630739e-05,-4.883887809e-05,-4.257736985e-04,1.102905583e-04,-3.154831402e-04,-2.479344928e-04,7.440158097e-05,-1.735329118e-04,-3.020698449e-04,7.973816428e-05,-2.223316807e-04,-3.262149909e-04,1.342502209e-04,-1.919647700e-04,-4.212536247e-04,8.822898821e-05,-3.330246365e-04,-1.766438925e-04,8.930837850e-05,-8.733551396e-05,9.192603212e-06,8.394865414e-05,9.314125735e-05,-3.842840750e-04,5.726521959e-05,-3.270188554e-04,-6.139102326e-04,-2.224564086e-06,-6.161347967e-04,-2.958435765e-04,4.440773593e-05,-2.514358406e-04,-4.573457751e-04,2.292802884e-05,-4.344177463e-04,-4.646325218e-04,5.600510235e-06,-4.590320115e-04,-2.056518506e-04,2.380455276e-05,-1.818472979e-04,-5.653358253e-04,-2.394400133e-05,-5.892798266e-04,-6.550298840e-04,-2.836398792e-05,-6.833938719e-04,-3.846301606e-05,5.090051370e-05,1.243749764e-05,9.974098085e-05,1.208565418e-05,1.118266350e-04,-5.354490955e-05,1.778310410e-05,-3.576180545e-05,2.090531902e-04,-9.136293844e-06,1.999168963e-04,-3.722718247e-07,1.403615211e-05,1.366388028e-05,-4.502302050e-04,1.631745697e-04,-2.870556353e-04,-3.774457478e-04,-2.651950636e-05,-4.039652541e-04,-5.278784093e-04,1.916277691e-05,-5.087156324e-04,-4.605289378e-04,6.752850013e-05,-3.930004377e-04,-4.970500559e-04,-3.780061165e-05,-5.348506675e-04,-4.305063412e-04,-2.433417222e-05,-4.548405134e-04,-5.212541166e-04,-2.959229737e-05,-5.508464140e-04,-3.982165299e-04,-2.543172788e-05,-4.236482578e-04,-7.865099015e-04,-3.422685806e-05,-8.207367596e-04,-9.005618314e-04,2.158355331e-05,-8.789782781e-04,-3.434894555e-04,-2.517201953e-04,-5.952096507e-04,-4.390068507e-04,1.694953576e-04,-2.695114931e-04
-5.6,-7.725951067e-05,-1.244698419e-05,-8.970649486e-05,-6.462398464e-05,3.991207544e-05,-2.471190920e-05,-7.571932080e-06,1.689254682e-05,9.320614739e-06,-5.439364071e-05,4.047836649e-05,-1.391527422e-05,-3.996305864e-04,1.100211872e-04,-2.896093991e-04,-2.051573981e-04,7.087757903e-05,-1.342798190e-04,-2.634466634e-04,7.530574869e-05,-1.881409147e-04,-2.765664905e-04,1.303841367e-04,-1.461823538e-04,-3.925811589e-04,8.792455386e-05,-3.046566051e-04,-1.384178988e-04,8.764572569e-05,-5.077217313e-05,3.082892698e-05,8.691411941e-05,1.177430464e-04,-3.559897818e-04,5.578655021e-05,-3.002032316e-04,-6.107724776e-04,1.561028910e-05,-5.951621885e-04,-2.645372996e-04,3.728818124e-05,-2.272491183e-04,-4.231766577e-04,2.243797188e-05,-4.007386858e-04,-4.482644721e-04,5.531164541e-06,-4.427333075e-04,-1.662155727e-04,1.934575785e-05,-1.468698149e-04,-5.411685119e-04,-2.672316641e-05,-5.678916783e-04,-6.084683205e-04,-2.652725891e-05,-6.349955794e-04,-6.483458361e-06,4.978494585e-05,4.330148749e-05,1.276600291e-04,1.479408914e-05,1.424541182e-04,-2.317237771e-05,1.903743079e-05,-4.134946918e-06,2.282213431e-04,-5.801400782e-06,2.224199423e-04,1.946392778e-05,1.232943774e-05,3.179336551e-05,-4.120287388e-04,1.566050124e-04,-2.554237264e-04,-3.346395699e-04,-3.255682308e-05,-3.671963930e-04,-4.716007105e-04,2.015664400e-05,-4.514440665e-04,-4.357564277e-04,8.606365832e-05,-3.496927694e-04,-4.779579474e-04,-3.093033846e-05,-5.088882859e-04,-3.874982897e-04,-2.511092545e-05,-4.126092151e-04,-4.884507045e-04,-2.851924144e-05,-5.169699460e-04,-3.380328406e-04,-2.644684829e-05,-3.644796889e-04,-7.428641982e-04,-2.846484549e-05,-7.713290437e-04,-8.652055829e-04,2.486668921e-05,-8.403388937e-04,-2.940638585e-04,-2.428619659e-04,-5.369258243e-04,-3.895742072e-04,1.622547933e-04,-2.273194139e-04
-5.5,-5.444302706e-05,-1.368321525e-05,-6.812624230e-05,-3.412671449e-05,4.069653706e-05,6.569822573e-06,1.496069989e-05,1.610402339e-05,3.106472328e-05,-2.130334466e-05,4.220455309e-05,2.090120843e-05,-3.721107572e-04,1.093297526e-04,-2.627810046e-04,-1.614593315e-04,6.707803113e-05,-9.438130035e-05,-2.238276405e-04,7.065901832e-05,-1.531686222e-04,-2.255619712e-04,1.259151038e-04,-9.964686742e-05,-3.627900742e-04,8.734410506e-05,-2.754459692e-04,-9.969878141e-05,8.554049920e-05,-1.415828222e-05,5.211402652e-05,8.936780494e-05,1.414818315e-04,-3.267368208e-04,5.411455883e-05,-2.726222620e-04,-6.060075434e-04,3.342685608e-05,-5.725806874e-04,-2.326129231e-04,3.000970697e-05,-2.026032161e-04,-3.888696593e-04,2.243056262e-05,-3.664390967e-04,-4.311147129e-04,5.726531933e-06,-4.253881810e-04,-1.275379973e-04,1.529823343e-05,-1.122397639e-04,-5.152251059e-04,-2.929384320e-05,-5.445189491e-04,-5.598416676e-04,-2.444099140e-05,-5.842826590e-04,2.557287293e-05,4.848097831e-05,7.405385124e-05,1.548169710e-04,1.738073855e-05,1.721977096e-04,6.832662300e-06,2.015266004e-05,2.698532234e-05,2.460143152e-04,-2.571871743e-06,2.434424434e-04,3.860035991e-05,1.040741291e-05,4.900777282e-05,-3.723473476e-04,1.494484885e-04,-2.228988592e-04,-2.903710570e-04,-3.866724075e-05,-3.290382978e-04,-4.135675090e-04,2.116569451e-05,-3.924018145e-04,-4.089966598e-04,1.043116463e-04,-3.046850135e-04,-4.568466186e-04,-2.393424297e-05,-4.807808615e-04,-3.433404812e-04,-2.570683912e-05,-3.690473203e-04,-4.538729080e-04,-2.732523802e-05,-4.811981460e-04,-2.767174298e-04,-2.705693275e-05,-3.037743625e-04,-6.960781476e-04,-2.223808935e-05,-7.183162370e-04,-8.262983878e-04,2.881124106e-05,-7.974871467e-04,-2.447523653e-04,-2.319130076e-04,-4.766653730e-04,-3.383628337e-04,1.537467466e-04,-1.846160871e-04
-5.4,-3.149497921e-05,-1.488738657e-05,-4.638236578e-05,-3.667026033e-06,4.125656583e-05,3.758953980e-05,3.718973033e-05,1.523545014e-05,5.242518047e-05,1.177338927e-05,4.368875618e-05,5.546214546e-05,-3.432709936e-04,1.082270107e-04,-2.350439829e-04,-1.170220652e-04,6.300785682e-05,-5.401420833e-05,-1.833476089e-04,6.581261962e-05,-1.175349893e-04,-1.734098472e-04,1.208655094e-04,-5.254433775e-05,-3.319548509e-04,8.648316149e-05,-2.454716894e-04,-6.061222974e-05,8.299950587e-05,2.238727612e-05,7.295548226e-05,9.130524040e-05,1.642607227e-04,-2.965705164e-04,5.225059600e-05,-2.443199204e-04,-5.994178395e-04,5.108175810e-05,-5.483360814e-04,-2.001878747e-04,2.261340211e-05,-1.775744726e-04,-3.544847545e-04,2.291710119e-05,-3.315676533e-04,-4.131157863e-04,6.194121532e-06,-4.069216647e-04,-8.981167829e-05,1.180463029e-05,-7.800704800e-05,-4.875003786e-04,-3.162855386e-05,-5.191289324e-04,-5.092450684e-04,-2.213858140e-05,-5.313836498e-04,5.755772223e-05,4.699349629e-05,1.045512185e-04,1.810517498e-04,1.985204854e-05,2.009037983e-04,3.630471919e-05,2.112496265e-05,5.742968183e-05,2.622974208e-04,5.453345622e-07,2.628427553e-04,5.686455168e-05,8.287437843e-06,6.515198952e-05,-3.313461895e-04,1.417446914e-04,-1.896014980e-04,-2.448547037e-04,-4.481824081e-05,-2.896729445e-04,-3.539442846e-04,2.223039283e-05,-3.317138918e-04,-3.802910482e-04,1.221115718e-04,-2.581794765e-04,-4.336965903e-04,-1.684412768e-05,-4.505407179e-04,-2.981831895e-04,-2.609524563e-05,-3.242784351e-04,-4.175501774e-04,-2.600920949e-05,-4.435593869e-04,-2.144622374e-04,-2.727577146e-05,-2.417380089e-04,-6.463633794e-04,-1.556424683e-05,-6.619276262e-04,-7.839082673e-04,3.335982973e-05,-7.505484375e-04,-1.954550461e-04,-2.191322235e-04,-4.145872697e-04,-2.856120432e-04,1.440228936e-04,-1.415891496e-04
-5.3,-8.526488250e-06,-1.605904823e-05,-2.458553648e-05,2.669068645e-05,4.160079723e-05,6.829148368e-05,5.896900367e-05,1.431039238e-05,7.327939605e-05,4.468158486e-05,4.493657767e-05,8.961816253e-05,-3.131737980e-04,1.067252614e-04,-2.064485367e-04,-7.203377964e-05,5.867380843e-05,-1.335997122e-05,-1.421468597e-04,6.078102437e-05,-8.136583532e-05,-1.203289672e-04,1.152617624e-04,-5.067204853e-06,-3.001527701e-04,8.533755009e-05,-2.148152200e-04,-2.128516023e-05,8.003294250e-05,5.874778227e-05,9.326643069e-05,9.272662640e-05,1.859930571e-04,-2.655382354e-04,5.019780758e-05,-2.153404279e-04,-5.908145218e-04,6.843869511e-05,-5.223758267e-04,-1.673802351e-04,1.514149847e-05,-1.522387366e-04,-3.200609725e-04,2.389493131e-05,-2.961660411e-04,-3.941960912e-04,6.934577662e-06,-3.872615136e-04,-5.320305446e-05,8.990910337e-06,-4.421214412e-05,-4.579961243e-04,-3.370165156e-05,-4.916977758e-04,-4.567788633e-04,-1.965825224e-05,-4.764371156e-04,8.932118755e-05,4.532879223e-05,1.346499798e-04,2.062123499e-04,2.221618615e-05,2.284285361e-04,6.508829545e-05,2.195269012e-05,8.704098556e-05,2.769565516e-04,3.546416286e-06,2.805029679e-04,7.410241154e-05,5.991523481e-06,8.009393502e-05,-2.891900217e-04,1.335368832e-04,-1.556531385e-04,-1.983142416e-04,-5.097428911e-05,-2.492885307e-04,-2.929047732e-04,2.338786150e-05,-2.695169117e-04,-3.497046342e-04,1.393069737e-04,-2.103976605e-04,-4.085002041e-04,-9.696080610e-06,-4.181962847e-04,-2.521703173e-04,-2.625289258e-05,-2.784232098e-04,-3.795231790e-04,-2.456569331e-05,-4.040888723e-04,-1.514617507e-04,-2.711646494e-05,-1.785782156e-04,-5.939421293e-04,-8.465526260e-06,-6.024076555e-04,-7.381097089e-04,3.843514297e-05,-6.996745659e-04,-1.460521999e-04,-2.047892631e-04,-3.508414630e-04,-2.315622501e-04,1.331397107e-04,-9.842253937e-05
-5.2,1.435229975e-05,-1.719798608e-05,-2.845686326e-06,5.688224096e-05,4.173924245e-05,9.862148341e-05,8.015881539e-05,1.335335741e-05,9.351217280e-05,7.726645151e-05,4.595526465e-05,1.232217162e-04,-2.818858684e-04,1.048382229e-04,-1.770476455e-04,-2.668611080e-05,5.408456178e-05,2.739845098e-05,-1.003692158e-04,5.557844514e-05,-4.479077063e-05,-6.654579651e-05,1.091339059e-04,4.258810937e-05,-2.674623760e-04,8.390351220e-05,-1.835588638e-04,1.815568907e-05,7.665432545e-05,9.481001451e-05,1.129674197e-04,9.363690982e-05,2.066043295e-04,-2.336871380e-04,4.796083557e-05,-1.857263024e-04,-5.800186071e-04,8.537031188e-05,-4.946482953e-04,-1.343061063e-04,7.636899302e-06,-1.266692070e-04,-2.856137804e-04,2.534677107e-05,-2.602670093e-04,-3.742790066e-04,7.942411983e-06,-3.663365946e-04,-1.784967186e-05,6.966424388e-06,-1.088324747e-05,-4.267210347e-04,-3.548850706e-05,-4.622095418e-04,-4.025478661e-04,-1.704142021e-05,-4.195892863e-04,1.207143731e-04,4.349445899e-05,1.642088320e-04,2.301581851e-04,2.448303444e-05,2.546412196e-04,9.304136000e-05,2.263650281e-05,1.156778628e-04,2.899007635e-04,6.430837259e-06,2.963316007e-04,9.018120603e-05,3.546172764e-06,9.372737879e-05,-2.460462230e-04,1.248716832e-04,-1.211745398e-04,-1.509791662e-04,-5.709669888e-05,-2.080758651e-04,-2.306288450e-04,2.467199856e-05,-2.059568464e-04,-3.173189557e-04,1.557429427e-04,-1.615760131e-04,-3.812620668e-04,-2.529099652e-06,-3.837911665e-04,-2.054368302e-04,-2.616105207e-05,-2.315978822e-04,-3.398421631e-04,-2.298482344e-05,-3.628269865e-04,-8.791258545e-05,-2.658915596e-05,-1.145017414e-04,-5.390444575e-04,-9.650437076e-07,-5.400095012e-04,-6.889822021e-04,4.394102845e-05,-6.450411737e-04,-9.640917482e-05,-1.891581391e-04,-2.855673139e-04,-1.764513427e-04,1.211574015e-04,-5.529394120e-05
-5.1,3.703427886e-05,-1.830417314e-05,1.873010572e-05,8.684428086e-05,4.168300151e-05,1.285272824e-04,1.006284483e-04,1.238949232e-05,1.130179406e-04,1.093757823e-04,4.675364238e-05,1.561294247e-04,-2.494771137e-04,1.025809114e-04,-1.468962024e-04,1.882832399e-05,4.925076984e-05,6.807909383e-05,-5.816047094e-05,5.021877053e-05,-7.941700403e-06,-1.229192868e-05,1.025150766e-04,9.022314793e-05,-2.339623476e-04,8.217784285e-05,-1.517845048e-04,5.758460693e-05,7.288036525e-05,1.304649722e-04,1.319874720e-04,9.404577179e-05,2.260332438e-04,-2.010629489e-04,4.554556502e-05,-1.555173839e-04,-5.668623264e-04,1.017594241e-04,-4.651029022e-04,-1.010780881e-04,1.427137136e-07,-1.009353744e-04,-2.511352220e-04,2.724101751e-05,-2.238942045e-04,-3.532828733e-04,9.206807024e-06,-3.440760663e-04,1.614170898e-05,5.824007428e-06,2.196571640e-05,-3.936911100e-04,-3.696499812e-05,-4.306561081e-04,-3.466614389e-04,-1.433089640e-05,-3.609923353e-04,1.515914489e-04,4.149920046e-05,1.930906494e-04,2.527623367e-04,2.666404531e-05,2.794263820e-04,1.200377378e-04,2.317935531e-05,1.432170931e-04,3.010633078e-04,9.201297831e-06,3.102646057e-04,1.049914153e-04,9.820329824e-07,1.059734483e-04,-2.020832117e-04,1.157986771e-04,-8.628453453e-05,-1.030815007e-04,-6.314364623e-05,-1.662251470e-04,-1.673009001e-04,2.611357442e-05,-1.411873257e-04,-2.832266005e-04,1.712649970e-04,-1.119616035e-04,-3.520002250e-04,4.616605427e-06,-3.473836196e-04,-1.581081891e-04,-2.580594073e-05,-1.839141298e-04,-2.985657933e-04,-2.125283270e-05,-3.198186260e-04,-2.401395639e-05,-2.569915027e-05,-4.971310667e-05,-4.819063364e-04,6.916993792e-06,-4.749893426e-04,-6.366116079e-04,4.976533459e-05,-5.868462733e-04,-4.638399329e-05,-1.725120580e-04,-2.188960513e-04,-1.205135319e-04,1.081403343e-04,-1.237319756e-05
-5,5.941675279e-05,-1.937767644e-05,4.003907636e-05,1.165144652e-04,4.144398763e-05,1.579584528e-04,1.202576992e-04,1.144427758e-05,1.317019768e-04,1.408616920e-04,4.734206539e-05,1.882037574e-04,-2.160203822e-04,9.996954150e-05,-1.160508407e-04,6.431776383e-05,4.418508877e-05,1.085028526e-04,-1.566736080e-05,4.471553196e-05,2.904817116e-05,4.219786510e-05,9.544085883e-05,1.376387239e-04,-1.997309158e-04,8.015805119e-05,-1.195728646e-04,9.687713294e-05,6.873079282e-05,1.656079258e-04,1.502643036e-04,9.396753251e-05,2.442318361e-04,-1.677100532e-04,4.295897251e-05,-1.247510807e-04,-5.511911158e-04,1.174995951e-04,-4.336915207e-04,-6.780486538e-05,-7.298201888e-06,-7.510306727e-05,-2.165967784e-04,2.953263074e-05,-1.870641477e-04,-3.311221016e-04,1.071232739e-05,-3.204097742e-04,4.869582830e-05,5.639922340e-06,5.433575064e-05,-3.589308270e-04,-3.810725179e-05,-3.970380788e-04,-2.892347907e-04,-1.156908725e-05,-3.008038779e-04,1.818109973e-04,3.935261237e-05,2.211636097e-04,2.739126644e-04,2.877195827e-05,3.026846226e-04,1.459683586e-04,2.358638313e-05,1.695547418e-04,3.104013797e-04,1.186360268e-05,3.222649824e-04,1.184475121e-04,-1.666633048e-06,1.167808790e-04,-1.574695167e-04,1.063698736e-04,-5.109964312e-05,-5.485327551e-05,-6.907028284e-05,-1.239235583e-04,-1.031091493e-04,2.774020908e-05,-7.536894022e-05,-2.475268671e-04,1.857198098e-04,-6.180705723e-05,-3.207480697e-04,1.170155838e-05,-3.090465113e-04,-1.103014638e-04,-2.517851413e-05,-1.354799779e-04,-2.557608489e-04,-1.935285949e-05,-2.751137084e-04,4.003134626e-05,-2.444584836e-05,1.558549790e-05,-4.227691167e-04,1.516667779e-05,-4.076024389e-04,-5.810946861e-04,5.578488003e-05,-5.253098061e-04,4.164368669e-06,-1.551208875e-04,-1.509565189e-04,-6.398087388e-05,9.415895714e-05,3.017808326e-05
-4.9,8.140225259e-05,-2.041850736e-05,6.098374523e-05,1.458313243e-04,4.103469050e-05,1.868660148e-04,1.389377331e-04,1.054321697e-05,1.494809501e-04,1.715818808e-04,4.773237025e-05,2.193142511e-04,-1.815916759e-04,9.702144716e-05,-8.457022869e-05,1.095926800e-04,3.890216521e-05,1.484948452e-04,2.696304408e-05,3.908191453e-05,6.604495861e-05,9.668716366e-05,8.794857371e-05,1.846357374e-04,-1.648457029e-04,7.784253316e-05,-8.700316974e-05,1.359098709e-04,6.422815090e-05,2.001380218e-04,1.677440307e-04,9.342098833e-05,2.611650190e-04,-1.336726009e-04,4.020909080e-05,-9.346351015e-05,-5.328662327e-04,1.324951866e-04,-4.003710462e-04,-3.459135974e-05,-1.464368565e-05,-4.923504539e-05,-1.819537458e-04,3.216418500e-05,-1.497895608e-04,-3.077091298e-04,1.243941099e-05,-2.952697188e-04,7.976848810e-05,6.473647547e-06,8.624213565e-05,-3.224747128e-04,-3.889174663e-05,-3.613664594e-04,-2.303912462e-04,-8.796314852e-06,-2.391875610e-04,2.112368445e-04,3.706501040e-05,2.483018549e-04,2.935122965e-04,3.082045549e-05,3.243327520e-04,1.707416789e-04,2.386475135e-05,1.946064302e-04,3.178952208e-04,1.442645421e-05,3.323216750e-04,1.304879360e-04,-4.362635808e-06,1.261253002e-04,-1.123734263e-04,9.663904988e-05,-1.573437646e-05,-6.524828595e-06,-7.482881582e-05,-8.135364441e-05,-3.824561831e-05,2.957618326e-05,-8.669435053e-06,-2.103220285e-04,1.989576223e-04,-1.136440624e-05,-2.875563462e-04,1.868891993e-05,-2.688674262e-04,-6.212709338e-05,-2.427407374e-05,-8.640116712e-05,-2.115026656e-04,-1.726585343e-05,-2.287685190e-04,1.040163520e-04,-2.282291510e-05,8.119343686e-05,-3.618800132e-04,2.377900471e-05,-3.381010085e-04,-5.225455624e-04,6.187192996e-05,-4.606736325e-04,5.536892251e-05,-1.372513409e-04,-8.188241843e-05,-7.086666543e-06,7.929288332e-05,7.220621677e-05
-4.8,1.028991681e-04,-2.142643961e-05,8.147272847e-05,1.747340450e-04,4.046797923e-05,2.152020242e-04,1.565718065e-04,9.711520479e-06,1.662833269e-04,2.014007993e-04,4.793780569e-05,2.493386050e-04,-1.462704274e-04,9.375500692e-05,-5.251542048e-05,1.544670121e-04,3.341857509e-05,1.878855872e-04,6.958380137e-05,3.333081712e-05,1.029146185e-04,1.509392790e-04,8.007656717e-05,2.310158461e-04,-1.293837388e-04,7.523075023e-05,-5.415298859e-05,1.745602112e-04,5.939756666e-05,2.339577779e-04,1.843807862e-04,9.242919784e-05,2.768099840e-04,-9.899599266e-05,3.730507524e-05,-6.169091742e-05,-5.117674055e-04,1.466608345e-04,-3.651065710e-04,-1.538823527e-06,-2.185267537e-05,-2.339149890e-05,-1.471495731e-04,3.506688971e-05,-1.120826834e-04,-2.829566990e-04,1.436459472e-05,-2.685921043e-04,1.093458902e-04,8.366986878e-06,1.177128770e-04,-2.843686491e-04,-3.929593275e-05,-3.236645819e-04,-1.702646649e-04,-6.049324382e-06,-1.763139893e-04,2.397387233e-04,3.464731897e-05,2.743860423e-04,3.114800451e-04,3.282381754e-05,3.443038626e-04,1.942836586e-04,2.402347646e-05,2.183071350e-04,3.235470186e-04,1.690117632e-05,3.404481949e-04,1.410745365e-04,-7.066674837e-06,1.340078616e-04,-6.696290978e-05,8.666103235e-05,1.969812257e-05,4.167637546e-05,-8.036853634e-05,-3.869216089e-05,2.709358929e-05,3.164212846e-05,5.873571775e-05,-1.717141436e-04,2.108359550e-04,3.912181143e-05,-2.524945932e-04,2.554597991e-05,-2.269486133e-04,-1.369077556e-05,-2.309174689e-05,-3.678252245e-05,-1.658758340e-04,-1.497147409e-05,-1.808473081e-04,1.677302193e-04,-2.081963308e-05,1.469105862e-04,-2.994925682e-04,3.275933963e-05,-2.667332286e-04,-4.611020572e-04,6.790086669e-05,-3.932011906e-04,1.073488916e-04,-1.191681803e-04,-1.181928869e-05,4.993091655e-05,6.363446151e-05,1.135653781e-04
-4.7,1.238224377e-04,-2.240082171e-05,1.014216160e-04,2.031623858e-04,3.975693709e-05,2.429193229e-04,1.730761196e-04,8.973785863e-06,1.820499054e-04,2.301909271e-04,4.797294057e-05,2.781638676e-04,-1.101395745e-04,9.018956881e-05,-1.995000568e-05,1.987594606e-04,2.775272110e-05,2.265121817e-04,1.120486362e-04,2.747494786e-05,1.395235840e-04,2.047186834e-04,7.186360187e-05,2.765822852e-04,-9.342148688e-05,7.232340229e-05,-2.109808458e-05,2.127061580e-04,5.426650859e-05,2.669726666e-04,2.001364198e-04,9.101921248e-05,2.911556323e-04,-6.372830006e-05,3.425735223e-05,-2.947094783e-05,-4.877949167e-04,1.599202307e-04,-3.278746860e-04,3.125537368e-05,-2.888556672e-05,2.369806957e-06,-1.121190346e-04,3.816142522e-05,-7.395760935e-05,-2.567800322e-04,1.646050027e-05,-2.403195319e-04,1.374448804e-04,1.134172441e-05,1.487866048e-04,-2.446705138e-04,-3.929925312e-05,-2.839697669e-04,-1.090011930e-04,-3.360060227e-06,-1.123612533e-04,2.671930128e-04,3.211097321e-05,2.993039860e-04,3.277509336e-04,3.479660133e-05,3.625475349e-04,2.165374984e-04,2.407319164e-05,2.406106901e-04,3.273796261e-04,1.930136199e-05,3.466809881e-04,1.501916223e-04,-9.738230695e-06,1.404533916e-04,-2.140556812e-05,7.649096837e-05,5.508540024e-05,8.952681130e-05,-8.563595619e-05,3.890855114e-06,9.270804262e-05,3.395471570e-05,1.266627583e-04,-1.318026744e-04,2.212239273e-04,8.942125289e-05,-2.156518168e-04,3.224512593e-05,-1.834066909e-04,3.490444483e-05,-2.163358390e-05,1.327086093e-05,-1.189748687e-04,-1.244890947e-05,-1.314237781e-04,2.309592625e-04,-1.842284746e-05,2.125364150e-04,-2.358664050e-04,4.212342958e-05,-1.937429755e-04,-3.969299747e-04,7.375344930e-05,-3.231765254e-04,1.602035262e-04,-1.011336563e-04,5.906986988e-05,1.068264361e-04,4.729205977e-05,1.541184959e-04
-4.6,1.440942941e-04,-2.334038888e-05,1.207539053e-04,2.310567564e-04,3.891472879e-05,2.699714852e-04,1.883807065e-04,8.353679791e-06,1.967343863e-04,2.578341433e-04,4.785356850e-05,3.056877118e-04,-7.328542868e-05,8.634536719e-05,1.305993851e-05,2.422948205e-04,2.192470395e-05,2.642195244e-04,1.542126170e-04,2.152692616e-05,1.757395431e-04,2.577924798e-04,6.334845942e-05,3.211409392e-04,-5.703483031e-05,6.912257548e-05,1.208774517e-05,2.502262999e-04,4.886451418e-05,2.990908141e-04,2.149802446e-04,8.922172794e-05,3.042019726e-04,-2.792144125e-05,3.107779797e-05,3.156356721e-06,-4.608712222e-04,1.722044949e-04,-2.886667273e-04,6.369822069e-05,-3.570453739e-05,2.799368329e-05,-7.679003736e-05,4.135858873e-05,-3.543144863e-05,-2.290986827e-04,1.869562687e-05,-2.104030558e-04,1.641143875e-04,1.539568352e-05,1.795100710e-04,-2.034501928e-04,-3.888423991e-05,-2.423344327e-04,-4.675995456e-05,-7.548488252e-07,-4.751480338e-05,2.934836215e-04,2.946781472e-05,3.229514362e-04,3.422767599e-04,3.675334299e-05,3.790301029e-04,2.374632215e-04,2.402584934e-05,2.614890708e-04,3.294350047e-04,2.164245130e-05,3.510774560e-04,1.578446976e-04,-1.233646821e-05,1.455082294e-04,2.413147223e-05,6.618364254e-05,9.031511477e-05,1.368080698e-04,-9.057520910e-05,4.623286072e-05,1.583927987e-04,3.652634043e-05,1.949191392e-04,-9.068291971e-05,2.300061797e-04,1.393232600e-04,-1.771365255e-04,3.876440472e-05,-1.383721208e-04,8.355608401e-05,-1.990345135e-05,6.365263266e-05,-7.090479726e-05,-9.677599511e-06,-8.058239677e-05,2.934882036e-04,-1.561888312e-05,2.778693205e-04,-1.712659767e-04,5.189551599e-05,-1.193704607e-04,-3.302245150e-04,7.932154252e-05,-2.509029724e-04,2.140041788e-04,-8.340328789e-05,1.306008909e-04,1.633463151e-04,3.039294695e-05,1.937392620e-04
-4.5,1.636449994e-04,-2.424307529e-05,1.394019241e-04,2.583584447e-04,3.795449943e-05,2.963129442e-04,2.024302501e-04,7.873605550e-06,2.103038556e-04,2.842231420e-04,4.759660657e-05,3.318197486e-04,-3.579739825e-05,8.224341105e-05,4.644601280e-05,2.849052863e-04,1.595617762e-05,3.008614639e-04,1.959329586e-04,1.549936452e-05,2.114323232e-04,3.099318652e-04,5.456977396e-05,3.645016392e-04,-2.029898969e-05,6.563185482e-05,4.533286514e-05,2.869999374e-04,4.322287292e-05,3.302228103e-04,2.288888036e-04,8.707064243e-05,3.159594460e-04,8.368029897e-06,2.777988669e-05,3.614791658e-05,-4.309424301e-04,1.834506991e-04,-2.474917309e-04,9.570180515e-05,-4.227385820e-05,5.342794695e-05,-4.108468122e-05,4.456019521e-05,3.475513981e-06,-1.998379480e-04,2.103410938e-05,-1.788038386e-04,1.894374995e-04,2.049777831e-05,2.099352778e-04,-1.607890966e-04,-3.803745972e-05,-1.988265564e-04,1.628733884e-05,1.745919784e-06,1.803325862e-05,3.185030273e-04,2.673001598e-05,3.452330432e-04,3.550266695e-04,3.870829293e-05,3.937349624e-04,2.570372239e-04,2.389440536e-05,2.809316292e-04,3.297724707e-04,2.394126269e-05,3.537137334e-04,1.640590207e-04,-1.482109616e-05,1.492379245e-04,6.948178922e-05,5.579286651e-05,1.252746557e-04,1.833082214e-04,-9.512870225e-05,8.817951916e-05,2.239384413e-04,3.936465779e-05,2.633030991e-04,-4.844499530e-05,2.370853849e-04,1.886403896e-04,-1.370761632e-04,4.508770117e-05,-9.198846206e-05,1.321606318e-04,-1.790631208e-05,1.142543198e-04,-2.178156880e-05,-6.637945291e-06,-2.841951409e-05,3.551015467e-04,-1.239526527e-05,3.427062814e-04,-1.059579821e-04,6.210419214e-05,-4.385378995e-05,-2.612091493e-04,8.450740168e-05,-1.767017476e-04,2.687856001e-04,-6.621867908e-05,2.025669211e-04,2.192292726e-04,1.308559340e-05,2.323148660e-04
-4.4,1.824135884e-04,-2.510585090e-05,1.573077375e-04,2.850100154e-04,3.688928675e-05,3.218993021e-04,2.151848266e-04,7.554347314e-06,2.227391739e-04,3.092629164e-04,4.721995937e-05,3.564828758e-04,2.232422622e-06,7.790532247e-05,8.013774509e-05,3.264317163e-04,9.870198679e-06,3.363019150e-04,2.370699442e-04,9.404923363e-06,2.464748675e-04,3.609136045e-04,4.556601740e-05,4.064796219e-04,1.671165970e-05,6.185641323e-05,7.856807293e-05,3.229073868e-04,3.737426965e-05,3.602816564e-04,2.418456922e-04,8.460254158e-05,3.264482338e-04,4.507863748e-05,2.437880064e-05,6.945743811e-05,-3.979793585e-04,1.936009367e-04,-2.043784217e-04,1.271843678e-04,-4.856019199e-05,7.862417576e-05,-4.920593817e-06,4.766094115e-05,4.274034733e-05,-1.689299790e-04,2.343577642e-05,-1.454942026e-04,2.135332875e-04,2.658299315e-05,2.401162806e-04,-1.167792383e-04,-3.675029045e-05,-1.535295287e-04,7.995770381e-05,4.127675760e-06,8.408537957e-05,3.421534768e-04,2.391004858e-05,3.660635254e-04,3.659877779e-04,4.067517807e-05,4.066629560e-04,2.752518929e-04,2.369253053e-05,2.989444234e-04,3.284668612e-04,2.621549321e-05,3.546823545e-04,1.688781188e-04,-1.715315586e-05,1.517249630e-04,1.144801403e-04,4.537094254e-05,1.598510828e-04,2.288234005e-04,-9.923789016e-05,1.295855103e-04,2.891316564e-04,4.247186922e-05,3.316035257e-04,-5.173396372e-06,2.423829956e-04,2.372095992e-04,-9.561585992e-05,5.120445840e-05,-4.441140152e-05,1.806125648e-04,-1.564811041e-05,1.649644544e-04,2.826788812e-05,-3.312150076e-06,2.495573804e-05,4.155853688e-04,-8.742520118e-06,4.068428487e-04,-4.020744867e-05,7.277645400e-05,3.256900533e-05,-1.901328053e-04,8.922252872e-05,-1.009102766e-04,3.245387331e-04,-4.979992427e-05,2.747388089e-04,2.742085267e-04,-4.459877200e-06,2.697486495e-04
-4.3,2.003486145e-04,-2.592461520e-05,1.744239993e-04,3.109558760e-04,3.573192227e-05,3.466877983e-04,2.266205105e-04,7.414702973e-06,2.340352134e-04,3.328722615e-04,4.674233321e-05,3.796145947e-04,4.070972436e-05,7.335312957e-05,1.140628539e-04,3.667248318e-04,3.691079810e-06,3.704159116e-04,2.774879083e-04,3.256354333e-06,2.807442627e-04,4.105215255e-04,3.637554962e-05,4.468970751e-04,5.392383381e-05,5.780309118e-05,1.117269250e-04,3.578304187e-04,3.135241822e-05,3.891828369e-04,2.538414051e-04,8.185614908e-05,3.356975542e-04,8.214415765e-05,2.089147104e-05,1.030356287e-04,-3.619776869e-04,2.026021124e-04,-1.593755745e-04,1.580714971e-04,-5.453285537e-05,1.035386418e-04,3.178635254e-05,5.055168029e-05,8.233803283e-05,-1.363148669e-04,2.585674558e-05,-1.104581213e-04,2.365573108e-04,3.354850841e-05,2.701058192e-04,-7.152203260e-05,-3.501959488e-05,-1.065416275e-04,1.440587726e-04,6.381281601e-06,1.504400542e-04,3.643482688e-04,2.102064409e-05,3.853689129e-04,3.751657276e-04,4.266695395e-05,4.178326815e-04,2.921152102e-04,2.343434685e-05,3.155495570e-04,3.256065810e-04,2.848318826e-05,3.540897693e-04,1.723622875e-04,-1.929572612e-05,1.530665613e-04,1.589632365e-04,3.496817579e-05,1.939314123e-04,2.731595613e-04,-1.028440982e-04,1.703154631e-04,3.537566174e-04,4.584373813e-05,3.996003555e-04,3.905220130e-05,2.458389071e-04,2.848911084e-04,-5.291649996e-05,5.710898639e-05,4.192486424e-06,2.288035393e-04,-1.313592309e-05,2.156676163e-04,7.910605205e-05,3.146332574e-07,7.942068530e-05,4.747295763e-04,-4.656291424e-06,4.700732849e-04,2.572657333e-05,8.393122631e-05,1.096577996e-04,-1.172662751e-04,9.338619811e-05,-2.388007703e-05,3.812061341e-04,-3.433954708e-05,3.468665870e-04,3.280161625e-04,-2.205434190e-05,3.059618206e-04
-4.2,2.174087641e-04,-2.669415481e-05,1.907146092e-04,3.361429187e-04,3.449491960e-05,3.706378383e-04,2.367296560e-04,7.471131723e-06,2.442007878e-04,3.549851267e-04,4.618302224e-05,4.011681489e-04,7.953836007e-05,6.860904624e-05,1.481474063e-04,4.056462696e-04,-2.555755923e-06,4.030905137e-04,3.170561771e-04,-2.933449647e-06,3.141227274e-04,4.585479678e-04,2.703670963e-05,4.855846774e-04,9.126556761e-05,5.348045821e-05,1.447460258e-04,3.916527586e-04,2.519171691e-05,4.168444755e-04,2.648731364e-04,7.887177083e-05,3.437449072e-04,1.194941241e-04,1.733641049e-05,1.368305345e-04,-3.229572956e-04,2.104065100e-04,-1.125507855e-04,1.882971408e-04,-6.016401943e-05,1.281331214e-04,6.911733655e-05,5.312397715e-05,1.222413137e-04,-1.019418767e-04,2.825047595e-05,-7.369140077e-05,2.586998341e-04,4.125211154e-05,2.999519457e-04,-2.512716051e-05,-3.284824701e-05,-5.797540752e-05,2.083907091e-04,8.502485494e-06,2.168931946e-04,3.850129767e-04,1.807468359e-05,4.030876603e-04,3.825849659e-04,4.469550380e-05,4.272804697e-04,3.076501764e-04,2.313415200e-05,3.307843284e-04,3.212914829e-04,3.076219415e-05,3.520536771e-04,1.745870345e-04,-2.121452820e-05,1.533725063e-04,2.027706967e-04,2.463242214e-05,2.274031189e-04,3.161342500e-04,-1.058894361e-04,2.102448139e-04,4.175973314e-04,4.946835983e-05,4.670656912e-04,8.415423260e-05,2.474111277e-04,3.315653603e-04,-9.152243453e-06,6.279952008e-05,5.364727663e-05,2.766214113e-04,-1.037802379e-05,2.662433875e-04,1.305856641e-04,4.252746524e-06,1.348384107e-04,5.323300983e-04,-1.395119642e-07,5.321905863e-04,9.159397112e-05,9.557393262e-05,1.871679037e-04,-4.289865597e-05,9.692423399e-05,5.402557802e-05,4.386793670e-04,-1.999806935e-05,4.186812977e-04,3.803889690e-04,-3.949525940e-05,3.408937096e-04
-4.1,2.335632099e-04,-2.740814142e-05,2.061550685e-04,3.605211412e-04,3.319037665e-05,3.937115178e-04,2.455207799e-04,7.737440720e-06,2.532582206e-04,3.755516880e-04,4.556170291e-05,4.211133909e-04,1.186205730e-04,6.369527750e-05,1.823158505e-04,4.430694381e-04,-8.843939722e-06,4.342254984e-04,3.556498970e-04,-9.151394263e-06,3.464985028e-04,5.047951296e-04,1.758794830e-05,5.223830779e-04,1.286663901e-04,4.889883566e-05,1.775652258e-04,4.242606489e-04,1.892694259e-05,4.431875915e-04,2.749445477e-04,7.569074491e-05,3.506352926e-04,1.570545793e-04,1.373322168e-05,1.707878009e-04,-2.809612690e-04,2.169729521e-04,-6.398831693e-05,2.178042807e-04,-6.542885963e-05,1.523754211e-04,1.071445291e-04,5.527518905e-05,1.624197182e-04,-6.577081730e-05,3.056908083e-05,-3.520173647e-05,2.801812519e-04,4.951345274e-05,3.296947047e-04,2.228824269e-05,-3.024534854e-05,-7.957105848e-06,2.727478075e-04,1.049120171e-05,2.832390092e-04,4.040864906e-04,1.508502340e-05,4.191715140e-04,3.882886466e-04,4.677129139e-05,4.350599380e-04,3.218939847e-04,2.280611939e-05,3.447001041e-04,3.156307022e-04,3.306963392e-05,3.487003361e-04,1.756414569e-04,-2.287841323e-05,1.527630437e-04,2.457460117e-04,1.440869553e-05,2.601547072e-04,3.575782959e-04,-1.083178843e-04,2.492604116e-04,4.804408866e-04,5.332488091e-05,5.337657675e-04,1.300531198e-04,2.470760025e-04,3.771291223e-04,3.549228458e-05,6.827717304e-05,1.037694576e-04,3.239491670e-04,-7.383864141e-06,3.165653028e-04,1.825509989e-04,8.506178275e-06,1.910571772e-04,5.881903848e-04,4.795963624e-06,5.929863485e-04,1.571539797e-04,1.076931588e-04,2.648471385e-04,3.266581655e-05,9.976808632e-05,1.324339029e-04,4.967973752e-04,-6.900429651e-06,4.898969455e-04,4.310746480e-04,-5.657403861e-05,3.745006094e-04
-4,2.487916938e-04,-2.805914489e-05,2.207325489e-04,3.840442356e-04,3.182992186e-05,4.158741574e-04,2.530181182e-04,8.224528643e-06,2.612426468e-04,3.945391312e-04,4.489825267e-05,4.394373839e-04,1.578571682e-04,5.863387873e-05,2.164910469e-04,4.788801799e-04,-1.514634571e-05,4.637338342e-04,3.931507621e-04,-1.538411977e-05,3.777666423e-04,5.490763228e-04,8.067985742e-06,5.571443086e-04,1.660574639e-04,4.407028559e-05,2.101277495e-04,4.555435412e-04,1.259300225e-05,4.681365435e-04,2.840655502e-04,7.235491775e-05,3.564204680e-04,1.947489740e-04,1.010183989e-05,2.048508139e-04,-2.360546979e-04,2.222679822e-04,-1.378671569e-05,2.465453247e-04,-7.030569017e-05,1.762396345e-04,1.459252211e-04,5.691307390e-05,2.028382950e-04,-2.777349411e-05,3.276479679e-05,4.991302681e-06,3.012446888e-04,5.811828699e-05,3.593629758e-04,7.060013742e-05,-2.722608603e-05,4.337405139e-05,3.369199092e-04,1.235053900e-05,3.492704482e-04,4.215217879e-04,1.206433297e-05,4.335861209e-04,3.923381352e-04,4.890303695e-05,4.412411722e-04,3.348969274e-04,2.246400371e-05,3.573609311e-04,3.087405609e-04,3.542144500e-05,3.441620059e-04,1.756265436e-04,-2.425973303e-05,1.513668106e-04,2.877374597e-04,4.338847317e-06,2.920763070e-04,3.973374407e-04,-1.100765785e-04,2.872608622e-04,5.420811794e-04,5.738253204e-05,5.994637114e-04,1.766635895e-04,2.448286817e-04,4.214922712e-04,8.082484899e-05,7.354491954e-05,1.543697685e-04,3.706641109e-04,-4.164198768e-06,3.664999122e-04,2.348394157e-04,1.307073864e-05,2.479101543e-04,6.421220590e-04,1.012862788e-05,6.522506869e-04,2.221735801e-04,1.202591264e-04,3.424327066e-04,1.091106629e-04,1.018542045e-04,2.109648674e-04,5.553457936e-04,4.867055934e-06,5.602128495e-04,4.798378294e-04,-7.308398589e-05,4.067538435e-04
-3.9,2.630843684e-04,-2.863865505e-05,2.344457134e-04,4.066701618e-04,3.042471160e-05,4.370948734e-04,2.592609079e-04,8.940200894e-06,2.682011088e-04,4.119321466e-04,4.421258428e-05,4.561447308e-04,1.971477300e-04,5.344668125e-05,2.505944113e-04,5.129771999e-04,-2.143526874e-05,4.915419311e-04,4.294476460e-04,-2.161793233e-05,4.078297136e-04,5.912171639e-04,-1.484031779e-06,5.897331321e-04,2.033716880e-04,3.900860148e-05,2.423802895e-04,4.853949446e-04,6.224771238e-06,4.916197159e-04,2.922520446e-04,6.890618152e-05,3.611582262e-04,2.324990584e-04,6.461667168e-06,2.389607256e-04,-1.883229707e-04,2.262664031e-04,3.794343238e-05,2.744822498e-04,-7.477609946e-05,1.997061503e-04,1.854972925e-04,5.795925568e-05,2.434565482e-04,1.206475148e-05,3.479154796e-05,4.685629944e-05,3.221463133e-04,6.682563968e-05,3.889719530e-04,1.196780702e-04,-2.381136286e-05,9.586670736e-05,4.006939304e-04,1.408559600e-05,4.147795264e-04,4.372863415e-04,9.025000620e-06,4.463113421e-04,3.948120666e-04,5.109748580e-05,4.459095524e-04,3.467209975e-04,2.212088473e-05,3.688418823e-04,3.007424998e-04,3.783198735e-05,3.385744871e-04,1.746533718e-04,-2.533462023e-05,1.493187516e-04,3.285989906e-04,-5.538718105e-06,3.230602725e-04,4.352738705e-04,-1.111172271e-04,3.241566434e-04,6.023224431e-04,6.160028677e-05,6.639227299e-04,2.238935740e-04,2.406826601e-04,4.645762341e-04,1.266481999e-04,7.860669303e-05,2.052548930e-04,4.166374708e-04,-7.314720651e-07,4.159059987e-04,2.872830623e-04,1.793257610e-05,3.052156384e-04,6.939450767e-04,1.582735741e-05,7.097724341e-04,2.864255786e-04,1.332227415e-04,4.196483201e-04,1.861098891e-04,1.031239764e-04,2.892338654e-04,6.140580519e-04,1.525875617e-05,6.293168081e-04,5.264655841e-04,-8.882770734e-05,4.376378768e-04
-3.8,2.764413887e-04,-2.913712286e-05,2.473042658e-04,4.283616742e-04,2.898546777e-05,4.573471419e-04,2.643023473e-04,9.889069897e-06,2.741914172e-04,4.277330741e-04,4.352448553e-05,4.712575597e-04,2.363908838e-04,4.815528369e-05,2.845461675e-04,5.452721681e-04,-2.768254838e-05,5.175896197e-04,4.644371109e-04,-2.783872124e-05,4.365983897e-04,6.310566842e-04,-1.102839836e-05,6.200282858e-04,2.405437285e-04,3.372932809e-05,2.742730566e-04,5.137133734e-04,-1.429650214e-07,5.135704084e-04,2.995254969e-04,6.538609316e-05,3.649115901e-04,2.702256397e-04,2.830740807e-06,2.730563805e-04,-1.378694197e-04,2.289509857e-04,9.108156600e-05,3.015864694e-04,-7.882506901e-05,2.227614004e-04,2.258762261e-04,5.835146176e-05,2.842276878e-04,5.374339049e-05,3.660648094e-05,9.034987143e-05,3.431447083e-04,7.537737726e-05,4.185220856e-04,1.693856287e-04,-2.002730365e-05,1.493583250e-04,4.638555039e-04,1.570221220e-05,4.795577161e-04,4.513621313e-04,5.979084304e-06,4.573412156e-04,3.958049151e-04,5.335927456e-05,4.491641896e-04,3.574381793e-04,2.178894543e-05,3.792271247e-04,2.917609488e-04,4.031370650e-05,3.320746553e-04,1.728411686e-04,-2.608320587e-05,1.467579627e-04,3.681910626e-04,-1.518932295e-05,3.530017396e-04,4.712674323e-04,-1.113975151e-04,3.598699172e-04,6.609819918e-04,6.592725769e-05,7.269092495e-04,2.716468210e-04,2.346668758e-04,5.063136967e-04,1.727622433e-04,8.346654789e-05,2.562287912e-04,4.617341823e-04,2.899711490e-06,4.646338938e-04,3.397106478e-04,2.306720655e-05,3.627778543e-04,7.434879354e-04,2.185175111e-05,7.653396865e-04,3.496876674e-04,1.465143590e-04,4.962020264e-04,2.633302603e-04,1.035246025e-04,3.668548628e-04,6.726190517e-04,2.427003106e-05,6.968890827e-04,5.707718509e-04,-1.036230679e-04,4.671487830e-04
-3.7,2.888722528e-04,-2.954403296e-05,2.593282199e-04,4.490867564e-04,2.752254528e-05,4.766093017e-04,2.682082355e-04,1.107254647e-05,2.792807820e-04,4.419616509e-04,4.285346637e-05,4.848151173e-04,2.754845515e-04,4.278109599e-05,3.182656475e-04,5.756894789e-04,-3.385963619e-05,5.418298427e-04,4.980237663e-04,-3.403185796e-05,4.639919083e-04,6.684483460e-04,-2.052476140e-05,6.479235846e-04,2.775099581e-04,2.824979805e-05,3.057597561e-04,5.404033216e-04,-6.475490089e-06,5.339278315e-04,3.059122986e-04,6.183556024e-05,3.677478589e-04,3.078491646e-04,-7.749246775e-07,3.070742399e-04,-8.481284920e-05,2.303117890e-04,1.454989398e-04,3.278384725e-04,-8.244105694e-05,2.453974155e-04,2.670534254e-04,5.804487785e-05,3.250983032e-04,9.724504045e-05,3.817125796e-05,1.354162984e-04,3.644909589e-04,8.350915255e-05,4.480001115e-04,2.195807293e-04,-1.590461089e-05,2.036761184e-04,5.261905256e-04,1.720590297e-05,5.433964285e-04,4.637453323e-04,2.938246957e-06,4.666835793e-04,3.954251628e-04,5.569084831e-05,4.511160111e-04,3.671285409e-04,2.147926502e-05,3.886078059e-04,2.819211694e-04,4.287683819e-05,3.247980076e-04,1.703152641e-04,-2.648977918e-05,1.438254849e-04,4.063814095e-04,-2.458226425e-05,3.817991452e-04,5.052162787e-04,-1.108823426e-04,3.943339361e-04,7.178919472e-04,7.030373035e-05,7.881956776e-04,3.198282681e-04,2.268202510e-04,5.466485191e-04,2.189658515e-04,8.812778659e-05,3.070936381e-04,5.058124844e-04,6.712373527e-06,5.125248579e-04,3.919492044e-04,2.843906391e-05,4.203882684e-04,7.905882805e-04,2.815230891e-05,8.187405894e-04,4.117428261e-04,1.600422388e-04,5.717850649e-04,3.404327083e-04,1.030109963e-04,4.434437046e-04,7.306713680e-04,3.193524279e-05,7.626066108e-04,6.126001829e-04,-1.173073169e-04,4.952928660e-04
-3.6,3.003949685e-04,-2.984800784e-05,2.705469607e-04,4.688189655e-04,2.604602342e-05,4.948649889e-04,2.710554143e-04,1.248890589e-05,2.835443202e-04,4.546544024e-04,4.221861410e-05,4.968730165e-04,3.143261965e-04,3.734541077e-05,3.516716073e-04,6.041657651e-04,-3.993764596e-05,5.642281191e-04,5.301204975e-04,-4.018208743e-05,4.899384101e-04,7.032609846e-04,-2.993209754e-05,6.733288870e-04,3.142083242e-04,2.258915142e-05,3.367974756e-04,5.653762225e-04,-1.273811216e-05,5.526381103e-04,3.114429777e-04,5.829455848e-05,3.697375362e-04,3.452901217e-04,-4.341669187e-06,3.409484526e-04,-2.928579820e-05,2.303456112e-04,2.010598130e-04,3.532274085e-04,-8.561605758e-05,2.676113510e-04,3.089956569e-04,5.701296781e-05,3.660086247e-04,1.425340031e-04,3.945292351e-05,1.819869266e-04,3.864203948e-04,9.096153903e-05,4.773819338e-04,2.701157294e-04,-1.147783629e-05,2.586378931e-04,5.874864733e-04,1.860111003e-05,6.060875833e-04,4.744458052e-04,-8.634199579e-08,4.743594632e-04,3.937932481e-04,5.809239977e-05,4.518856478e-04,3.758783056e-04,2.120163566e-05,3.970799413e-04,2.713472022e-04,4.552915783e-05,3.168763600e-04,1.672050026e-04,-2.654287672e-05,1.406621259e-04,4.430457676e-04,-3.369096812e-05,4.093547994e-04,5.370368765e-04,-1.095448098e-04,4.274920666e-04,7.729001061e-04,7.466257607e-05,8.475626822e-04,3.683493226e-04,2.171857515e-04,5.855350741e-04,2.650584780e-04,9.259211446e-05,3.576505924e-04,5.487233988e-04,1.068733884e-05,5.594107377e-04,4.438257162e-04,3.400151084e-05,4.778272270e-04,8.350937537e-04,3.467035411e-05,8.697641078e-04,4.723808690e-04,1.736910375e-04,6.460719065e-04,4.170729660e-04,1.015482003e-04,5.186211662e-04,7.878232739e-04,3.832363267e-05,8.261469065e-04,6.518249095e-04,-1.297396688e-04,5.220852407e-04
