Time,S1D1HbO,S1D1HbR,S1D1HbT,S2D2HbO,S2D2HbR,S2D2HbT,S3D3HbO,S3D3HbR,S3D3HbT,S4D4HbO,S4D4HbR,S4D4HbT,S5D5HbO,S5D5HbR,S5D5HbT,S6D6HbO,S6D6HbR,S6D6HbT,S7D7HbO,S7D7HbR,S7D7HbT,S8D8HbO,S8D8HbR,S8D8HbT,S9D9HbO,S9D9HbR,S9D9HbT,S10D10HbO,S10D10HbR,S10D10HbT,S11D11HbO,S11D11HbR,S11D11HbT,S12D12HbO,S12D12HbR,S12D12HbT,S13D13HbO,S13D13HbR,S13D13HbT,S14D14HbO,S14D14HbR,S14D14HbT,S15D15HbO,S15D15HbR,S15D15HbT,S16D16HbO,S16D16HbR,S16D16HbT,S17D17HbO,S17D17HbR,S17D17HbT,S18D18HbO,S18D18HbR,S18D18HbT,S19D19HbO,S19D19HbR,S19D19HbT,S20D20HbO,S20D20HbR,S20D20HbT,S21D21HbO,S21D21HbR,S21D21HbT,S22D22HbO,S22D22HbR,S22D22HbT,S23D23HbO,S23D23HbR,S23D23HbT,S24D24HbO,S24D24HbR,S24D24HbT,S25D25HbO,S25D25HbR,S25D25HbT,S26D26HbO,S26D26HbR,S26D26HbT,S27D27HbO,S27D27HbR,S27D27HbT,S28D28HbO,S28D28HbR,S28D28HbT,S29D29HbO,S29D29HbR,S29D29HbT,S30D30HbO,S30D30HbR,S30D30HbT,S31D31HbO,S31D31HbR,S31D31HbT,S32D32HbO,S32D32HbR,S32D32HbT,S33D33HbO,S33D33HbR,S33D33HbT,S34D34HbO,S34D34HbR,S34D34HbT,S35D35HbO,S35D35HbR,S35D35HbT,S36D36HbO,S36D36HbR,S36D36HbT
0.0,0.001613470884,0.0001533901774,0.001766861061,0.002186942348,3.477309438e-05,0.002221715442,0.0008621510932,2.539065218e-05,0.0008875417454,6.337382422e-05,0.0001348109459,0.0001981847701,6.569618025e-05,0.0001389480819,0.0002046442622,0.001000584671,0.0003168621102,0.001317446781,0.0008439594647,0.0001289466018,0.0009729060665,0.000378063483,0.0001094880068,0.0004875514898,-4.759219726e-05,6.44779401e-05,1.688574284e-05,0.0006287971916,1.213634186e-05,0.0006409335335,0.0008093614413,6.059499411e-05,0.0008699564354,1.368423511e-05,-0.0002623997233,-0.0002487154882,0.0007299059556,7.697530832e-05,0.0008068812639,-0.0004225861173,0.0001293015953,-0.000293284522,0.0006434352307,0.0001029828629,0.0007464180935,-0.0002284060362,-4.093774654e-05,-0.0002693437828,-0.00133284094,-6.260091186e-05,-0.001395441851,0.0006408074555,0.0001169210153,0.0007577284708,-0.0002996268981,7.870592316e-05,-0.0002209209749,0.001043070893,0.0002571450158,0.001300215909,0.0008652139019,7.448198827e-05,0.0009396958901,0.0006528402592,7.292839012e-05,0.0007257686494,0.001209169955,6.406770245e-05,0.001273237657,0.0003725568457,0.0007768027931,0.001149359639,0.001075846128,-0.0001217666607,0.0009540794671,-0.0001035218403,-4.062770186e-05,-0.0001441495422,0.00098932071,0.0009226305311,0.001911951241,0.000799326194,5.122590589e-05,0.0008505520999,0.0009064231162,6.002177056e-05,0.0009664448867,-0.0006301048733,-2.49046876e-05,-0.0006550095609,0.001408864369,0.0001368509085,0.001545715277,0.0002709948732,0.0003044864077,0.0005754812809,0.0002065676365,0.0002134057362,0.0004199733727,-0.0003493016053,0.0005378089093,0.000188507304,0.002225981838,-0.001591935641,0.0006340461968,0.001384809922,-0.001101122771,0.0002836871511
0.1,0.001627235857,0.000142360265,0.001769596122,0.002222625395,2.600835802e-05,0.002248633753,0.0008706088353,1.418605884e-05,0.0008847948941,0.0001302131374,0.0001413332833,0.0002715464207,0.0001591400813,0.0001334915368,0.0002926316181,0.001098366874,0.000307459282,0.001405826156,0.0009202486536,0.0001260541329,0.001046302787,0.0004595771454,9.943768812e-05,0.0005590148335,-1.374636619e-05,5.442095655e-05,4.067459035e-05,0.0006885561289,-1.230213866e-06,0.0006873259151,0.000873626905,3.790934567e-05,0.0009115362507,8.055115423e-05,-0.0002697568852,-0.000189205731,0.0007902664014,7.765727764e-05,0.000867923679,-0.0004056602933,0.0001108293056,-0.0002948309877,0.0007105645114,9.889631414e-05,0.0008094608255,-0.0001748877542,-3.652817243e-05,-0.0002114159266,-0.001275004612,-5.111165491e-05,-0.001326116267,0.0007467391323,0.0001245954189,0.0008713345512,-0.0001798732839,9.541489248e-05,-8.445839147e-05,0.001133680454,0.0002745987769,0.00140827923,0.000942911225,7.480178915e-05,0.001017713014,0.0006974771402,0.0001177120498,0.00081518919,0.001269312868,6.258184248e-05,0.00133189471,0.0004289795718,0.0007819235366,0.001210903108,0.00116598271,-0.0001335280693,0.001032454641,-7.254074781e-05,-4.03481602e-05,-0.000112888908,0.001063011951,0.0009737777381,0.002036789689,0.0008543125812,5.920742289e-05,0.0009135200041,0.0009986107584,5.781871109e-05,0.001056429469,-0.0005338899911,-2.276955466e-05,-0.0005566595458,0.001428998492,0.0001640035719,0.001593002064,0.0004982715384,0.000232018128,0.0007302896664,0.0002951169549,0.0002206556989,0.0005157726538,-0.0001123339044,0.0004453700951,0.0003330361906,0.002400908496,-0.00154139258,0.000859515916,0.001561522336,-0.00114916366,0.0004123586761
0.2,0.001638936104,0.0001310849684,0.001770021072,0.002258102812,1.787177678e-05,0.002275974589,0.000879783577,2.728756518e-06,0.0008825123336,0.0002012771305,0.0001476590825,0.000348936213,0.0002556856237,0.0001275130039,0.0003831986276,0.001200393351,0.0002956697768,0.001496063128,0.0009992978255,0.0001232087777,0.001122506603,0.0005444394479,8.951259375e-05,0.0006339520417,2.177717717e-05,4.37307237e-05,6.550790088e-05,0.0007501876502,-1.517916828e-05,0.0007350084819,0.0009391594127,1.42922296e-05,0.0009534516423,0.0001529049664,-0.000276826763,-0.0001239217966,0.0008558933798,7.762287205e-05,0.0009335162519,-0.0003823836189,9.389763021e-05,-0.0002884859887,0.0007810241918,9.469660406e-05,0.0008757207958,-0.0001176689349,-3.238937826e-05,-0.0001500583131,-0.001212128162,-3.865159342e-05,-0.001250779756,0.000856281271,0.0001325846605,0.0009888659315,-5.548017161e-05,0.0001130718592,5.759168757e-05,0.001227422602,0.0002923340323,0.001519756634,0.001022710943,7.525733212e-05,0.001097968275,0.0007413902815,0.0001655550698,0.0009069453513,0.001330736244,6.077829712e-05,0.001391514541,0.0004919989146,0.0007796391256,0.00127163804,0.001258855738,-0.0001446833464,0.001114172391,-3.999052458e-05,-3.9868296e-05,-7.985882058e-05,0.001145665735,0.001017657743,0.002163323478,0.000911441112,6.737252466e-05,0.0009788136367,0.001094599544,5.526469959e-05,0.001149864244,-0.0004330699846,-2.042687161e-05,-0.0004534968562,0.001452937281,0.0001909501563,0.001643887438,0.0007345667763,0.0001587450866,0.0008933118629,0.0003883761745,0.0002264230385,0.000614799213,0.0001275444456,0.0003575609739,0.0004851054195,0.002555919718,-0.001473349533,0.001082570185,0.001730902105,-0.001186846537,0.0005440555678
0.3,0.00164847331,0.0001196039972,0.001768077307,0.002293255998,1.03505233e-05,0.002303606522,0.0008897025245,-8.969368439e-06,0.0008807331561,0.0002763546955,0.000153753439,0.0004301081345,0.000355106397,0.0001209894034,0.0004760958004,0.001306416391,0.0002814538897,0.00158787028,0.00108094635,0.000120425364,0.001201371714,0.0006325099535,7.977697617e-05,0.0007122869297,5.900602007e-05,3.242816542e-05,9.143418549e-05,0.0008136426446,-2.967219195e-05,0.0007839704527,0.001005771353,-1.023236426e-05,0.0009955389883,0.0002304302709,-0.0002836053252,-5.317505427e-05,0.0009268249743,7.684637378e-05,0.001003671348,-0.0003529185369,7.85782553e-05,-0.0002743402816,0.0008547507605,9.037059781e-05,0.0009451213583,-5.677104851e-05,-2.855801621e-05,-8.532906472e-05,-0.001144233973,-2.529191931e-05,-0.001169525893,0.0009693186631,0.0001408679504,0.001110186613,7.342841e-05,0.0001316254022,0.0002050538122,0.001324089894,0.000310206902,0.001634296796,0.001104351575,7.58622197e-05,0.001180213795,0.0007846676285,0.0002159847474,0.001000652376,0.001393291197,5.863331468e-05,0.001451924512,0.0005613940326,0.0007700644003,0.001331458433,0.001354261695,-0.0001552127881,0.001199048907,-5.959069303e-06,-3.920007049e-05,-4.515913979e-05,0.001237392087,0.00105387412,0.002291266206,0.0009706732852,7.563361572e-05,0.001046306901,0.001194220453,5.245091724e-05,0.00124667137,-0.0003279708369,-1.77972949e-05,-0.0003457681318,0.001481841558,0.0002173030092,0.001699144567,0.0009788986737,8.549775305e-05,0.001064396427,0.0004864161595,0.0002305712466,0.0007169874061,0.0003684298917,0.0002756313973,0.000644061289,0.002690529017,-0.001388676881,0.001301852136,0.001892269948,-0.001213105014,0.0006791649343
0.4,0.001655740306,0.0001079560574,0.001763696363,0.002327943653,3.417236493e-06,0.002331360889,0.0009003791939,-2.089791095e-05,0.000879481283,0.0003552085835,0.0001595836078,0.0005147921913,0.0004571619557,0.0001139010859,0.0005710630416,0.001416177177,0.0002647935203,0.001680970698,0.001165016926,0.0001177150526,0.001282731978,0.0007236199849,7.030317136e-05,0.0007939231563,9.798430719e-05,2.054007816e-05,0.0001185243853,0.0008788837257,-4.466418022e-05,0.0008342195455,0.001073272811,-3.563357675e-05,0.001037639234,0.0003128003331,-0.0002900970043,2.270332878e-05,0.001003052324,7.531879401e-05,0.001078371118,-0.0003174847148,6.491731809e-05,-0.0002525673967,0.0009316656803,8.590522115e-05,0.001017570901,7.774702628e-06,-2.507081785e-05,-1.729611522e-05,-0.001071357868,-1.111810608e-05,-0.001082475974,0.001085707389,0.0001494222409,0.00123512963,0.0002067053555,0.0001510177326,0.000357723088,0.001423467578,0.0003280548639,0.001751522442,0.001187556133,7.662863978e-05,0.001264184772,0.0008274509531,0.000268448544,0.001095899497,0.001456826025,5.612582182e-05,0.001512951846,0.0006368774917,0.0007533940152,0.001390271507,0.0014519642,-0.000165083323,0.001286880876,2.946438774e-05,-3.835679395e-05,-8.892406203e-06,0.001338185709,0.001082142705,0.002420328414,0.001031973352,8.388915356e-05,0.001115862505,0.001297304664,4.94586568e-05,0.00134676332,-0.0002189263808,-1.480208137e-05,-0.0002337284622,0.001516902054,0.0002426819078,0.001759583962,0.001230234254,1.312237126e-05,0.001243356625,0.000589305067,0.0002329633384,0.0008222684054,0.0006085219453,0.0002006494365,0.0008091713818,0.002804598606,-0.001288484556,0.001516114051,0.002045133437,-0.001227033562,0.0008180998751
0.5,0.001660626037,9.617956039e-05,0.001756805598,0.00236200467,-2.96648943e-06,0.00235903818,0.000911817145,-3.304732408e-05,0.000878769821,0.0004375787509,0.0001651196323,0.0006026983832,0.0005616027071,0.0001062320957,0.0006678348028,0.001529408362,0.0002456994159,0.001775107778,0.001251318732,0.0001150851967,0.001366403929,0.0008175770656,6.116945594e-05,0.0008787465215,0.0001387738035,8.098676834e-06,0.0001468724803,0.0009458880957,-6.010399356e-05,0.0008857841022,0.001141473653,-6.187368465e-05,0.001079599968,0.000399686829,-0.0002963145878,0.0001033722412,0.001084526711,7.304693176e-05,0.001157573642,-0.0002763504404,5.293710896e-05,-0.0002234133314,0.001011676223,8.128849545e-05,0.001092964718,7.592911082e-05,-2.196442176e-05,5.396468906e-05,-0.0009935494836,3.772221423e-06,-0.0009897772622,0.001205276396,0.0001582211914,0.001363497587,0.0003441810769,0.0001711851834,0.0005153662603,0.001525339548,0.0003456982282,0.001871037776,0.001272035325,7.756732204e-05,0.001349602648,0.0008699318119,0.0003223238579,0.00119225567,0.001521187954,5.323742522e-05,0.001574425379,0.0007181048138,0.0007298960636,0.001448000877,0.001551698376,-0.0001742477796,0.001377450597,6.619132616e-05,-3.735224423e-05,2.883908192e-05,0.001447924517,0.001102297451,0.002550221968,0.001095310172,9.202639082e-05,0.001187336563,0.001403686558,4.635806125e-05,0.001450044619,-0.0001062731175,-1.136650294e-05,-0.0001176396204,0.001559298991,0.000266745514,0.001826044505,0.001487505304,-5.75418121e-05,0.001429963492,0.0006971012113,0.0002334671022,0.0009305683135,0.0008461559386,0.0001334868732,0.0009796428118,0.002898294615,-0.001174068524,0.001724226091,0.002189204497,-0.001227893738,0.0009613107586
0.6,0.001663019404,8.431319185e-05,0.001747332596,0.002395260398,-8.846934531e-06,0.002386413464,0.0009240116275,-4.54082954e-05,0.0008786033321,0.0005231836998,0.0001703349694,0.0006935186692,0.0006681707751,9.797036305e-05,0.0007661411382,0.001645829196,0.0002242190112,0.001870048207,0.001339647319,0.0001125397295,0.001452187048,0.0009141662582,5.245909827e-05,0.0009666253565,0.0001814511049,-4.858976633e-06,0.0001765921283,0.001014646852,-7.593556675e-05,0.0009387112857,0.001210183065,-8.890840817e-05,0.001121274657,0.0004907670644,-0.0003022790264,0.0001884880381,0.001171163304,7.005384713e-05,0.001241217151,-0.0002298263054,4.263800152e-05,-0.0001871883039,0.001094674336,7.651062377e-05,0.00117118496,0.0001476443965,-1.92743706e-05,0.0001283700259,-0.0009108744816,1.927193967e-05,-0.000891602542,0.001327828281,0.0001672337514,0.001495062032,0.0004856628704,0.0001920585876,0.0006777214581,0.001629490572,0.0003629424159,0.001992432988,0.001357488551,7.868742193e-05,0.001436175973,0.0009123463442,0.0003769271615,0.001289273506,0.001586222387,4.995218722e-05,0.001636174575,0.0008046826914,0.0006999037861,0.001504586477,0.001653174781,-0.0001826441053,0.001470530675,0.0001041336038,-3.619979414e-05,6.793380969e-05,0.001566369956,0.001114291944,0.0026806619,0.001160655504,9.99256353e-05,0.001260581139,0.001513203703,4.320765209e-05,0.001556411355,9.652408198e-06,-7.42333095e-06,2.229077247e-06,0.001610155926,0.0002892199355,0.001899375861,0.001749625049,-0.0001256888334,0.001623936215,0.0008098427648,0.0002319620939,0.001041804859,0.001079826358,7.481420061e-05,0.001154640559,0.002972033403,-0.001046853391,0.001925180012,0.002324403918,-0.001215113871,0.001109290047
0.7,0.001662812086,7.239624075e-05,0.001735208327,0.002427516381,-1.427522264e-05,0.002413241158,0.000936949769,-5.797114098e-05,0.000878978628,0.0006117203034,0.0001752070519,0.0007869273552,0.0007765978669,8.91078439e-05,0.0008657057108,0.001765136123,0.0002004433933,0.001965579516,0.001429782322,0.0001100797728,0.001539862095,0.001013149674,4.426014484e-05,0.001057409819,0.0002261026664,-1.829148261e-05,0.0002078111838,0.001085161702,-9.209909199e-05,0.00099306261,0.001279207771,-0.0001166873355,0.001162520436,0.0005857284402,-0.0003080191503,0.00027770929,0.001262842049,6.637958264e-05,0.001329221631,-0.0001782603986,3.400060679e-05,-0.0001442597918,0.001180534432,7.156499662e-05,0.001252099429,0.0002228613969,-1.703320273e-05,0.0002058281942,-0.0008234177156,3.526734753e-05,-0.0007881503681,0.001453139462,0.0001764224334,0.001629561896,0.0006309333643,0.00021356366,0.0008444970242,0.001735705429,0.0003795814044,0.002115286833,0.001443603502,7.999642087e-05,0.001523599923,0.0009549697641,0.0004315230608,0.001386492825,0.001651771047,4.625643292e-05,0.00169802748,0.0008961741654,0.0006638069113,0.001559981077,0.001756083096,-0.0001901945374,0.001565888559,0.0001432015696,-3.491176519e-05,0.0001082898044,0.001693171362,0.001118196002,0.002811367364,0.001227978976,0.0001074660456,0.001335445022,0.001625695162,4.005443442e-05,0.001665749596,0.0001285148948,-2.916310941e-06,0.0001255985839,0.001670495878,0.0003099165246,0.001980412403,0.002015505709,-0.0001905724545,0.001824933254,0.0009275361476,0.0002283464975,0.001155882645,0.00130820251,2.510612549e-05,0.001333308635,0.003026423019,-0.0009083353298,0.002118087689,0.00245085277,-0.001188284926,0.001262567844
0.8,0.001659901036,6.046856241e-05,0.001720369598,0.002458564355,-1.930460014e-05,0.002439259755,0.0009506105445,-7.072527065e-05,0.0008798852738,0.0007028631151,0.0001797177381,0.0008825808532,0.0008866022895,7.964059076e-05,0.0009662428803,0.00188699328,0.0001745121302,0.00206150541,0.001521484841,0.0001077042015,0.001629189042,0.001114266499,3.666449712e-05,0.001150930996,0.0002728199709,-3.215337983e-05,0.0002406665911,0.001157441051,-0.0001085319971,0.001048909054,0.001348350569,-0.0001451542283,0.001203196341,0.000684270742,-0.0003135712502,0.0003706994917,0.001359407853,6.208083943e-05,0.001421488693,-0.0001220335755,2.698816663e-05,-9.50454089e-05,0.001269111572,6.644897371e-05,0.001335560545,0.0003015052753,-1.52676342e-05,0.0002862376411,-0.0007312857813,5.164069245e-05,-0.0006796450888,0.001580960297,0.0001857417086,0.001766702006,0.0007797490379,0.0002356213821,0.00101537042,0.00184376634,0.0003954027711,0.002239169111,0.001530055894,8.150010145e-05,0.001611555995,0.0009981104158,0.0004853355261,0.001483445942,0.001717670879,4.213878515e-05,0.001759809665,0.0009921014547,0.0006220438377,0.001614145292,0.001860096332,-0.0001968053795,0.001663290952,0.0001833018719,-3.349907845e-05,0.0001498027935,0.001827875768,0.001114187702,0.002942063469,0.001297241583,0.0001145321358,0.001411773719,0.001740999873,3.693456372e-05,0.001777934437,0.000249981835,2.196699195e-06,0.0002521785341,0.001741209612,0.0003287343522,0.002069943964,0.002284076626,-0.0002515309156,0.002032545711,0.001050144877,0.0002225435877,0.001272688465,0.001530135883,-1.534070353e-05,0.001514795179,0.003062208268,-0.0007600317666,0.002302176501,0.002568853725,-0.001147154664,0.001421699062
0.9,0.001654191591,4.857003872e-05,0.001702761629,0.002488185669,-2.398841499e-05,0.002464197254,0.0009649660358,-8.365871927e-05,0.0008813073166,0.0007962645921,0.0001838536085,0.0009801182005,0.0009978877629,6.956878838e-05,0.001067456551,0.002011026487,0.0001466153741,0.002157641861,0.001614496652,0.0001054100414,0.001719906694,0.001217235477,2.976550934e-05,0.001247000986,0.0003216970205,-4.639515766e-05,0.0002753018628,0.001231497795,-0.0001251696504,0.001106328145,0.00141741086,-0.0001742470808,0.00124316378,0.0007861072484,-0.0003189779802,0.0004671292681,0.00146067228,5.72289545e-05,0.001517901234,-6.155316106e-05,2.154915717e-05,-4.000400389e-05,0.00136024162,6.116432594e-05,0.001421405946,0.0003834815206,-1.399511822e-05,0.0003694864024,-0.0006346075135,6.827188603e-05,-0.0005663356274,0.001711016142,0.0001951370797,0.001906153221,0.0009318400841,0.0002581482931,0.001189988377,0.001953450642,0.0004101944032,0.002363645046,0.001616511081,8.320252664e-05,0.001699713607,0.001042102831,0.0005375630741,0.001579665905,0.001783755479,3.759051288e-05,0.001821345992,0.001091949056,0.0005750947781,0.001667043834,0.001964876549,-0.0002023677477,0.001762508801,0.0002243363933,-3.197113649e-05,0.0001923652568,0.001969942702,0.001102542742,0.003072485444,0.001368390194,0.0001210200291,0.001489410224,0.001858956966,3.387448443e-05,0.00189283145,0.0003737269256,7.941283926e-06,0.0003816682095,0.001823041786,0.0003456484524,0.002168690239,0.002554301575,-0.0003080061884,0.002246295387,0.00117758063,0.0002145082525,0.001392088882,0.001744660653,-4.638191178e-05,0.001698278741,0.003080229084,-0.0006034455707,0.002476783514,0.002678870178,-0.001091624853,0.001587245326
1.0,0.001645602106,3.673959171e-05,0.001682341697,0.002516157188,-2.837902664e-05,0.002487778162,0.0009799851492,-9.675770902e-05,0.0008832274402,0.0008915576683,0.0001876060684,0.001079163737,0.001110146186,5.889680597e-05,0.001169042992,0.002136821665,0.0001169943726,0.002253816037,0.001708543024,0.0001031926124,0.001811735637,0.001321760397,2.365496406e-05,0.001345415361,0.0003728312759,-6.096317845e-05,0.0003118680975,0.001307350448,-0.0001419460114,0.001165404436,0.001486188054,-0.000203898024,0.00128229003,0.0008909655771,-0.0003242859673,0.0005666796098,0.001566417619,5.190621906e-05,0.001618323838,2.755909516e-06,1.761997178e-05,2.037588129e-05,0.001453744331,5.571725388e-05,0.001509461584,0.0004686743735,-1.322052998e-05,0.0004554538435,-0.0005335317856,8.503979027e-05,-0.0004484919953,0.001843010401,0.0002045451134,0.002047555514,0.001086912415,0.0002810566382,0.001367969053,0.002064530531,0.0004237523811,0.002488282912,0.001702628664,8.510594159e-05,0.001787734606,0.001087299159,0.0005873977254,0.001674696884,0.001849859595,3.260611776e-05,0.001882465712,0.001195169849,0.0005234747453,0.001718644594,0.002070083002,-0.0002067591402,0.001863323862,0.0002662035993,-3.033594935e-05,0.0002358676499,0.00211876261,0.001083624021,0.003202386631,0.001441355081,0.0001268429576,0.001568198039,0.001979409168,3.089226427e-05,0.002010301432,0.0004994360729,1.432479313e-05,0.0005137608661,0.00191659168,0.0003606910795,0.002277282759,0.002825193995,-0.0003595537978,0.002465640197,0.001309697983,0.0002042334888,0.001513931472,0.001950989626,-6.799838558e-05,0.001882991241,0.00308139809,-0.0004400486492,0.002641349441,0.002781512328,-0.001021757316,0.001759755012
1.1,0.001634070225,2.501409822e-05,0.001659084324,0.002542259895,-3.252756816e-05,0.002509732327,0.0009956397344,-0.0001100062963,0.0008856334381,0.0009883611112,0.0001909712324,0.001179332344,0.001223064605,4.76332368e-05,0.001270697842,0.002263927346,8.594129464e-05,0.00234986864,0.00180333928,0.0001010453852,0.001904384665,0.001427538084,1.842055432e-05,0.001445958639,0.0004263271822,-7.579979377e-05,0.0003505273885,0.001385027304,-0.0001587944764,0.001226232828,0.001554487205,-0.0002340333176,0.001320453888,0.0009985885677,-0.0003295422317,0.000669046336,0.001676403068,4.620089299e-05,0.001722603961,7.046196727e-05,1.512748632e-05,8.558945358e-05,0.001549428831,5.011807573e-05,0.001599546907,0.0005569487256,-1.293390489e-05,0.0005440148207,-0.0004282227951,0.0001018237144,-0.0003263990807,0.00197662969,0.0002138943577,0.002190524047,0.001244651453,0.0003042546867,0.00154890614,0.002176775461,0.0004358891629,0.002612664624,0.001788069465,8.721066206e-05,0.001875280127,0.001134058771,0.0006340455484,0.001768104319,0.001915825308,2.718390846e-05,0.001943009217,0.001301194816,0.0004677258329,0.001768920649,0.002175382402,-0.000209845458,0.001965536944,0.0003088025434,-2.860052555e-05,0.0002802020179,0.002273677059,0.001057873569,0.003331550627,0.00151605116,0.0001319357534,0.001647986913,0.002102208711,2.79987471e-05,0.002130207458,0.0006268149072,2.133530259e-05,0.0006481502098,0.002022319238,0.0003739345293,0.002396253767,0.003095829911,-0.0004058451935,0.002689984717,0.001446292901,0.0001917562057,0.001638049107,0.002148506645,-8.027264309e-05,0.002068234002,0.003066697399,-0.0002712834281,0.002795413971,0.002877533626,-0.0009377906947,0.001939742932
1.2,0.001619559788,1.342756699e-05,0.001632987355,0.00256628893,-3.648422717e-05,0.002529804703,0.001011911526,-0.0001233862533,0.0008885252728,0.001086286436,0.0001939495895,0.001280236026,0.001336334043,3.579080088e-05,0.001372124844,0.002391861,5.379724092e-05,0.002445658241,0.001898599167,9.895966852e-05,0.001997558835,0.001534267727,1.414394667e-05,0.001548411674,0.0004822994851,-9.084386247e-05,0.0003914556226,0.001464570918,-0.0001756488326,0.001288922085,0.001622124739,-0.000264573667,0.001357551072,0.001108734647,-0.0003347901638,0.0007739444831,0.001790372256,4.020136886e-05,0.001830573625,0.0001411375271,1.399136739e-05,0.0001551288945,0.001647099576,4.438097472e-05,0.00169148055,0.0006481547642,-1.310984175e-05,0.0006350449224,-0.0003188539677,0.000118505414,-0.0002003485537,0.002111550107,0.0002231067474,0.002334656855,0.001404726345,0.0003276477221,0.001732374067,0.002289956083,0.0004464411329,0.002736397216,0.001872502756,8.951507815e-05,0.001962017834,0.001182736237,0.0006767465988,0.001859482836,0.001981507328,2.132625385e-05,0.002002833582,0.001409443757,0.0004084101891,0.001817853946,0.002280459741,-0.0002114834163,0.002068976325,0.0003520380577,-2.677132607e-05,0.0003252667316,0.002433997618,0.001025807715,0.003459805333,0.001592382087,0.00013625789,0.001728639977,0.002227223399,2.51983958e-05,0.002252421795,0.0007555954175,2.894112739e-05,0.0007845365449,0.002140549557,0.0003854792428,0.0025260288,0.00336535662,-0.0004466677524,0.002918688868,0.001587103374,0.0001771616096,0.001764264984,0.002336759392,-8.337408583e-05,0.002253385306,0.003037189464,-9.8576015e-05,0.002938613449,0.00296783329,-0.0008401649124,0.002127668378
1.3,0.001602066793,2.010675682e-06,0.001604077468,0.002588062904,-4.029863029e-05,0.002547764274,0.00102879776,-0.0001368772701,0.0008919204899,0.001184944259,0.0001965454967,0.001381489756,0.001449656735,2.338602364e-05,0.001473042758,0.002520118551,2.094656037e-05,0.002541065112,0.001994042191,9.692432805e-05,0.002090966519,0.001641659712,1.089907435e-05,0.001652558786,0.0005408733335,-0.0001060316932,0.0004348416403,0.00154603945,-0.0001924439827,0.001353595467,0.001688931929,-0.0002954349586,0.00139349697,0.001221176923,-0.0003400658196,0.0008811111038,0.001908060871,3.399029076e-05,0.001942051162,0.000214368101,1.412610879e-05,0.0002284942098,0.001746560673,3.852418472e-05,0.001785084858,0.0007421336035,-1.370858926e-05,0.0007284250142,-0.0002056024143,0.0001349716947,-7.063071964e-05,0.00224744298,0.0002320991152,0.002479542095,0.00156679326,0.0003511397834,0.001917933044,0.002403847793,0.0004552747447,0.002859122538,0.001955611744,9.201577196e-05,0.002047627516,0.00123366762,0.0007147939804,0.001948461601,0.002046775476,1.503934175e-05,0.002061814818,0.001519333544,0.000346104896,0.00186543844,0.00238502821,-0.0002115241109,0.002173504099,0.0003958248552,-2.485451701e-05,0.0003709703381,0.002599019529,0.0009880153765,0.003587034905,0.001670245405,0.0001397946113,0.001810040016,0.00235434013,2.249020838e-05,0.002376830338,0.0008855396809,3.709094722e-05,0.0009226306281,0.002271474119,0.0003954459619,0.002666920081,0.003632992418,-0.0004819235389,0.003151068879,0.001731810317,0.0001605857141,0.001892396031,0.002515459387,-7.755942675e-05,0.00243789996,0.002994034826,7.664560174e-05,0.003070680428,0.00305345646,-0.0007295470521,0.002323909408
1.4,0.001581623222,-9.209403443e-06,0.001572413819,0.002607430705,-4.40200601e-05,0.002563410645,0.001046314053,-0.0001504573776,0.0008958566754,0.001283948527,0.0001987665973,0.001482715124,0.001562749372,1.043874462e-05,0.001573188117,0.002648185518,-1.219294953e-05,0.002635992568,0.002089397966,9.492566081e-05,0.002184323627,0.001749441946,8.750703533e-06,0.00175819265,0.0006021798579,-0.00012129828,0.0004808815779,0.001629503016,-0.0002091162537,0.001420386763,0.001754755031,-0.0003265293481,0.001428225683,0.001335700792,-0.0003453949884,0.0009903058041,0.002029203071,2.763955639e-05,0.002056842628,0.0002897577415,1.544283043e-05,0.0003052005719,0.001847617653,3.257054744e-05,0.0018801882,0.0008387221529,-1.467830895e-05,0.0008240438439,-8.864554987e-05,0.0001511175252,6.247197529e-05,0.002383978437,0.0002407849023,0.00262476334,0.001730497151,0.0003746356345,0.002105132786,0.002518232365,0.0004622908476,0.002980523212,0.002037096383,9.470763437e-05,0.002131804018,0.00128715472,0.0007475529874,0.002034707708,0.002111513914,8.332513199e-06,0.002119846427,0.001630283155,0.0002813973975,0.001911680552,0.002488837713,-0.0002098191653,0.002279018548,0.0004400891137,-2.285600698e-05,0.0004172331067,0.002768028591,0.0009451571345,0.003713185726,0.001749536984,0.0001425561644,0.001892093148,0.002483464395,1.986925282e-05,0.002503333648,0.001016439887,4.571471291e-05,0.0010621546,0.002415149315,0.0004039692734,0.002819118589,0.003898015264,-0.0005116250527,0.003386390211,0.001880037437,0.0001422158905,0.002022253327,0.002684490787,-6.318669548e-05,0.002621304091,0.00293851085,0.0002529341175,0.003191444968,0.003135585013,-0.000606851538,0.002528733475
1.5,0.001558298355,-2.020895489e-05,0.0015380894,0.002624275155,-4.769750298e-05,0.002576577652,0.001064494285,-0.0001641034039,0.0009003908813,0.00138291824,0.0002006232657,0.001583541505,0.001675341959,-3.02841139e-06,0.001672313547,0.002775547484,-4.518246239e-05,0.002730365022,0.002184407208,9.29473407e-05,0.002277354549,0.001857362798,7.753196135e-06,0.001865115994,0.0006663480182,-0.0001365786164,0.0005297694018,0.001715035562,-0.0002256034143,0.001489432147,0.001819452502,-0.0003577665376,0.001461685965,0.00145210021,-0.0003507910118,0.001101309198,0.002153536176,2.120664589e-05,0.002174742822,0.0003669313358,1.785084699e-05,0.0003847821828,0.001950076963,2.654801267e-05,0.001976624975,0.0009377560161,-1.595774273e-05,0.0009217982734,3.183982731e-05,0.0001668490216,0.0001986888489,0.002520825906,0.0002490764606,0.002769902367,0.001895471972,0.0003980423796,0.002293514352,0.002632897003,0.0004674270675,0.00310032407,0.002116673647,9.758392963e-05,0.002214257577,0.001343447126,0.0007744806112,0.002117927737,0.00217561782,1.21743216e-06,0.002176835252,0.0017417172,0.000214879007,0.001956596207,0.002591682005,-0.0002062303815,0.002385451623,0.0004847675071,-2.078147694e-05,0.0004639860302,0.002940304165,0.0008979604079,0.003838264573,0.001830153585,0.0001445756454,0.001974729231,0.002614515903,1.732883882e-05,0.002631844741,0.00114811483,5.472556134e-05,0.001202840391,0.002571493457,0.0004111898448,0.002982683302,0.004159744467,-0.0005358871595,0.003623857308,0.002031349379,0.0001222898477,0.002153639226,0.002843921292,-4.073152839e-05,0.002803189763,0.002872029304,0.0004288089897,0.003300838294,0.003215517475,-0.000473249227,0.002742268247
1.6,0.001532197938,-3.096753559e-05,0.001501230402,0.00263851391,-5.137975734e-05,0.002587134153,0.00108338815,-0.0001777913487,0.0009055968012,0.001481477247,0.0002021280816,0.001683605329,0.001787173391,-1.699051608e-05,0.001770182875,0.002901698381,-7.757540591e-05,0.002824122975,0.002278820266,9.097017087e-05,0.002369790437,0.001965191478,7.948964479e-06,0.001973140442,0.0007334948158,-0.0001518088403,0.0005816859755,0.001802704364,-0.0002418445823,0.001560859781,0.001882890796,-0.0003890550118,0.001493835784,0.001570172895,-0.0003562528412,0.001213920054,0.002280803709,1.473247409e-05,0.002295536183,0.0004455345673,2.12590045e-05,0.0004667935718,0.002053744205,2.048977926e-05,0.002074233984,0.001039069988,-1.747857141e-05,0.001021591416,0.0001556767357,0.0001820853546,0.0003377620903,0.002657651823,0.0002568880366,0.00291453986,0.002061339714,0.0004212705953,0.002482610309,0.002747631452,0.0004706580566,0.003218289508,0.002194076047,0.0001006363588,0.002294712406,0.001402723438,0.0007951438793,0.002197867317,0.00223898899,-6.292615184e-06,0.002232696374,0.001853069021,0.0001471357673,0.002000204788,0.002693404264,-0.0002006420209,0.002492762243,0.000529804557,-1.863658096e-05,0.0005111679761,0.003115123131,0.0008472066327,0.003962329763,0.001911993391,0.0001459058841,0.002057899275,0.002747421864,1.486271296e-05,0.002762284577,0.001280403639,6.40229775e-05,0.001344426617,0.002740283679,0.0004172438897,0.003157527568,0.004417521427,-0.0005549144569,0.00386260697,0.002185249169,0.0001010931257,0.002286342294,0.002994006426,-1.079617671e-05,0.002983210249,0.002796154871,0.0006027449496,0.003398899821,0.003294642065,-0.0003301641944,0.002964477871
1.7,0.00150346213,-4.146779028e-05,0.00146199434,0.002650098654,-5.511576614e-05,0.002594982888,0.001103057693,-0.0001914966613,0.0009115610316,0.001579253286,0.0002032952408,0.001782548527,0.001897985921,-3.142076142e-05,0.00186656516,0.003026146998,-0.0001089309285,0.002917216069,0.002372394675,8.897155918e-05,0.002461366234,0.002072717374,9.366582145e-06,0.002082083956,0.0008037162999,-0.0001669269964,0.0006367893035,0.001892559815,-0.0002577800744,0.00163477974,0.001944940585,-0.0004203030187,0.001524637567,0.001689715211,-0.0003617629521,0.001327952259,0.002410756611,8.241118421e-06,0.002418997729,0.0005252330053,2.557679995e-05,0.0005508098052,0.002158422385,1.443413822e-05,0.002172856523,0.001142496561,-1.916708794e-05,0.001123329473,0.0002826865396,0.0001967589876,0.0004794455272,0.002794116021,0.0002641390954,0.003058255116,0.002227708963,0.0004442351885,0.002671944152,0.002862224771,0.0004719934608,0.003334218232,0.002269049803,0.0001038551433,0.002372904946,0.001465075087,0.0008092339394,0.002274309026,0.002301532277,-1.418310211e-05,0.002287349175,0.001963783347,7.873782056e-05,0.002042521168,0.002793901056,-0.0001929735552,0.002600927501,0.0005751495399,-1.642731106e-05,0.0005587222288,0.003291767147,0.0007937108126,0.00408547796,0.001994955789,0.0001466153075,0.002141571097,0.002882109965,1.246678979e-05,0.002894576755,0.001413158123,7.349727302e-05,0.001486655396,0.002921151879,0.000422252552,0.003343404431,0.004670692726,-0.0005689820259,0.0041017107,0.002341178394,7.895366724e-05,0.002420132062,0.00313518446,2.588732063e-05,0.00316107178,0.00271262583,0.0007731635043,0.003485789335,0.003374408338,-0.0001792607692,0.003195147568
1.8,0.001472263273,-5.169536024e-05,0.001420567912,0.002659013703,-5.895497388e-05,0.002600058729,0.001123574438,-0.0002051944201,0.0009183800176,0.001675877693,0.0002041398495,0.001880017543,0.0020075211,-4.629082079e-05,0.001961230279,0.003148423608,-0.0001388274849,0.003009596123,0.002464893172,8.692507393e-05,0.002551818246,0.002179749595,1.201932924e-05,0.002191768924,0.0008770814203,-0.0001818733727,0.0006952080476,0.001984627841,-0.0002733512321,0.001711276608,0.002005475066,-0.0004514192232,0.001554055842,0.00181051819,-0.0003672854635,0.001443232726,0.002543152518,1.74153037e-06,0.002544894048,0.0006057119009,3.071529666e-05,0.0006364271976,0.002263911475,8.424176398e-06,0.002272335652,0.001247863493,-2.094515774e-05,0.001226918335,0.0004126878731,0.0002108143225,0.0006235021956,0.002929868723,0.0002707574956,0.003200626219,0.002394174004,0.0004668562257,0.00286103023,0.00297646341,0.0004714740473,0.003447937457,0.002341354325,0.0001072290361,0.002448583361,0.001530496548,0.000816572951,0.002347069499,0.00236315452,-2.243827328e-05,0.002340716246,0.002073319195,1.022888816e-05,0.002083548083,0.002893125291,-0.000183191237,0.002709934054,0.0006207542721,-1.41603674e-05,0.0006065939047,0.003469532156,0.0007382984642,0.00420783062,0.00207894233,0.000146782746,0.002225725076,0.003018502698,1.014062786e-05,0.003028643325,0.001546235638,8.303494648e-05,0.001629270585,0.003113577927,0.0004263161621,0.003539894089,0.004918596655,-0.0005784092341,0.004340187421,0.002498523037,5.623200885e-05,0.002554755046,0.003268066003,6.84534923e-05,0.003336519495,0.002623373363,0.0009384305497,0.003561803913,0.003456298784,-2.242184414e-05,0.00343387694
1.9,0.001438804305,-6.163884675e-05,0.001377165458,0.002665274984,-6.29473685e-05,0.002602327615,0.001145018253,-0.0002188593946,0.0009261588582,0.001770986952,0.0002046771605,0.001975664112,0.002115519198,-6.157111822e-05,0.00205394808,0.003268088665,-0.0001668766282,0.003101212037,0.002556083268,8.480054938e-05,0.002640883817,0.00228611771,1.590469665e-05,0.002302022406,0.0009536296452,-0.0001965906033,0.0007570390419,0.002078906247,-0.0002885003753,0.001790405872,0.002064371087,-0.0004823131954,0.001582057891,0.001932365855,-0.0003727650833,0.001559600772,0.00267775379,-4.769262067e-06,0.002672984528,0.0006866776337,3.658782403e-05,0.0007232654577,0.002370010181,2.507268019e-06,0.002372517449,0.001354991544,-2.273062676e-05,0.001332260917,0.000545496744,0.0002242054204,0.0007697021643,0.003064549676,0.0002766821008,0.003341231777,0.002560315346,0.0004890598923,0.003049375238,0.003090131154,0.0004691671534,0.003559298308,0.002410764026,0.0001107451457,0.002521509172,0.001598883361,0.0008171129503,0.002415996311,0.002423766269,-3.104085636e-05,0.002392725412,0.002181153983,-5.788273976e-05,0.002123271244,0.002991088674,-0.00017131743,0.002819771244,0.0006665727982,-1.184336523e-05,0.0006547294329,0.003647738444,0.0006817851906,0.004329523635,0.002163859617,0.0001464919556,0.002310351572,0.003156513725,7.889157605e-06,0.003164402882,0.001679494154,9.252399518e-05,0.00177201815,0.003316883147,0.0004295137084,0.003746396856,0.005160554813,-0.0005835315986,0.004577023214,0.00265662413,3.330856698e-05,0.002689932697,0.003393421095,0.0001159001777,0.003509321273,0.002530534186,0.001096860206,0.003627394392,0.003541797787,0.000138284029,0.003680081816
2.0,0.00140331788,-7.128965215e-05,0.001332028228,0.002668929763,-6.714307458e-05,0.002601786688,0.00116747783,-0.0002324660302,0.0009350118,0.001864226159,0.0002049218312,0.002069147991,0.002221722108,-7.723100197e-05,0.002144491106,0.003384744228,-0.0001927373301,0.003192006898,0.002645738476,8.256484041e-05,0.002728303317,0.002391674155,2.100443518e-05,0.00241267859,0.00103337136,-0.0002110238599,0.0008223475004,0.002175364285,-0.0003031710335,0.001872193251,0.002121512341,-0.0005128960213,0.001608616319,0.002055035488,-0.0003781270133,0.001676908475,0.002814325342,-1.130227985e-05,0.002803023062,0.0007678603397,4.311044206e-05,0.0008109707818,0.002476519623,-3.265865369e-06,0.002473253757,0.001463693026,-2.443760696e-05,0.001439255419,0.0006809277378,0.0002368936657,0.0009178214035,0.003197789561,0.0002818646477,0.003479654208,0.002725701876,0.0005107795828,0.003236481458,0.003203009664,0.0004651628588,0.003668172523,0.002477071903,0.0001143886092,0.002591460512,0.001670035936,0.0008109287388,0.002480964675,0.002483284855,-3.997163717e-05,0.002443313218,0.002286788439,-0.0001251308888,0.002161657551,0.003087862655,-0.0001574360884,0.002930426566,0.0007125629588,-9.484793222e-06,0.0007030781655,0.003825740997,0.0006249598799,0.004450700877,0.002249622965,0.0001458272051,0.00239545017,0.003296045928,5.72476382e-06,0.003301770692,0.001812789534,0.0001018583124,0.001914647847,0.003530231048,0.0004319022486,0.003962133297,0.005395871273,-0.0005846784643,0.004811192809,0.002814790125,1.057148295e-05,0.002825361608,0.003512160512,0.0001670930135,0.003679253526,0.002436450415,0.001246724927,0.003683175342,0.003632355576,0.0003006470537,0.003933002629
2.1,0.001366065425,-8.064151948e-05,0.001285423906,0.002670056398,-7.159139511e-05,0.002598465003,0.001191051309,-0.0002459884697,0.000945062839,0.001955253277,0.0002048872287,0.002160140505,0.002325877465,-9.323888625e-05,0.002232638579,0.003498046073,-0.000216130568,0.003281915505,0.002733640031,8.018297101e-05,0.002813823002,0.002496297536,2.728448873e-05,0.002523582024,0.001116288481,-0.0002251213435,0.0008911671373,0.002273942908,-0.0003173084264,0.001956634482,0.002176792579,-0.0005430812372,0.001633711342,0.002178298014,-0.0003832775411,0.001795020472,0.002952632821,-1.787286473e-05,0.002934759957,0.0008490160164,5.02021876e-05,0.000899218204,0.002583247409,-8.842579611e-06,0.00257440483,0.001573771037,-2.597736295e-05,0.001547793674,0.0008187952838,0.0002488457605,0.001067641044,0.003329212328,0.0002862710086,0.003615483336,0.002889893794,0.0005319569224,0.003421850717,0.003314877221,0.0004595719214,0.003774449143,0.002540093033,0.0001181423199,0.002658235353,0.001743665549,0.0007982087277,0.002541874277,0.002541636586,-4.920909528e-05,0.002492427491,0.002389750344,-0.0001910957362,0.002198654608,0.003183575717,-0.0001416928913,0.003041882826,0.0007586884998,-7.093717683e-06,0.0007515947821,0.004002939684,0.0005685699904,0.004571509675,0.002336158466,0.0001448709079,0.002481029374,0.003436990051,3.669245923e-06,0.003440659297,0.001945973578,0.0001109408285,0.002056914407,0.0037526386,0.0004335123874,0.004186150988,0.005623841073,-0.0005821611454,0.005041679927,0.002972308853,-1.159332064e-05,0.002960715532,0.003625306055,0.000220782186,0.003846088241,0.002343647531,0.001386278591,0.003729926123,0.003729345621,0.0004623692986,0.00419171492
2.2,0.001327335136,-8.968976134e-05,0.001237645375,0.002668762726,-7.633911349e-05,0.002592423613,0.001215845402,-0.000259400712,0.0009564446904,0.002043742561,0.0002045848157,0.002248327376,0.00242774115,-0.0001095624447,0.002318178706,0.003607712431,-0.0002368523871,0.003370860044,0.00281957733,7.761938592e-05,0.002897196715,0.002599895075,3.469483348e-05,0.002634589908,0.001202332942,-0.0002388350011,0.0009634979407,0.002374553205,-0.0003308600047,0.002043693201,0.002230116994,-0.0005727860637,0.00165733093,0.002301917028,-0.0003881053926,0.001913811635,0.003092440933,-2.449773947e-05,0.003067943194,0.0009299264552,5.778518401e-05,0.0009877116392,0.002690010323,-1.416999187e-05,0.002675840332,0.001685018909,-2.726038067e-05,0.001657758529,0.0009589136541,0.0002600318721,0.001218945526,0.003458436471,0.0002898821702,0.003748318641,0.003052445065,0.0005525424287,0.003604987494,0.00342550439,0.0004525255497,0.003878029939,0.002599666363,0.0001219868622,0.002721653225,0.001819399684,0.0007792473571,0.002598647041,0.002598756648,-5.872926065e-05,0.002540027388,0.002489595283,-0.0002554055132,0.00223418977,0.003278405749,-0.0001242904602,0.003154115288,0.0008049200026,-4.679275034e-06,0.0008002407276,0.00417878704,0.0005133091177,0.004692096157,0.002423401612,0.0001437033272,0.002567104939,0.003579222843,1.754983012e-06,0.003580977826,0.002078891367,0.0001196855039,0.002198576871,0.00398299487,0.0004343422227,0.004417337093,0.005843768837,-0.0005762718907,0.005267496947,0.003128458396,-3.281053557e-05,0.003095647861,0.003733948116,0.0002756308984,0.004009579015,0.002254784006,0.001513799049,0.003768583055,0.003834014816,0.0006211253584,0.004455140174
2.3,0.001287438371,-9.843032288e-05,0.001189008048,0.002665182204,-8.142806796e-05,0.002583754136,0.001241972305,-0.0002726769,0.0009692954051,0.002129386188,0.0002040237061,0.002333409894,0.002527076674,-0.0001261688652,0.002400907809,0.003713525939,-0.000254782807,0.003458743132,0.002903346072,7.483914815e-05,0.002978185221,0.002702402499,4.316991974e-05,0.002745572419,0.001291422534,-0.0002521211897,0.001039301345,0.00247707225,-0.000343775868,0.002133296382,0.002281401228,-0.0006019327008,0.001679468527,0.002425646507,-0.0003924844201,0.002033162087,0.003233511425,-3.119315623e-05,0.003202318269,0.001010396462,6.578471682e-05,0.001076181179,0.002796634646,-1.919657904e-05,0.002777438067,0.001797219458,-2.819966374e-05,0.001769019794,0.001101094727,0.000270423968,0.001371518695,0.003585074103,0.0002926951186,0.003877769221,0.003212904581,0.0005724956236,0.003785400205,0.003534647761,0.0004441758243,0.003978823586,0.002655654341,0.0001259005589,0.0027815549,0.001896785809,0.0007544402133,0.002651226022,0.002654586616,-6.850585673e-05,0.00258608076,0.002585904189,-0.0003177354781,0.002268168711,0.003372568038,-0.0001054806119,0.003267087426,0.0008512337069,-2.250021248e-06,0.0008489836856,0.004352792054,0.0004598077486,0.004812599803,0.002511292399,0.0001424035001,0.002653695899,0.003722604059,2.485999789e-08,0.003722628919,0.002211377481,0.0001280185286,0.002339396009,0.004220082221,0.000434354948,0.004654437169,0.006054995242,-0.0005672914631,0.005487703779,0.003282516231,-5.272244389e-05,0.003229793787,0.003839193797,0.0003302530912,0.004169446889,0.002172576545,0.001627646153,0.003800222698,0.003947431708,0.000774627842,0.00472205955
2.4,0.001246704477,-0.0001068588263,0.001139845651,0.002659467846,-8.689222707e-05,0.002572575619,0.001269544642,-0.000285791626,0.0009837530161,0.00221189396,0.0002032104686,0.002415104429,0.002623651633,-0.0001430250829,0.00248062655,0.003815327447,-0.0002698884621,0.003545438985,0.00298474418,7.180909407e-05,0.003056553274,0.002803780933,5.2630159e-05,0.002856411092,0.001383435281,-0.000264941019,0.001118494262,0.002581337603,-0.0003560090188,0.002225328584,0.002330568822,-0.0006304493871,0.001700119435,0.002549228207,-0.0003962778981,0.002152950309,0.003375600764,-3.797413246e-05,0.003337626631,0.001090248988,7.412931041e-05,0.001164378298,0.002902954227,-2.387344803e-05,0.002879080779,0.001910143834,-2.871475374e-05,0.001881429081,0.001245143327,0.0002799947918,0.001525138118,0.003708728333,0.0002947233997,0.004003451732,0.003370816074,0.0005917845734,0.003962600647,0.003642044073,0.0004346951772,0.00407673925,0.002707940969,0.0001298594361,0.002837800405,0.001975294656,0.0007242799023,0.002699574558,0.002709070488,-7.851063685e-05,0.002630559851,0.002678279022,-0.0003778043755,0.002300474646,0.00346630068,-8.555508704e-05,0.003380745593,0.0008976083517,1.867764173e-07,0.0008977951281,0.004524521243,0.000408626163,0.004933147405,0.002599768522,0.0001410502064,0.002740818728,0.003866972618,-1.469162875e-06,0.003865503455,0.0023432514,0.0001358792297,0.00247913063,0.00446259832,0.0004334818231,0.004896080143,0.006256923665,-0.0005555000942,0.005701423571,0.00343376572,-7.099351261e-05,0.003362772208,0.003942111753,0.0003832573984,0.004325369151,0.00209971143,0.00172632566,0.00382603709,0.004070443011,0.0009206889691,0.00499113198
2.5,0.00120547458,-0.0001149696751,0.001090504905,0.00265178463,-9.275459866e-05,0.002559030031,0.00129866944,-0.0002987201284,0.0009999493113,0.002290991835,0.0002021491413,0.002493140976,0.00271723273,-0.0001600979083,0.002557134822,0.003913002261,-0.0002822179515,0.003630784309,0.003063566581,6.849904117e-05,0.003132065622,0.002904011989,6.29840376e-05,0.002966996026,0.001478204374,-0.0002772602572,0.001200944117,0.002687142625,-0.0003675155242,0.002319627101,0.002377548612,-0.0006582710187,0.001719277593,0.002672389644,-0.0003993439316,0.002273045712,0.003518458164,-4.485461499e-05,0.00347360355,0.001169319557,8.27507605e-05,0.001252070317,0.003008807297,-2.815519811e-05,0.002980652099,0.002023550009,-2.873560526e-05,0.001994814403,0.001390851011,0.0002887177656,0.001679568777,0.003828990523,0.000295996935,0.004124987458,0.00352571748,0.0006103848654,0.004136102346,0.003747406172,0.000424274288,0.00417168046,0.00275642927,0.0001338370713,0.002890266341,0.002054324691,0.0006893499067,0.002743674598,0.002762150777,-8.871367368e-05,0.002673437103,0.002766338315,-0.0004353689365,0.002330969379,0.00355984957,-6.48352029e-05,0.003495014367,0.0009440209312,2.625813407e-06,0.0009466467446,0.004693597987,0.0003602489529,0.005053846939,0.002688758764,0.0001397222733,0.002828481037,0.004012143271,-2.668647381e-06,0.004009474624,0.002474313002,0.0001432210566,0.002617534058,0.004709179637,0.0004316282837,0.005140807921,0.00644903812,-0.0005411843392,0.005907853781,0.00358150003,-8.731305962e-05,0.00349418697,0.004043680486,0.0004332939306,0.004476974416,0.002038751387,0.001808552584,0.003847303971,0.004203643709,0.001057270717,0.005260914426
2.6,0.001164095255,-0.0001227553081,0.001041339947,0.002642301861,-9.90246935e-05,0.002543277167,0.001329442558,-0.000311438314,0.001018004244,0.002366420669,0.0002008413232,0.002567261993,0.002807581675,-0.0001773540337,0.002630227641,0.00400646094,-0.0002918903462,0.003714570593,0.00313960068,6.488301962e-05,0.0032044837,0.003003092952,7.413018295e-05,0.003077223135,0.001575515771,-0.0002890488237,0.001286466947,0.00279423461,-0.0003782546031,0.002415980007,0.002422273677,-0.0006853392709,0.001736934406,0.002794843271,-0.000401541311,0.00239330196,0.003661824823,-5.184826096e-05,0.003609976562,0.001247451716,9.158410054e-05,0.001339035817,0.003114033509,-3.200039127e-05,0.003082033118,0.002137181402,-2.820558872e-05,0.002108975814,0.001537989742,0.0002965678383,0.00183455758,0.003945438854,0.000296561065,0.004241999919,0.003677140886,0.0006282780633,0.004305418949,0.003850421461,0.0004131188098,0.004263540271,0.00280103949,0.0001378044541,0.002938843944,0.002133208927,0.0006503153105,0.002783524237,0.002813766461,-9.908338002e-05,0.002714683081,0.002849714144,-0.0004902166372,0.002359497507,0.003653454779,-4.366079895e-05,0.00360979398,0.0009904427357,5.064311273e-06,0.000995507047,0.004859698348,0.000315084045,0.005174782393,0.002778178255,0.0001384982967,0.002916676552,0.004157905559,-3.511961587e-06,0.004154393597,0.002604339665,0.0001500125324,0.002754352198,0.004958426625,0.0004286815583,0.005387108184,0.006630909949,-0.0005246353905,0.006106274558,0.003725024662,-0.0001013982537,0.003623626408,0.004144745819,0.0004790999217,0.00462384574,0.001992049031,0.00187330699,0.003865356021,0.004347358087,0.001182524269,0.005529882355
2.7,0.001122913289,-0.0001302057482,0.0009927075409,0.002631187522,-0.0001056974992,0.002525490023,0.001361945084,-0.0003239226161,0.001038022467,0.002437936684,0.0001992862528,0.002637222937,0.002894454364,-0.0001947599537,0.00269969441,0.004095618855,-0.0002990791926,0.003796539662,0.003212624419,6.094035834e-05,0.003273564778,0.003101033391,8.595927387e-05,0.003186992664,0.001675109833,-0.0003002800147,0.001374829818,0.002902316892,-0.0003881885888,0.002514128303,0.002464682869,-0.0007116022819,0.001753080587,0.002916287453,-0.0004027354782,0.002513551975,0.003805434973,-5.896933698e-05,0.003746465636,0.001324494831,0.0001005675791,0.00142506241,0.003218472534,-3.537174371e-05,0.00318310079,0.002250766726,-2.708356494e-05,0.002223683161,0.001686306707,0.0003035232766,0.001989829984,0.004057639235,0.000296475163,0.004354114398,0.003824614207,0.0006454497996,0.004470064007,0.00395075352,0.0004014454016,0.004352198922,0.002841709258,0.0001417299799,0.002983439237,0.002211224641,0.0006079107069,0.002819135348,0.002863853915,-0.0001095862517,0.002754267663,0.002928051872,-0.0005421570201,0.002385894852,0.003747338942,-2.237885263e-05,0.00372496009,0.001036837105,7.502409065e-06,0.001044339514,0.005022541474,0.0002734699059,0.00529601138,0.002867926404,0.0001374563216,0.003005382726,0.004304025993,-3.937669966e-06,0.004300088323,0.002733086479,0.0001562377357,0.002889324214,0.005208929136,0.0004245206202,0.005633449756,0.006802197447,-0.000506140201,0.006296057246,0.003863659908,-0.0001129988979,0.00375066101,0.004245991075,0.0005195403085,0.004765531383,0.001961681147,0.001919870442,0.00388155159,0.004501627314,0.001294824242,0.005796451557
2.8,0.001082272369,-0.0001373085247,0.0009449638443,0.002618605833,-0.0001127542487,0.002505851584,0.001396242365,-0.000336149742,0.001060092623,0.002505314314,0.0001974809338,0.002702795247,0.002977604427,-0.0002122818286,0.002765322599,0.004180379939,-0.0003039955739,0.003876384365,0.003282407792,5.66565438e-05,0.003339064336,0.003197853378,9.835626563e-05,0.003296209644,0.001776686827,-0.0003109297323,0.001465757094,0.003011054677,-0.0003972828736,0.002613771803,0.002504724717,-0.0007370140965,0.00176771062,0.003036409323,-0.0004028044029,0.00263360492,0.003949018753,-6.623321033e-05,0.003882785543,0.001400304342,0.0001096427337,0.001509947076,0.00332196463,-3.823625234e-05,0.003283728377,0.002364021879,-2.534541771e-05,0.002338676461,0.001835521173,0.0003095680655,0.002145089238,0.004165149207,0.0002958108845,0.004460960091,0.00396766522,0.0006618877158,0.004629552935,0.004048047173,0.000389477197,0.00443752437,0.002878395883,0.000145579604,0.003023975487,0.002287606362,0.0005629255686,0.002850531931,0.002912350216,-0.0001201865523,0.002792163663,0.003001014068,-0.0005910137696,0.002410000299,0.003841697363,-1.332077646e-06,0.003840365285,0.001083159623,9.943310147e-06,0.001093102934,0.005181876274,0.0002356904376,0.005417566711,0.002957887583,0.0001366738042,0.003094561387,0.004450252777,-3.887551942e-06,0.004446365225,0.00286028936,0.000161896132,0.003022185492,0.005459289705,0.0004190295582,0.005878319263,0.006962642214,-0.0004859694724,0.006476672742,0.003996744051,-0.0001219035176,0.003874840534,0.00434792102,0.0005536403214,0.004901561341,0.001949410856,0.001947835698,0.003897246554,0.004666202089,0.001392800579,0.006059002669
2.9,0.001042511432,-0.0001440488334,0.0008984625987,0.00260471742,-0.000120164326,0.002484553094,0.001432384794,-0.000348096394,0.0010842884,0.002568350626,0.0001954204352,0.002763771061,0.003056789697,-0.0002298853108,0.002826904386,0.004260627925,-0.000306872879,0.003953755046,0.003348716789,5.202388896e-05,0.003400740678,0.003293582283,0.000111203418,0.003404785701,0.001879914057,-0.0003209760336,0.001558938023,0.003120082654,-0.0004055061091,0.002714576545,0.002542362074,-0.0007615341796,0.001780827894,0.003154888666,-0.000401644042,0.002753244624,0.004092305474,-7.365631206e-05,0.004018649162,0.001474743167,0.0001187545245,0.001593497691,0.0034243523,-4.056543114e-05,0.003383786869,0.002476653548,-2.298516772e-05,0.002453668381,0.001985323774,0.0003146939458,0.00230001772,0.004267524587,0.0002946497332,0.004562174321,0.004105827351,0.0006775795657,0.004783406917,0.004141935579,0.0003774389796,0.004519374559,0.002911079631,0.0001493171149,0.003060396746,0.002361561822,0.000516186955,0.002877748777,0.002959196609,-0.0001308461863,0.002828350422,0.003068289109,-0.0006366213289,0.00243166778,0.003936689511,1.915153671e-05,0.003955841048,0.001129360137,1.239310622e-05,0.001141753243,0.005337469135,0.0002019915788,0.005539460714,0.003047933866,0.0001362275437,0.00318416141,0.004596320853,-3.308974547e-06,0.004593011879,0.002985668936,0.0001670020382,0.003152670975,0.005708142274,0.0004121140067,0.006120256281,0.007112064169,-0.0004643685515,0.006647695618,0.004123638136,-0.0001279459177,0.003995692218,0.004450858294,0.0005806072687,0.005031465563,0.001956670514,0.001957094499,0.003913765013,0.00484054207,0.001475364935,0.006315907004
3.0,0.00100396338,-0.0001504096995,0.0008535536805,0.002589680508,-0.0001278874718,0.002461793036,0.001470408458,-0.0003597390707,0.001110669387,0.002626869513,0.000193098365,0.002819967878,0.003131778454,-0.0002475353642,0.002884243089,0.004336223276,-0.0003079533732,0.004028269902,0.003411317583,4.704196379e-05,0.003458359546,0.003388256794,0.0001243838241,0.003512640618,0.001984431674,-0.000330399162,0.001654032512,0.003229011609,-0.0004128307575,0.002816180852,0.002577575386,-0.0007851272415,0.001792448144,0.003271401223,-0.0003991728033,0.00287222842,0.004235024838,-8.125597611e-05,0.004153768862,0.001547682353,0.0001278514057,0.001675533758,0.003525481484,-4.233563053e-05,0.003483145853,0.002588362926,-2.001542221e-05,0.002568347504,0.002135377775,0.0003189012134,0.002454278989,0.004364327445,0.0002930799186,0.004657407363,0.004238645596,0.0006925119947,0.004931157591,0.004232046689,0.0003655527157,0.004597599404,0.00293976613,0.0001529045305,0.003092670661,0.002432289713,0.0004685395658,0.002900829279,0.003004339941,-0.0001415248434,0.002862815097,0.003129602929,-0.0006788281887,0.002450774741,0.004032431834,3.87666204e-05,0.004071198454,0.001175384904,1.486028148e-05,0.001190245186,0.005489096535,0.0001725919412,0.005661688476,0.003137928428,0.0001361929913,0.00327412142,0.004741955103,-2.156637995e-06,0.004739798465,0.003108932719,0.0001715840341,0.003280516754,0.005954164648,0.0004037182853,0.006357882933,0.007250359478,-0.0004415595077,0.00680879997,0.004243732918,-0.0001310120632,0.004112720855,0.004554948015,0.0005998394584,0.005154787473,0.001984553264,0.001947813797,0.003932367061,0.00502382507,0.001541725555,0.006565550625
3.1,0.0009669529223,-0.0001563720614,0.000810580861,0.002573651776,-0.0001358758671,0.002437775909,0.001510334194,-0.0003710540296,0.001139280164,0.00268072424,0.000190507361,0.002871231601,0.003202352831,-0.0002651961235,0.002937156708,0.004407001256,-0.0003074756928,0.004099525564,0.003469979106,4.171763562e-05,0.003511696741,0.003481917546,0.0001377841803,0.003619701727,0.002089855451,-0.0003391819199,0.001750673531,0.003337432139,-0.0004192337345,0.002918198405,0.002610363346,-0.0008077633492,0.001802599996,0.003385620197,-0.0003953343488,0.002990285848,0.004376904574,-8.905068026e-05,0.004287853894,0.00161899976,0.0001368852825,0.001755885042,0.003625201145,-4.352821635e-05,0.003581672928,0.002698847948,-1.646703344e-05,0.002682380915,0.002285320951,0.0003221984305,0.002607519381,0.004455133516,0.0002911930464,0.004746326562,0.004365681038,0.0007066702982,0.005072351336,0.004318007222,0.0003540338153,0.004672041037,0.002964486674,0.0001563026968,0.003120789371,0.002498997715,0.0004208238585,0.002919821574,0.003047731255,-0.000152180372,0.002895550883,0.0031847309,-0.0007175054363,0.002467225464,0.004128991951,5.723472156e-05,0.004186226672,0.001221177281,1.735506276e-05,0.001238532344,0.005636542377,0.0001476839899,0.005784226367,0.003227727988,0.0001366427515,0.003364370739,0.004886870881,-3.939089634e-07,0.004886476972,0.003229774646,0.000175684174,0.00340545882,0.006196085069,0.0003938389813,0.006589924051,0.007377505039,-0.0004177577519,0.006959747287,0.004356457137,-0.0001310468729,0.004225410264,0.004660163999,0.0006109243437,0.005271088342,0.002033806815,0.001920406905,0.00395421372,0.005214967165,0.001591388693,0.006806355858
3.2,0.0009317931103,-0.0001619149034,0.0007698782069,0.002556786079,-0.0001440759554,0.002412710123,0.001552164747,-0.00038201743,0.001170147317,0.002729797919,0.0001876394611,0.00291743738,0.003268308653,-0.0002828308145,0.002985477838,0.004472768898,-0.0003056639233,0.004167104975,0.003524473487,3.6064649e-05,0.003560538136,0.003574604364,0.0001512956725,0.003725900036,0.002195776903,-0.0003473100098,0.001848466893,0.003444915427,-0.0004246967518,0.003020218675,0.002640741142,-0.000829418031,0.001811323111,0.00349721589,-0.0003900986559,0.003107117234,0.004517664959,-9.70608815e-05,0.004420604077,0.00168857663,0.0001458114183,0.001834388048,0.003723361031,-4.412944129e-05,0.00367923159,0.002807803357,-1.238803268e-05,0.002795415324,0.00243476679,0.0003246018139,0.002759368604,0.004539537865,0.000289081052,0.004828618917,0.004486513374,0.0007200388547,0.005206552229,0.004399444376,0.0003430877284,0.004742532105,0.002985296239,0.0001594721006,0.00314476834,0.002560919542,0.0003738537478,0.00293477329,0.003089322205,-0.0001627693135,0.002926552891,0.003233506907,-0.0007525567116,0.002480950195,0.004226384221,7.430543748e-05,0.004300689658,0.001266676411,1.988882305e-05,0.001286565234,0.005779596862,0.0001274285808,0.005907025443,0.0033171833,0.0001376445881,0.003454827888,0.005030772456,2.006104434e-06,0.00503277856,0.003347872764,0.0001793564516,0.003527229215,0.006432684766,0.0003825316392,0.006815216405,0.007493568024,-0.0003931974489,0.007100370575,0.004461284757,-0.0001280595387,0.004333225218,0.004766311504,0.0006136310916,0.005379942595,0.00210482711,0.001875503627,0.003980330737,0.005412651403,0.001624150742,0.007036802145
3.3,0.0008987807786,-0.0001670155373,0.0007317652413,0.002539234789,-0.0001524298618,0.002386804927,0.001595880676,-0.0003926055846,0.001203275091,0.002774002257,0.0001844863822,0.002958488639,0.003329452624,-0.0003004016872,0.003029050937,0.004533301265,-0.0003027192275,0.004230582038,0.00357457486,3.01028314e-05,0.003604677691,0.003666350537,0.0001648129423,0.003831163479,0.002301762466,-0.0003547720238,0.001946990442,0.003551012542,-0.0004292061438,0.003121806398,0.002668737495,-0.0008500720516,0.001818665443,0.003605854545,-0.0003834621308,0.003222392414,0.00465701173,-0.0001053100518,0.004551701678,0.001756292883,0.0001545883489,0.001910881232,0.003819808325,-4.413013091e-05,0.003775678194,0.002914918602,-7.841750637e-06,0.002907076852,0.002583304434,0.0003261347205,0.002909439154,0.004617158658,0.0002868332285,0.004903991886,0.004600741626,0.0007326017171,0.005333343343,0.00447598654,0.0003329063271,0.004808892867,0.003002269988,0.0001623737203,0.003164643708,0.0026173303,0.0003283955538,0.002945725854,0.003129060824,-0.0001732474989,0.002955813325,0.003275827582,-0.0007839252899,0.002491902292,0.004324566644,8.975580537e-05,0.004414322449,0.001311814527,2.247359257e-05,0.00133428812,0.005918054704,0.0001119477643,0.006030002468,0.003406137765,0.000139259429,0.003545397194,0.005173350526,5.059677994e-06,0.005178410204,0.00346288664,0.000182664198,0.003645550838,0.006662797726,0.000369910713,0.007032708439,0.007598716689,-0.0003681584781,0.007230558211,0.004557739665,-0.0001221261438,0.004435613521,0.004873025554,0.0006079015296,0.005480927084,0.002197648045,0.001813927118,0.004011575163,0.005615360491,0.001640087645,0.007255448136
3.4,0.0008681914775,-0.0001716499661,0.0006965415114,0.002521143286,-0.0001608763077,0.002360266978,0.001641436234,-0.0004027952023,0.001238641032,0.002813275526,0.000181039871,0.002994315397,0.003385598841,-0.0003178698704,0.00306772897,0.004588337008,-0.0002988125941,0.004289524414,0.003620057831,2.385711466e-05,0.003643914945,0.003757177088,0.0001782319575,0.003935409046,0.002407353925,-0.0003615590233,0.002045794902,0.003655254354,-0.0004327522711,0.003222502083,0.002694392011,-0.0008697107351,0.001824681276,0.003711197642,-0.0003754475501,0.003335750092,0.004794629112,-0.0001138254095,0.004680803703,0.00182202262,0.0001631777915,0.001985200411,0.003914384453,-4.352542902e-05,0.003870859024,0.003019874202,-2.904008398e-06,0.003016970193,0.00273049755,0.000326827264,0.003057324814,0.004687639727,0.0002845331266,0.004972172853,0.004707983821,0.0007443432688,0.00545232709,0.00454726433,0.0003236642078,0.004870928537,0.00301549957,0.0001649697265,0.003180469297,0.002667560405,0.0002851491422,0.002952709548,0.003166888587,-0.0001835705154,0.002983318072,0.003311651378,-0.000811595766,0.002500055612,0.004423439429,0.0001033894927,0.004526828922,0.001356514071,2.512161911e-05,0.00138163569,0.006051713841,0.0001013179402,0.006153031782,0.003494424988,0.0001415398799,0.003635964868,0.005314280021,8.771774401e-06,0.005323051795,0.003574455945,0.0001856768747,0.003760132819,0.006885308316,0.0003561452915,0.007241453608,0.007693228433,-0.0003429906126,0.007350237821,0.004645398705,-0.00011338953,0.004532009175,0.004979766884,0.0005938425177,0.005573609402,0.002311923864,0.001736686531,0.004048610395,0.005821409594,0.001639546809,0.007460956402
3.5,0.0008402748699,-0.0001757933205,0.0006644815494,0.002502648729,-0.0001693511254,0.002333297604,0.001688756796,-0.0004125635369,0.001276193259,0.002847581195,0.0001772922462,0.003024873441,0.003436567126,-0.0003351951177,0.003101372009,0.004637572658,-0.0002940761622,0.004343496496,0.003660697295,1.73565976e-05,0.003678053893,0.003847088414,0.0001914477161,0.004038536131,0.002512072015,-0.0003676638616,0.002144408154,0.003757154174,-0.0004353288234,0.003321825351,0.002717754297,-0.0008883229308,0.001829431366,0.003812902482,-0.0003661037006,0.003446798781,0.004930175071,-0.0001226384355,0.004807536636,0.001885631562,0.0001715445428,0.002057176105,0.004006923376,-4.231465207e-05,0.003964608724,0.003122337881,2.340357736e-06,0.003124678238,0.002875883307,0.0003267159537,0.00320259926,0.004750652958,0.0002822554787,0.005032908437,0.004807876831,0.0007552492166,0.005563126047,0.004612913155,0.0003155156258,0.004928428781,0.003025090748,0.0001672240786,0.003192314827,0.002711009611,0.0002447311908,0.002955740802,0.003202740467,-0.0001936938492,0.003009046617,0.003340994711,-0.0008355909302,0.00250540378,0.004522845826,0.000115036939,0.004637882765,0.001400686009,2.784494342e-05,0.001428530953,0.006180377121,9.556286561e-05,0.006275939986,0.003581866496,0.0001445295397,0.003726396035,0.00545321923,1.3135659e-05,0.005466354889,0.003682201169,0.0001884672702,0.003870668439,0.007099146809,0.0003414544921,0.007440601301,0.00777748814,-0.0003181279179,0.007459360222,0.004723894582,-0.0001020567669,0.004621837815,0.005085818426,0.0005717229067,0.005657541333,0.002446907928,0.001644985842,0.00409189377,0.006028979906,0.001623141858,0.007652121764
3.6,0.0008152517361,-0.0001794205368,0.0006358311993,0.002483879072,-0.0001777876035,0.002306091469,0.001737739197,-0.0004218884424,0.001315850755,0.002876908674,0.0001732370745,0.003050145749,0.003482185474,-0.0003523355126,0.003129849961,0.004680656964,-0.0002885933153,0.004392063648,0.003696271143,1.063385104e-05,0.003706904994,0.003936070775,0.0002043524406,0.004140423216,0.00261542418,-0.0003730804596,0.002242343721,0.003856214518,-0.0004369323427,0.003419282175,0.002738885626,-0.0009058998198,0.001832985806,0.00391062463,-0.0003555041487,0.003555120481,0.005063280498,-0.0001317853163,0.004931495181,0.001946977734,0.000179656432,0.002126634166,0.004097252298,-4.050111266e-05,0.004056751186,0.003221962253,7.801106161e-06,0.003229763359,0.003018973495,0.0003258430556,0.003344816551,0.004805901541,0.0002800634856,0.005085965027,0.004900077597,0.0007653079154,0.005665385513,0.004672578326,0.0003085926224,0.004981170948,0.003031163419,0.0001691032282,0.003200266647,0.002747163423,0.0002076594372,0.00295482286,0.003236548598,-0.0002035726897,0.003032975908,0.003363928633,-0.00085596661,0.002507962023,0.004622575645,0.000124556964,0.004747132609,0.001444230576,3.065495735e-05,0.001474885534,0.006303858338,9.464591614e-05,0.006398504254,0.003668271146,0.0001482629776,0.003816534123,0.005589811134,1.813309939e-05,0.005607944234,0.003785727073,0.000191109651,0.003976836724,0.007303282703,0.0003261065834,0.007629389287,0.0078519699,-0.0002940841522,0.007557885747,0.004792918879,-8.839416403e-05,0.004704524715,0.005190286497,0.0005419736782,0.005732260175,0.002601437158,0.00154023948,0.004141676638,0.006236157845,0.001591743912,0.007827901758
3.7,0.000793313122,-0.0001825073708,0.0006108057512,0.002464953658,-0.0001861169118,0.002278836746,0.001788255222,-0.000430748407,0.001357506815,0.002901276657,0.0001688698209,0.003070146478,0.00352229711,-0.0003692472534,0.003153049857,0.004717188249,-0.0002823911943,0.004434797055,0.003726566261,3.724554684e-06,0.003730290815,0.004024094129,0.0002168348376,0.004240928967,0.002716915597,-0.0003778032495,0.002339112347,0.0039519376,-0.0004375621169,0.003514375483,0.002757862627,-0.0009224337925,0.001835428834,0.004004022567,-0.0003437451085,0.003660277458,0.005193552126,-0.0001413066319,0.005052245494,0.002005915262,0.0001874843746,0.002193399637,0.004185194832,-3.809181269e-05,0.00414710302,0.003318385158,1.338594649e-05,0.003331771104,0.003159259408,0.0003242553827,0.003483514791,0.004853124709,0.0002780066212,0.00513113133,0.004984266469,0.0007745114671,0.005758777936,0.004725922802,0.000303004222,0.005028927024,0.003033854,0.0001705769994,0.003204431,0.002775612493,0.0001743367676,0.002949949261,0.003268248349,-0.0002131616544,0.003055086695,0.003380577378,-0.0008728063661,0.002507771012,0.004722371374,0.0001318396618,0.004854211035,0.001487040795,3.356186212e-05,0.001520602657,0.006421992312,9.846212674e-05,0.006520454438,0.003753437258,0.0001527661428,0.0039062034,0.005723686959,2.373522414e-05,0.005747422183,0.003884628637,0.0001936784711,0.004078307108,0.007496717538,0.0003104220062,0.007807139544,0.00791720395,-0.0002714280288,0.007645775922,0.004852224202,-7.271949491e-05,0.004779504707,0.005292111435,0.0005051831718,0.005797294607,0.002773927403,0.001424086261,0.004198013664,0.006440982319,0.001546461886,0.007987444206
3.8,0.000774620961,-0.0001850315185,0.0005895894424,0.002445985115,-0.0001942689264,0.002251716189,0.00184015678,-0.0004391226336,0.001401034147,0.002920737873,0.0001641883929,0.003084926266,0.00355677005,-0.0003858846028,0.003170885447,0.004746716637,-0.0002754388848,0.004471277752,0.003751386478,-3.332664159e-06,0.003748053813,0.004111116182,0.0002287806559,0.004339896838,0.002816060511,-0.0003818269937,0.002434233518,0.004043836951,-0.0004372204629,0.003606616488,0.002774781035,-0.0009379176712,0.001836863364,0.004092763787,-0.0003309429004,0.003761820887,0.005320577418,-0.0001512453,0.005169332118,0.002062299482,0.0001950024556,0.002257301938,0.004270575402,-3.509706605e-05,0.004235478336,0.003411232382,1.900351575e-05,0.003430235898,0.003296220167,0.0003220023623,0.003618222529,0.004892103498,0.0002761189916,0.00516822249,0.005060152209,0.0007828560438,0.005843008253,0.004772636356,0.0002988360098,0.005071472366,0.003033318633,0.0001716194893,0.003204938123,0.002796071912,0.0001450363998,0.002941108312,0.003297784156,-0.0002224147779,0.003075369378,0.003391116404,-0.000886215076,0.002504901328,0.004821936075,0.0001368098924,0.004958745967,0.001529007619,3.657395328e-05,0.001565581572,0.00653464605,0.0001068327966,0.006641478847,0.003837156825,0.0001580572302,0.003995214055,0.005854470644,2.990374101e-05,0.005884374385,0.003978497893,0.0001962469564,0.004174744849,0.007678479848,0.0002947757687,0.007973255616,0.007973741162,-0.0002507489629,0.007722992199,0.004901624059,-5.539124468e-05,0.004846232814,0.005390089498,0.0004620800964,0.005852169595,0.00296238012,0.001298397073,0.004260777193,0.006641494571,0.001488611416,0.008130105987
3.9,0.000759308708,-0.0001869734645,0.0005723352435,0.002427081642,-0.0002021736307,0.002224908012,0.001893280524,-0.0004469911974,0.001446289326,0.002935383053,0.0001591936348,0.003094576688,0.003585505477,-0.0004022000206,0.003183305456,0.004768750469,-0.0002676511547,0.004501099314,0.003770560185,-1.049653601e-05,0.003760063649,0.004197086814,0.0002400738,0.004437160614,0.002912390603,-0.0003851470918,0.002527243511,0.004131446843,-0.0004359133727,0.003695533471,0.002789757253,-0.0009523445017,0.001837412751,0.004176530454,-0.0003172312323,0.003859299221,0.005443929747,-0.0001616426535,0.005282287093,0.002115990983,0.0002021879194,0.002318178903,0.004353223044,-3.153017553e-05,0.004321692869,0.00350012141,2.456597586e-05,0.003524687386,0.003429332588,0.0003191332877,0.003748465875,0.004922665881,0.0002744184411,0.005197084322,0.005127477117,0.0007903413942,0.005917818511,0.004812444252,0.0002961494729,0.005108593725,0.003029735115,0.0001722098183,0.003201944933,0.002808395243,0.0001198917503,0.002928286994,0.003325112715,-0.0002312859157,0.0030938268,0.00339576695,-0.0008963101054,0.002499456845,0.004920941836,0.0001394303699,0.005060372206,0.001570024588,3.969673924e-05,0.001609721327,0.006641726294,0.0001195067539,0.006761233048,0.003919219772,0.000164147905,0.004083367677,0.005981782434,3.65920449e-05,0.006018374479,0.004066929524,0.0001988853866,0.004265814911,0.007847623425,0.0002795938157,0.008127217241,0.008022127806,-0.0002326274072,0.007789500398,0.004940989464,-3.679568174e-05,0.004904193782,0.005482903301,0.0004135054462,0.005896408747,0.003164404721,0.001165268197,0.004329672919,0.006835780668,0.001419678488,0.008255459157
4.0,0.0007474808024,-0.0001883168637,0.0005591639386,0.002408348431,-0.0002097627921,0.002198585639,0.00194745029,-0.000454335286,0.001493115004,0.002945342349,0.0001538898117,0.003099232161,0.003608442147,-0.000418144449,0.003190297698,0.004782765543,-0.0002588960935,0.00452386945,0.003783945921,-1.772395825e-05,0.003766221963,0.004281951473,0.0002505970023,0.004532548475,0.003005458816,-0.0003877602521,0.002617698564,0.004214327554,-0.0004336514223,0.003780676132,0.002802926653,-0.0009657078967,0.001837218756,0.004255022855,-0.000302758013,0.003952264842,0.005563173403,-0.0001725338374,0.005390639566,0.002166857093,0.0002090210336,0.002375878127,0.004432973193,-2.740721398e-05,0.004405565979,0.003584664626,2.999132411e-05,0.00361465595,0.003558080246,0.0003156940697,0.003873774316,0.004944689631,0.0002729065951,0.005217596226,0.005186020591,0.000796969713,0.005982990305,0.004845114065,0.0002949808452,0.00514009491,0.003023302244,0.0001723327141,0.003195634958,0.002812579701,9.889391975e-05,0.002911473621,0.003350202548,-0.0002397294733,0.003110473074,0.003394787161,-0.0009032120662,0.002491575095,0.005019037681,0.0001397033776,0.005158741059,0.001609990341,4.293194986e-05,0.001652922291,0.006743180148,0.0001361701102,0.006879350258,0.00399941661,0.0001710443709,0.004170460981,0.006105240424,4.374595091e-05,0.006148986375,0.004149523986,0.0002016593016,0.004351183288,0.008003229527,0.000265339429,0.008268568956,0.008062892775,-0.0002176180093,0.007845274766,0.004970242297,-1.733384549e-05,0.004952908451,0.005569156163,0.000360380891,0.005929537054,0.003377264423,0.001026989662,0.004404254085,0.007022001868,0.001341281517,0.008363283386
4.1,0.0007392106714,-0.0001890485823,0.0005501620891,0.002389887404,-0.000216971435,0.002172915969,0.002002477041,-0.0004611375383,0.001541339502,0.002950783678,0.0001482850124,0.00309906869,0.003625556028,-0.0004336677232,0.003191888305,0.004788216659,-0.000249006025,0.004539210634,0.003791435381,-2.497143395e-05,0.003766463947,0.004365652526,0.0002602320199,0.004625884546,0.003094839384,-0.0003896651809,0.002705174203,0.004292066622,-0.0004304506908,0.003861615931,0.002814439051,-0.0009780026009,0.00183643645,0.004327960181,-0.000287681508,0.004040278673,0.005677868571,-0.0001839441639,0.005493924408,0.002214770673,0.0002154849191,0.002430255592,0.004509667135,-2.274688672e-05,0.004486920248,0.003664470959,3.52055398e-05,0.003699676499,0.003681959646,0.0003117244976,0.003993684144,0.004958102333,0.0002715697507,0.005229672083,0.005235600397,0.0008027439012,0.006038344299,0.004870460399,0.0002953392202,0.005165799619,0.003014236477,0.0001719789708,0.003186215448,0.002808761657,8.189776532e-05,0.002890659422,0.003373030466,-0.0002477013033,0.003125329163,0.003388462329,-0.0009070392999,0.002481423029,0.005115856195,0.0001376706296,0.005253526824,0.00164880856,4.627649089e-05,0.001695085051,0.00683898826,0.0001564630354,0.006995451296,0.004077539215,0.0001787477055,0.004256286921,0.006224459783,5.130425838e-05,0.006275764042,0.004225888395,0.0002046277271,0.004430516122,0.008144414025,0.0002524885662,0.008396902592,0.008096538166,-0.0002062438411,0.007890294324,0.004989346345,2.589498069e-06,0.004991935843,0.005647406702,0.0003036801922,0.005951086894,0.003597945442,0.0008859872256,0.004483932668,0.007198416455,0.001255129575,0.00845354603
4.2,0.0007345376708,-0.0001891586655,0.0005453790053,0.002371795388,-0.000223738999,0.002148056389,0.002058156888,-0.000467382443,0.001590774445,0.002951908434,0.0001423913689,0.003094299803,0.003636856145,-0.0004487190625,0.003188137083,0.004784551185,-0.0002377911716,0.004546760013,0.00379295418,-3.219693548e-05,0.003760757244,0.004448128029,0.0002688599632,0.004716987992,0.003180126054,-0.0003908629485,0.002789263106,0.004364277597,-0.0004263332996,0.003937944297,0.002824452727,-0.0009892248574,0.00183522787,0.004395079453,-0.0002721662106,0.004122913242,0.005787576039,-0.0001958871127,0.005591688926,0.00225960705,0.0002215654528,0.002481172503,0.004583149821,-1.757044789e-05,0.004565579373,0.003739146079,4.014439641e-05,0.003779290476,0.003800482522,0.0003072570442,0.004107739566,0.004962878879,0.0002703804483,0.005233259327,0.005276071922,0.0008076653273,0.006083737249,0.004888347934,0.0002972038215,0.005185551756,0.003002766753,0.0001711457081,0.003173912461,0.002797203397,6.863675914e-05,0.002865840156,0.003393576421,-0.0002551596307,0.00313841679,0.003377096848,-0.0009079087698,0.002469188078,0.005211018565,0.0001334115303,0.005344430095,0.001686385877,4.972147501e-05,0.001736107352,0.006929151776,0.0001800004813,0.007109152258,0.004153380597,0.000187253012,0.004340633609,0.006339050159,5.919964089e-05,0.0063982498,0.004295636478,0.0002078412114,0.004503477689,0.008270338452,0.0002414982269,0.008511836679,0.0081235221,-0.0001989919144,0.007924530185,0.00499829757,2.257420171e-05,0.005020871772,0.005716202558,0.0002444047627,0.00596060732,0.003823238562,0.0007447479321,0.004567986494,0.007363398108,0.001162974831,0.008526372939
4.3,0.0007334636181,-0.0001886403891,0.000544823229,0.002354161616,-0.0002300103663,0.00212415125,0.002114268438,-0.0004730566769,0.001641211761,0.002948945735,0.0001362250485,0.003085170783,0.003642378653,-0.0004632475578,0.003179131095,0.004771224003,-0.0002250539839,0.004546170019,0.003788461196,-3.936174264e-05,0.003749099454,0.004529307978,0.0002763622511,0.004805670229,0.003260930798,-0.0003913569154,0.002869573883,0.004430598298,-0.000421327222,0.004009271076,0.002833128659,-0.0009993723559,0.001833756303,0.004456134054,-0.0002563789149,0.004199755139,0.005891861292,-0.0002083634995,0.005683497792,0.002301240611,0.0002272512596,0.002528491871,0.004653267365,-1.190170607e-05,0.004641365659,0.003808292285,4.475444432e-05,0.00385304673,0.003913174969,0.0003023175472,0.004215492516,0.004959037277,0.0002692996309,0.005228336908,0.005307326388,0.0008117315448,0.006119057932,0.004898693147,0.0003005209841,0.005199214131,0.002989128926,0.0001698362837,0.00315896521,0.002778272987,5.874622566e-05,0.002837019212,0.003411818648,-0.0002620658539,0.003149752795,0.003361009786,-0.0009059433901,0.002455066396,0.005304138107,0.0001270407231,0.00543117883,0.001722628777,5.325162242e-05,0.0017758804,0.007013676585,0.0002063926388,0.007220069223,0.004226735132,0.0001965469749,0.004423282107,0.006448612575,6.736018661e-05,0.006515972762,0.004358389345,0.0002113394917,0.004569728837,0.008380222167,0.0002327761632,0.00861299833,0.00814423042,-0.0001963007756,0.007947929645,0.004997115187,4.223085331e-05,0.00503934604,0.005774114194,0.000183560539,0.005957674733,0.004049822439,0.0006057397004,0.00465556214,0.007515451488,0.001066562531,0.008582014019
4.4,0.0007359497254,-0.0001874903643,0.0005484593612,0.002337065457,-0.0002357367555,0.002101328701,0.002170570987,-0.0004781492563,0.001692421731,0.002942146766,0.0001298060184,0.003071952784,0.003642181703,-0.0004772025848,0.003164979118,0.004747713289,-0.0002106018015,0.004537111487,0.003777947677,-4.643179664e-05,0.00373151588,0.004609108849,0.0002826226292,0.004891731478,0.003336884966,-0.000391152335,0.002945732631,0.004490690544,-0.000415465265,0.004075225279,0.002840626513,-0.001008443829,0.001832182685,0.004510893136,-0.0002404849839,0.004270408153,0.005990298124,-0.0002213612003,0.005768936923,0.002339542833,0.0002325337287,0.002572076562,0.004719865905,-5.767270502e-06,0.004714098635,0.003871509598,4.899291752e-05,0.003920502516,0.004019574879,0.0002969276237,0.004316502503,0.004946634026,0.0002682791472,0.005214913173,0.005329289274,0.000814934554,0.006144223828,0.004901465237,0.0003052017786,0.005206667015,0.002973561441,0.0001680598287,0.00314162127,0.002752420229,5.179256015e-05,0.002804212789,0.003427731073,-0.0002683850691,0.003159346004,0.003340534774,-0.0009012834446,0.00243925133,0.005394823105,0.0001187054737,0.005513528579,0.001757440783,5.684530992e-05,0.001814286093,0.007092560535,0.0002352603401,0.007327820876,0.004297400559,0.0002066039715,0.00450400453,0.006552737699,7.571160789e-05,0.006628449306,0.004413778749,0.0002151490054,0.004628927754,0.00847335542,0.0002266590028,0.008700014422,0.008158944467,-0.0001985400525,0.007960404415,0.004985834864,6.118532177e-05,0.005047020186,0.005819769017,0.0001221337551,0.005941902772,0.004274346969,0.0004713301274,0.004745677097,0.007653223127,0.0009675845773,0.008620807704
4.5,0.0007419149225,-0.0001857086129,0.0005562063096,0.00232057493,-0.0002408762011,0.002079698729,0.002226805075,-0.0004826514981,0.001744153577,0.002931780839,0.0001231575893,0.003054938428,0.003636343491,-0.0004905341499,0.003145809341,0.004713537543,-0.000194257735,0.004519279808,0.003761437596,-5.337837682e-05,0.003708059219,0.004687427608,0.0002875307765,0.004974958385,0.003407644037,-0.0003902558407,0.003017388197,0.004544242787,-0.000408783433,0.004135459354,0.002847103347,-0.001016438498,0.001830664849,0.004559142788,-0.0002246446032,0.004334498184,0.006082472437,-0.0002348552355,0.005847617202,0.002374383129,0.000237407001,0.00261179013,0.00478279318,8.028351611e-07,0.004783596015,0.003928399229,5.282680545e-05,0.003981226035,0.004119229323,0.0002911084043,0.004410337727,0.004925760711,0.0002672642684,0.005193024979,0.005341919996,0.0008172600487,0.006159180045,0.004896687304,0.0003111209774,0.005207808281,0.002956303371,0.0001658305786,0.003122133949,0.00272015237,4.73041202e-05,0.00276745649,0.003441284197,-0.0002740862684,0.003167197929,0.003316022462,-0.0008940979112,0.002421924551,0.005482680962,0.0001085821898,0.005591263152,0.001790721299,6.047525697e-05,0.001851196556,0.007165788256,0.0002662429147,0.007432031171,0.004365182004,0.000217381933,0.004582563937,0.006651007226,8.417983604e-05,0.006735187062,0.004461453737,0.0002192807845,0.004680734522,0.008549116279,0.0002234001298,0.008772516408,0.008167816822,-0.000205989698,0.007961827124,0.0049645052,7.90818783e-05,0.005043587078,0.005851883635,6.106647466e-05,0.00591295011,0.004493519016,0.0003437076623,0.004837226679,0.007775506837,0.0008676412152,0.008643148052
4.6,0.0007512363831,-0.0001832985679,0.0005679378152,0.002304746388,-0.0002453934581,0.00205935293,0.002282695961,-0.0004865569006,0.00179613906,0.002918133852,0.0001163058452,0.003034439698,0.003624964434,-0.0005031932478,0.003121771186,0.004668275137,-0.0001758715804,0.004492403557,0.003738990187,-6.017821968e-05,0.003678811968,0.004764136301,0.0002909879375,0.005055124238,0.003472895492,-0.0003886750104,0.003084220482,0.004590975735,-0.0004013190825,0.004189656653,0.002852714717,-0.001023355582,0.001829359135,0.004600689322,-0.0002090091537,0.004391680168,0.006167987209,-0.0002488083689,0.00591917884,0.002405632491,0.0002418679209,0.002647500412,0.004841902772,7.774326334e-06,0.004849677098,0.003978569976,5.623138799e-05,0.004034801364,0.004211693565,0.0002848845944,0.004496578159,0.004896543105,0.0002661960737,0.005162739179,0.00534521327,0.00081868774,0.00616390101,0.004884438105,0.0003181179876,0.005202556092,0.002937594724,0.0001631672355,0.003100761959,0.002682012685,4.479907309e-05,0.002726811758,0.003452448965,-0.0002791423704,0.003173306595,0.003287841561,-0.0008845913848,0.002403250176,0.005567325236,9.687126463e-05,0.005664196501,0.001822367004,6.410959276e-05,0.001886476597,0.007233333798,0.000298999967,0.007532333765,0.004429897453,0.0002288193852,0.004658716838,0.006742999011,9.269329542e-05,0.006835692306,0.00450109,0.0002237291771,0.004724819177,0.008606992518,0.0002231642077,0.008830156726,0.008170861084,-0.0002188252962,0.007952035787,0.004933187722,9.558505787e-05,0.00502877278,0.005869292334,1.23476584e-06,0.0058705271,0.004704189022,0.0002248076634,0.004928996685,0.007881245431,0.0007682121527,0.008649457584
4.7,0.0007637521876,-0.0001802669888,0.0005834851988,0.002289625251,-0.0002492595338,0.002040365717,0.00233795903,-0.0004898610574,0.001848097973,0.002901508278,0.0001092791968,0.003010787475,0.003608171994,-0.0005151322834,0.00309303971,0.004611586637,-0.0001553316245,0.004456255013,0.003710703846,-6.681323421e-05,0.003643890612,0.004839077912,0.0002929141937,0.005131992106,0.003532367385,-0.0003864181777,0.003145949208,0.004630649192,-0.0003931093307,0.004237539862,0.002857616519,-0.001029194038,0.001828422481,0.00463536398,-0.0001937180151,0.004441645965,0.006246469158,-0.0002631725994,0.005983296559,0.002433168296,0.0002459159464,0.002679084243,0.004897059403,1.510790681e-05,0.00491216731,0.00402164689,5.918838745e-05,0.004080835277,0.00429653283,0.0002782875513,0.004574820381,0.004859142724,0.0002650136405,0.005124156365,0.005339201782,0.0008191923096,0.006158394092,0.004864853004,0.0003260002489,0.005190853253,0.002917677546,0.0001600924512,0.003077769997,0.00263856409,4.380604906e-05,0.002682370139,0.003461201348,-0.000283530351,0.003177670997,0.003256374827,-0.0008730045682,0.002383370259,0.005648384721,8.379070789e-05,0.005732175429,0.001852275207,6.77130533e-05,0.00191998826,0.007295168005,0.0003332097312,0.007628377737,0.004491383423,0.0002408342004,0.004732217623,0.006828294727,0.0001011841079,0.006929478835,0.004532399608,0.0002284715485,0.004760871157,0.008646604225,0.0002260251672,0.008872629393,0.00816795138,-0.0002371084464,0.007930842934,0.004891959236,0.0001103809467,0.005002340183,0.005870974116,-5.65699813e-05,0.005814404134,0.004903432768,0.0001162450791,0.005019677847,0.007969532233,0.0006706355894,0.008640167822
4.8,0.0007792650118,-0.0001766237789,0.0006026412329,0.002275246809,-0.0002524512008,0.002022795609,0.002392305134,-0.0004925616367,0.001899743497,0.002882222712,0.0001021082385,0.002984330951,0.003586124878,-0.0005263055364,0.003059819341,0.004543237527,-0.0001325756908,0.004410661836,0.003676719188,-7.326981122e-05,0.003603449377,0.004912063964,0.0002932554912,0.005205319455,0.00358583446,-0.000383494617,0.003202339843,0.004663067361,-0.000384190119,0.004278877242,0.002861965409,-0.001033952704,0.001828012704,0.004663027436,-0.0001788960417,0.004484131395,0.006317576262,-0.0002778915193,0.006039684743,0.002456878112,0.000249552969,0.002706431081,0.004948143126,2.275889658e-05,0.004970902022,0.00405728036,6.168389754e-05,0.004118964258,0.004373326489,0.0002713566479,0.004644683137,0.004813759379,0.0002636559722,0.005077415351,0.005323959155,0.0008187442555,0.00614270341,0.004838122361,0.0003345487362,0.005172671097,0.002896795979,0.0001566323663,0.003053428346,0.002590378142,4.387614618e-05,0.002634254288,0.003467525245,-0.000287231624,0.003180293621,0.003222009581,-0.0008596095857,0.002362399995,0.005725511894,6.956956536e-05,0.005795081459,0.001880347298,7.124820396e-05,0.001951595502,0.007351267636,0.0003685643718,0.007719832008,0.004549499032,0.0002533237782,0.00480282281,0.00690648757,0.0001095880934,0.007016075664,0.00455513864,0.0002334688163,0.004788607457,0.00866771972,0.0002319666072,0.008899686327,0.00815882464,-0.0002607787825,0.007898045858,0.004840914757,0.0001231785057,0.004964093262,0.005856082222,-0.0001116588139,0.005744423408,0.005088620943,1.925729908e-05,0.005107878242,0.008039615032,0.0005760914612,0.008615706493
4.9,0.0007975455016,-0.0001723816652,0.0006251638364,0.00226163604,-0.0002549507638,0.002006685276,0.002445444183,-0.000494658391,0.001950785792,0.002860609521,9.482582209e-05,0.002955435343,0.003559013896,-0.0005366696028,0.003022344293,0.004463117807,-0.0001075990043,0.004355518802,0.003637219363,-7.95377537e-05,0.00355768161,0.00498287387,0.0002919881058,0.005274861976,0.003633119886,-0.0003799150781,0.003253204808,0.004688080659,-0.0003745961293,0.00431348453,0.002865916535,-0.001037630869,0.001828285666,0.0046835728,-0.000164652069,0.004518920731,0.00638100421,-0.0002929027872,0.006088101423,0.002476661103,0.0002527829885,0.002729444092,0.004995050963,3.06774036e-05,0.005025728366,0.004085153829,6.370620048e-05,0.00414886003,0.004441673224,0.0002641392128,0.004705812436,0.004760632729,0.0002620637642,0.005022696493,0.005299601954,0.0008173103096,0.006116912264,0.004804486684,0.0003435245135,0.005148011198,0.002875194132,0.0001528161598,0.003028010291,0.002538026433,4.458976206e-05,0.002582616195,0.003471412595,-0.0002902325765,0.003181180018,0.003185124902,-0.0008447024917,0.00234042241,0.005798388242,5.444185561e-05,0.005852830098,0.001906490463,7.467674653e-05,0.00198116721,0.00740162416,0.0004047617103,0.007806385871,0.004604127095,0.0002661661939,0.004870293289,0.006977187798,0.0001178440119,0.00709503181,0.004569111394,0.0002386664095,0.004807777803,0.008670258662,0.0002408847922,0.008911143455,0.008143085403,-0.0002896499468,0.007853435456,0.004780169608,0.0001337110116,0.00491388062,0.005823973911,-0.000163460945,0.005660512966,0.005257468501,-6.533566853e-05,0.005192132832,0.008090902976,0.0004855842907,0.008576487267
5.0,0.0008183346531,-0.0001675557693,0.0006507788838,0.002248806248,-0.0002567461514,0.001992060097,0.002497086463,-0.0004961531647,0.002000933298,0.002837010284,8.746706978e-05,0.002924477354,0.003527058606,-0.0005461837788,0.002980874828,0.004371256603,-8.045812699e-05,0.004290798476,0.003592427023,-8.56089665e-05,0.003506818057,0.00505125562,0.0002891195148,0.005340375135,0.003674092771,-0.0003756924145,0.003298400357,0.004705583847,-0.0003643613718,0.004341222475,0.002869618685,-0.001040229097,0.001829389588,0.00469692666,-0.0001510788208,0.004545847839,0.006436490404,-0.0003081400924,0.006128350311,0.002492426866,0.0002556116668,0.002748038533,0.005037695628,3.880906968e-05,0.005076504697,0.00410498941,6.524353465e-05,0.004170232945,0.004501195345,0.0002566899538,0.004757885299,0.004700041364,0.0002601812254,0.00496022259,0.005266289631,0.0008148537813,0.006081143412,0.004764228909,0.0003526756704,0.00511690458,0.002853111601,0.000148675642,0.003001787243,0.002482069906,4.556382407e-05,0.002527633731,0.003472860969,-0.0002925250544,0.003180335915,0.003146077427,-0.0008285935636,0.002317483864,0.005866724802,3.864212754e-05,0.005905366929,0.001930616945,7.796098823e-05,0.002008577933,0.007446250164,0.0004414953797,0.007887745544,0.004655172148,0.0002792219825,0.00493439413,0.00704002541,0.0001258925368,0.007165917946,0.004574171401,0.0002439952306,0.004818166631,0.008654281151,0.0002525943661,0.008906875517,0.008120215777,-0.0003234143246,0.007796801452,0.004709859754,0.0001417375643,0.004851597319,0.005774233304,-0.0002115330493,0.005562700255,0.005408057811,-0.0001371450038,0.005270912807,0.008122975958,0.000399923009,0.008522898967
5.1,0.0008413453205,-0.0001621632455,0.000679182075,0.002236757134,-0.0002578313263,0.001978925808,0.00254694214,-0.0004970498915,0.002049892248,0.002811769548,8.006914858e-05,0.002891838697,0.003490500637,-0.0005548103912,0.002935690246,0.004267831549,-5.127167153e-05,0.004216559878,0.003542598392,-9.14759305e-05,0.003451122461,0.005116927329,0.0002846859225,0.005401613251,0.003708663121,-0.0003708419574,0.003337821163,0.004715511642,-0.0003535199122,0.004361991729,0.002873207977,-0.001041749988,0.001831457989,0.004703048244,-0.0001382539978,0.004564794246,0.006483815118,-0.0003235347419,0.006160280376,0.002504092452,0.0002580458805,0.002762138333,0.005076001977,4.709623368e-05,0.005123098211,0.004116551406,6.628209802e-05,0.004182833504,0.004551540897,0.0002490705861,0.004800611483,0.004632298924,0.0002579580512,0.004890256976,0.005224221742,0.0008113353585,0.0060355571,0.004717664602,0.0003617446878,0.00507940929,0.002830777394,0.0001442448499,0.002975022244,0.002423044561,4.646166807e-05,0.002469506229,0.00347186988,-0.0002941066572,0.003177763223,0.003105187007,-0.0008115943576,0.002293592649,0.005930257646,2.24034986e-05,0.005952661144,0.001952641315,8.106535712e-05,0.002033706672,0.007485182191,0.0004784467675,0.007963628959,0.004702556138,0.0002923364438,0.004994892582,0.007094650714,0.0001336752509,0.007228325965,0.004570220429,0.0002493725057,0.004819592935,0.008619966669,0.0002668375674,0.008886804237,0.008089588421,-0.0003616550355,0.007727933385,0.004630140179,0.0001470449493,0.004777185129,0.00570668432,-0.0002555628507,0.005451121469,0.005538835257,-0.0001961966543,0.005342638602,0.008135595328,0.0003196989338,0.008455294262
5.2,0.0008662634481,-0.0001562231755,0.0007100402726,0.002225473066,-0.0002582070909,0.001967265975,0.002594720085,-0.0004973545534,0.002097365531,0.002785227805,7.267083203e-05,0.002857898637,0.003449595626,-0.0005625150517,0.002887080574,0.004153172537,-2.021850431e-05,0.004132954033,0.003488015573,-9.712989522e-05,0.003390885677,0.005179579797,0.0002787470477,0.005458326845,0.00373677665,-0.0003653814595,0.00337139519,0.004717833726,-0.000342106241,0.004375727485,0.002876801737,-0.001042198592,0.001834603146,0.004701927075,-0.0001262416045,0.004575685471,0.006522800042,-0.000339017254,0.006183782788,0.002511579047,0.0002600933948,0.002771672442,0.005109902555,5.547924544e-05,0.005165381801,0.004119647974,6.680477098e-05,0.004186452745,0.004592383613,0.0002413496616,0.004833733275,0.004557747828,0.0002553514476,0.004813099275,0.005173632679,0.0008067145997,0.005980347278,0.004665131388,0.0003704762912,0.005035607679,0.002808403702,0.0001395594629,0.002947963164,0.002361446582,4.70031767e-05,0.002408449758,0.003468437549,-0.0002949807718,0.003173456777,0.003062723962,-0.000794001172,0.00226872279,0.005988740752,5.956820171e-06,0.005994697573,0.001972476998,8.395770182e-05,0.0020564347,0.007518480753,0.0005152799752,0.008033760729,0.004746212858,0.0003053424054,0.005051555263,0.007140734044,0.0001411340047,0.007281868049,0.004557207105,0.0002547026939,0.004811909799,0.008567587779,0.0002832993112,0.00885088709,0.008050481177,-0.0004038610734,0.007646620103,0.004541182412,0.0001494503751,0.004690632787,0.005621396189,-0.0002953732227,0.005326022966,0.005648586463,-0.0002428891781,0.005405697285,0.008128712768,0.0002452659559,0.008373978724
5.3,0.00089274983,-0.0001497567521,0.0007429930779,0.002214922204,-0.0002578822771,0.001957039927,0.002640127491,-0.0004970750399,0.002143052452,0.002757715003,6.531193158e-05,0.002823026935,0.00340460619,-0.0005692667862,0.002835339403,0.004027759453,1.246596636e-05,0.00404022542,0.003428978937,-0.0001025589631,0.003326419974,0.005238880806,0.0002713792476,0.005510260054,0.00375841172,-0.0003593306919,0.003399081028,0.004712551291,-0.0003301552226,0.004382396069,0.002880494221,-0.00104158245,0.001838911771,0.00469357989,-0.0001150924788,0.004578487411,0.006553305054,-0.000354519084,0.00619878597,0.002514810017,0.0002617626727,0.00277657269,0.005139333883,6.389773133e-05,0.005203231614,0.004114131639,6.679078854e-05,0.004180922427,0.004623422434,0.0002336020742,0.004857024508,0.004476752214,0.0002523279538,0.004729080168,0.005114784962,0.0008009520851,0.005915737048,0.004606979295,0.0003786253425,0.004985604638,0.002786181145,0.000134655925,0.00292083707,0.002297722169,4.6970737e-05,0.002344692906,0.003462559863,-0.0002951562932,0.00316740357,0.003018899702,-0.0007760762374,0.002242823465,0.006041940273,-1.047154253e-05,0.00603146873,0.001990033582,8.661022106e-05,0.002076643803,0.007546228848,0.0005516390391,0.008097867887,0.004786082649,0.0003180631719,0.005104145821,0.007177965782,0.0001482111077,0.00732617689,0.004535126596,0.0002598787309,0.004795005327,0.008497482798,0.0003016287692,0.008799111567,0.008002097887,-0.0004494460768,0.00755265181,0.004443173143,0.0001488054125,0.004591978556,0.005518682772,-0.0003309287118,0.00518775406,0.005736398806,-0.0002779354055,0.005458463401,0.00810247223,0.0001767292421,0.008279201472
5.4,0.0009204431829,-0.0001427876382,0.0007776555447,0.002205056999,-0.0002568751178,0.001948181882,0.002682871602,-0.000496220888,0.002186650714,0.002729546001,5.80326307e-05,0.002787578632,0.003355798078,-0.0005750380347,0.002780760043,0.003892214889,4.649492781e-05,0.003938709816,0.003365801605,-0.0001077465443,0.003258055061,0.005294481807,0.0002626687416,0.005557150549,0.003773579735,-0.0003527109079,0.003420868827,0.004699696727,-0.0003177018798,0.004381994847,0.002884355171,-0.001039911389,0.001844443782,0.004678047722,-0.0001048436708,0.004573204052,0.006575224792,-0.0003699742483,0.006205250543,0.00251371152,0.0002630627502,0.00277677427,0.005164234757,7.229177399e-05,0.005236526531,0.004099899831,6.621608877e-05,0.00416611592,0.004644382425,0.0002259077724,0.004870290197,0.004389691918,0.0002488648364,0.004638556754,0.005047962569,0.0007940122155,0.005841974785,0.004543563555,0.000385964049,0.004929527604,0.002764276508,0.0001295704134,0.002893846921,0.002232265376,4.620828522e-05,0.002278473661,0.00345423222,-0.0002946470386,0.003159585181,0.002973861248,-0.0007580288892,0.002215832359,0.006089632673,-2.666371417e-05,0.006062968959,0.002005216228,8.90000623e-05,0.00209421629,0.007568529647,0.000587146842,0.008155676489,0.004822109258,0.0003303153261,0.005152424584,0.007206058017,0.0001548502889,0.007360908306,0.004504021808,0.000264783852,0.00476880566,0.008410032934,0.0003214631695,0.008731496103,0.007943596945,-0.0004977706882,0.007445826257,0.004336315329,0.000145001057,0.004481316386,0.005399093507,-0.0003623371074,0.0050367564,0.005801621429,-0.0003022966001,0.005499324829,0.008057200472,0.0001139498926,0.008171150364
5.5,0.0009489648648,-0.0001353423472,0.0008136225176,0.002195816337,-0.0002552145891,0.001940601748,0.002722663879,-0.0004948029955,0.002227860884,0.002701018559,5.087273727e-05,0.002751891297,0.003303440111,-0.0005798046088,0.002723635502,0.003747293734,8.153689362e-05,0.003828830627,0.003298806883,-0.0001126706095,0.003186136273,0.00534602674,0.0002527064073,0.005598733148,0.003782328447,-0.0003455443515,0.003436784095,0.004679336381,-0.0003047811949,0.004374555186,0.002888430906,-0.001037197283,0.001851233623,0.004655393717,-9.55172576e-05,0.004559876459,0.006588486107,-0.0003853201996,0.006203165907,0.002508215392,0.0002640031411,0.002772218534,0.005184546722,8.060306293e-05,0.005265149785,0.00407689619,6.505384724e-05,0.004141950037,0.004655017761,0.000218349431,0.004873367192,0.004296958328,0.0002449509972,0.004541909325,0.004973465448,0.0007858665239,0.005759331972,0.004475240319,0.0003922879479,0.004867528267,0.002742832584,0.0001243379415,0.002867170526,0.002165422456,4.461504772e-05,0.002210037504,0.003443453201,-0.0002934710355,0.003149982166,0.002927689077,-0.0007399994076,0.00218768967,0.006131606516,-4.241445126e-05,0.006089192065,0.002017927588,9.110971235e-05,0.002109037301,0.007585503418,0.0006214057281,0.008206909146,0.004854239775,0.000341911134,0.005196150909,0.007224748496,0.0001609974659,0.007385745962,0.004463985221,0.0002692940039,0.004733279225,0.008305647665,0.0003424490998,0.008648096765,0.007874121742,-0.0005481635845,0.007325958157,0.004220831227,0.0001379736106,0.004358804838,0.005263392502,-0.0003898339627,0.00487355854,0.00584383019,-0.0003171152962,0.005526714893,0.0079933853,5.657012921e-05,0.008049955429
5.6,0.000977924713,-0.0001274505423,0.0008504741707,0.002187128865,-0.0002529415305,0.001934187335,0.002759225412,-0.0004928334405,0.002266391971,0.002672412872,4.387090714e-05,0.002716283779,0.003247806081,-0.0005835457248,0.002664260357,0.003593870383,0.0001172247009,0.003711095084,0.003228327404,-0.0001173037632,0.003111023641,0.005393161435,0.0002415845744,0.005634746009,0.003784745618,-0.0003378539263,0.003446891692,0.004651574201,-0.0002914278982,0.004360146303,0.002892746231,-0.00103345395,0.001859292281,0.004625701518,-8.711963113e-05,0.004538581887,0.006593046032,-0.0004004973315,0.0061925487,0.002498262533,0.0002645938026,0.002762856336,0.005200215525,8.877600935e-05,0.005288991534,0.00404511214,6.327499253e-05,0.004108387133,0.004655116043,0.0002110091124,0.004866125155,0.004198951533,0.0002405874302,0.004439538963,0.004891605492,0.0007764969255,0.005668102417,0.004402364283,0.0003974203917,0.004799784674,0.002721968664,0.0001189917562,0.00284096042,0.002097498137,4.213813531e-05,0.002139636272,0.003430227774,-0.0002916499864,0.003138577788,0.002880397675,-0.0007220487323,0.002158348943,0.006167666326,-5.753446971e-05,0.006110131856,0.002028071147,9.292730373e-05,0.002120998451,0.007597283632,0.0006539998883,0.00825128352,0.004882426654,0.0003526605151,0.005235087169,0.007233805753,0.0001666003618,0.007400406115,0.004415159591,0.000273280657,0.004688440248,0.008184755929,0.0003642613532,0.008549017283,0.007792827732,-0.000599937718,0.007192890014,0.004096964794,0.0001277111892,0.004224675984,0.005112523276,-0.0004137423631,0.004698780913,0.005862798129,-0.0003236508442,0.005539147285,0.007911644141,4.057130538e-06,0.007915701271
5.7,0.001006926819,-0.0001191452078,0.0008877816107,0.00217891613,-0.0002501091472,0.001928806983,0.002792291438,-0.0004903254266,0.002301966011,0.00264399066,3.706396201e-05,0.002681054622,0.003189175483,-0.0005862441591,0.002602931324,0.003432922316,0.0001531672918,0.003586089608,0.003154703596,-0.0001216138325,0.003033089763,0.005435541358,0.0002293956826,0.00566493704,0.003780960017,-0.000329663093,0.003451296924,0.004616553336,-0.0002776761768,0.004338877159,0.002897305162,-0.00102869727,0.001868607892,0.004589073496,-7.964202617e-05,0.00450943147,0.00658888911,-0.0004154472532,0.006173441857,0.002483804708,0.00026484517,0.002748649878,0.005211191865,9.675870319e-05,0.005307950568,0.004004587317,6.084899709e-05,0.004065436314,0.004644502506,0.0002039645053,0.004848467011,0.004096077482,0.0002357873535,0.004331864836,0.004802703303,0.0007658981557,0.005568601459,0.004325286566,0.0004012153415,0.004726501907,0.002701780033,0.000113562951,0.002815342984,0.002028760601,3.876643734e-05,0.002067527038,0.003414568119,-0.0002892091021,0.003125359017,0.002831938297,-0.0007041563113,0.002127781986,0.00619763658,-7.185313186e-05,0.006125783449,0.002035554047,9.444689524e-05,0.002130000942,0.007604012353,0.0006844996731,0.008288512026,0.004906629202,0.0003623731141,0.005269002316,0.007233033131,0.0001716069929,0.007404640124,0.004357735664,0.0002766140378,0.004634349701,0.008047797098,0.0003866213379,0.008434418436,0.00769890544,-0.0006524025165,0.007046502924,0.003964980792,0.0001142602316,0.004079241024,0.004947561048,-0.0004344128225,0.004513148225,0.005858467246,-0.000323220213,0.005535247033,0.007812686758,-4.424294803e-05,0.00776844381
5.8,0.001035574106,-0.0001104625993,0.0009251115062,0.002171093865,-0.0002467823121,0.001924311553,0.002821613481,-0.0004872932535,0.002334320227,0.002615992301,3.048645165e-05,0.002646478753,0.003127830799,-0.0005878864745,0.002539944325,0.003265508568,0.0001889639677,0.003454472535,0.003078279823,-0.0001255647573,0.002952715065,0.005472836226,0.0002162323097,0.005689068536,0.003771138138,-0.0003209959836,0.003450142155,0.004574453927,-0.0002635593342,0.004310894593,0.002902089392,-0.00102294552,0.001879143872,0.00454562817,-7.306253264e-05,0.004472565637,0.00657602348,-0.0004301108155,0.006145912664,0.002464803745,0.0002647681713,0.002729571916,0.00521743033,0.0001045035621,0.005321933892,0.003955407588,5.774540898e-05,0.004013152997,0.004623042997,0.0001972854904,0.004820328488,0.003988744246,0.0002305761127,0.004219320359,0.004707084945,0.0007540790309,0.005461163976,0.004244351522,0.0004035585207,0.004647910043,0.002682335713,0.0001080801395,0.002790415853,0.001959445064,3.452532743e-05,0.001993970392,0.003396491548,-0.0002861772507,0.003110314298,0.002782203134,-0.0006862256532,0.002095977481,0.006221363755,-8.522015748e-05,0.006136143598,0.002040287961,9.566870694e-05,0.002135956668,0.007605835174,0.0007124685366,0.00831830371,0.004926812345,0.0003708613115,0.005297673656,0.007222269935,0.000175963973,0.007398233908,0.004291945871,0.0002791671299,0.004571113001,0.007895208347,0.0004093145891,0.008304522936,0.007591599582,-0.0007048726356,0.006886726947,0.003825160316,9.773010694e-05,0.003922890423,0.004769660198,-0.0004521603485,0.004317499849,0.005830918159,-0.0003171457033,0.005513772455,0.00769727507,-8.905103175e-05,0.007608224039
5.9,0.001063471147,-0.0001014418426,0.0009620293047,0.002163570473,-0.0002430353826,0.00192053509,0.00284695887,-0.000483752243,0.002363206627,0.002588631703,2.417050338e-05,0.002612802207,0.003064051024,-0.0005884632379,0.002475587786,0.003092743261,0.0002242197087,0.00331696297,0.002999398104,-0.0001291177563,0.002870280348,0.005504731639,0.0002021873673,0.005706919007,0.003755477094,-0.0003118776179,0.003443599476,0.004525487135,-0.0002491094357,0.004276377699,0.002907054725,-0.001016219828,0.001890834897,0.004495496725,-6.734935226e-05,0.004428147372,0.006554475896,-0.0004444269771,0.006110048918,0.00244122834,0.0002643741332,0.002705602473,0.005218886355,0.0001119675964,0.005330853951,0.00389770035,5.393618083e-05,0.003951636531,0.004590645425,0.0001910312135,0.004781676639,0.00387735722,0.0002249906888,0.004102347909,0.004605078256,0.0007410626636,0.005346140919,0.004159891513,0.0004043676861,0.004564259199,0.002663674489,0.0001025691858,0.002766243674,0.001889757529,2.947067486e-05,0.001919228204,0.003376016129,-0.0002825871951,0.003093428934,0.002731030797,-0.0006680955653,0.002062935232,0.006238714832,-9.750532399e-05,0.006141209508,0.002042187693,9.659926321e-05,0.002138786956,0.007602894933,0.0007374743293,0.008340369262,0.00494294248,0.0003779443183,0.005320886798,0.007201389407,0.0001796155208,0.007381004928,0.004218054451,0.0002808205938,0.004498875045,0.007727410309,0.0004322043117,0.008159614621,0.00747022416,-0.000756673579,0.006713550581,0.003677794282,7.829398121e-05,0.003756088263,0.004580005776,-0.0004672161479,0.004112789628,0.005780339032,-0.0003067101039,0.005473628928,0.007566181863,-0.0001311066823,0.007435075181
6.0,0.001090225346,-9.212424671e-05,0.0009981010989,0.002156242976,-0.0002389489982,0.001917293978,0.002868108384,-0.0004797186332,0.002388389751,0.002562089608,1.8145851e-05,0.002580235459,0.002998102603,-0.0005879691839,0.002410133419,0.002915765994,0.0002585597326,0.003174325727,0.002918390329,-0.000132232629,0.0027861577,0.005530928973,0.0001873533249,0.005718282298,0.003734195522,-0.0003023340491,0.003431861473,0.004469886708,-0.0002343569331,0.004235529775,0.002912126616,-0.001008544532,0.001903582084,0.004438818917,-6.246454078e-05,0.004376354377,0.00652428623,-0.0004583328218,0.006065953408,0.002413049545,0.0002636746422,0.002676724187,0.005215511867,0.0001191123746,0.005334624241,0.003831627891,4.939829586e-05,0.003881026186,0.004547260025,0.0001852473036,0.004732507329,0.003762313667,0.0002190785098,0.003981392177,0.004497008781,0.0007268859432,0.005223894724,0.004072219172,0.0004035930951,0.004475812267,0.002645799946,9.705309132e-05,0.002742853037,0.001819879861,2.36814434e-05,0.001843561304,0.003353155256,-0.0002784756764,0.00307467958,0.0026782141,-0.0006495549017,0.002028659198,0.006249572291,-0.0001085960397,0.006140976251,0.002041168229,9.72513113e-05,0.00213841954,0.007595322015,0.0007591065072,0.008354428522,0.004954981642,0.0003834526275,0.005338434269,0.007170294413,0.0001825034381,0.007352797851,0.004136345885,0.0002814680281,0.004417813913,0.007544797163,0.0004552362866,0.00800003345,0.007334176002,-0.0008071470749,0.006527028928,0.003523175738,5.618623934e-05,0.003579361977,0.004379773953,-0.0004797000831,0.00390007387,0.005707000917,-0.0002931204666,0.00541388045,0.007420151012,-0.0001711253024,0.007249025709
6.1,0.00111544718,-8.255261661e-05,0.001032894563,0.00214899179,-0.0002346068459,0.001914384944,0.002884853287,-0.0004752094521,0.002409643834,0.002536506596,1.243988368e-05,0.00254894648,0.002930229987,-0.0005864032938,0.002343826694,0.002735711862,0.0002916415326,0.003027353395,0.002835570506,-0.0001348689094,0.002700701597,0.005551144761,0.0001718207769,0.005722965538,0.003707524921,-0.0002923922921,0.003415132629,0.004407900281,-0.0002193303379,0.004188569943,0.002917196433,-0.000999947247,0.001917249186,0.004375738989,-5.836727236e-05,0.004317371717,0.006485502011,-0.0004717639907,0.00601373802,0.002380236547,0.0002626815056,0.002642918053,0.005207250986,0.0001259039022,0.005333154889,0.003757380103,4.411615949e-05,0.003801496263,0.004492879181,0.0001799629401,0.004672842121,0.003643997301,0.0002128955771,0.003856892878,0.00438319583,0.0007115985159,0.005094794346,0.003981618368,0.0004012184258,0.004382836793,0.002628675884,9.155201431e-05,0.002720227898,0.001749975829,1.725118465e-05,0.001767227014,0.003327912919,-0.0002738831626,0.003054029757,0.002623510262,-0.0006303580476,0.001993152214,0.006253827629,-0.0001183944117,0.006135433217,0.002037141681,9.764332323e-05,0.002134785004,0.007583220158,0.0007769979807,0.008360218139,0.004962881512,0.0003872321572,0.00535011367,0.007128912391,0.0001845680645,0.007313480456,0.004047114307,0.0002810205487,0.004328134856,0.007347737304,0.0004784306697,0.007826167974,0.00718295307,-0.0008556603389,0.006327292731,0.003361591332,3.169803026e-05,0.003393289362,0.004170101116,-0.0004896089662,0.00368049215,0.005611247469,-0.0002774841953,0.005333763274,0.007259863282,-0.0002097604259,0.007050102856
6.2,0.001138750542,-7.277077928e-05,0.001065979763,0.002141676132,-0.0002300931671,0.001911582965,0.002896993378,-0.0004702423032,0.002426751074,0.002511977538,7.07757584e-06,0.002519055114,0.002860648484,-0.0005837687448,0.002276879739,0.002553684703,0.0003231627948,0.002876847498,0.002751229089,-0.0001369867684,0.002614242321,0.005565110325,0.0001556779195,0.005720788244,0.003675703761,-0.0002820800054,0.003393623755,0.004339782923,-0.0002040561025,0.004135726821,0.002922120121,-0.0009904585811,0.00193166154,0.004306402778,-5.501609009e-05,0.004251386688,0.006438173775,-0.000484654606,0.005953519169,0.002342754645,0.0002614068582,0.002604161503,0.005194037654,0.0001323125157,0.005326350169,0.003675167666,3.808366546e-05,0.003713251331,0.004427537344,0.0001751882021,0.004602725546,0.003522773713,0.0002065043271,0.00372927804,0.004263949488,0.0006952614091,0.004959210897,0.003888336871,0.0003972614401,0.004285598311,0.002612223997,8.608325015e-05,0.002698307247,0.001680196931,1.027922975e-05,0.001690476161,0.003300281723,-0.000268853182,0.003031428541,0.002566652482,-0.0006102384596,0.001956414022,0.00625137646,-0.0001268157286,0.006124560731,0.002030015737,9.779861968e-05,0.002127814357,0.007566650725,0.0007908465349,0.00835749726,0.004966578651,0.0003891481283,0.005355726779,0.007077191504,0.000185750253,0.007262941757,0.003950656243,0.000279410046,0.004230066289,0.007136586166,0.0005018605804,0.007638446746,0.007016183152,-0.0009016211628,0.006114561989,0.003193313335,5.171852215e-06,0.003198485188,0.003952058136,-0.0004968133577,0.003455244778,0.005493500192,-0.0002608007737,0.005232699418,0.007085911215,-0.0002475714822,0.006838339733
6.3,0.001159754294,-6.282327117e-05,0.001096931023,0.002134131774,-0.0002254911672,0.001908640607,0.002904337779,-0.0004648350061,0.002439502773,0.002488549416,2.081204661e-06,0.00249063062,0.002789541918,-0.0005800727003,0.002209469217,0.002370736963,0.0003528647339,0.002723601697,0.002665631331,-0.0001385478569,0.002527083474,0.005572572626,0.0001390118413,0.005711584467,0.003638976122,-0.0002714250417,0.00336755108,0.004265795018,-0.0001885587534,0.004077236265,0.002926720562,-0.0009801116118,0.00194660895,0.004230957343,-5.237023772e-05,0.004178587105,0.006382352438,-0.0004969367588,0.005885415679,0.002300566969,0.000259863356,0.002560430325,0.00517579691,0.0001383126552,0.005314109565,0.003585216751,3.130600786e-05,0.003616522759,0.00435131113,0.0001709128361,0.004522223966,0.003398987683,0.0001999716308,0.003598959314,0.004139569597,0.0006779455115,0.004817515108,0.003792583553,0.0003917737317,0.004184357285,0.002596325608,8.066109999e-05,0.002676986708,0.001610687103,2.863105991e-06,0.001613550209,0.003270245332,-0.0002634312637,0.003006814069,0.002507362571,-0.0005889194954,0.001918443076,0.006242117631,-0.0001337891298,0.006108328502,0.002019694936,9.774445461e-05,0.00211743939,0.007545621185,0.0008004303626,0.008346051547,0.004965992084,0.0003890890241,0.005355081108,0.007015099665,0.0001859942906,0.007201093955,0.003847267891,0.000276591275,0.004123859166,0.006911707233,0.0005256240996,0.007437331333,0.006833661889,-0.0009444971801,0.005889164708,0.003018594381,-2.300433891e-05,0.002995590042,0.003726627678,-0.0005010597005,0.003225567977,0.005354273385,-0.0002439677671,0.005110305618,0.006898785246,-0.0002849969669,0.006613788279
6.4,0.001178086,-5.275500022e-05,0.001125330999,0.0021261721,-0.0002208819626,0.001905290138,0.00290670929,-0.0004590051602,0.00244770413,0.002466223534,-2.530145377e-06,0.002463693388,0.002717066193,-0.0005753260113,0.002141740181,0.002187857903,0.0003805320075,0.002568389911,0.002579020397,-0.0001395163477,0.00243950405,0.005573297491,0.000121911035,0.005695208526,0.003597594922,-0.0002604550418,0.00333713988,0.004186204911,-0.0001728611992,0.004013343712,0.002930793693,-0.000968941338,0.001961852355,0.004149553493,-5.039043439e-05,0.004099163059,0.006318090146,-0.0005085405563,0.00580954959,0.002253639977,0.0002580644302,0.002511704408,0.005152450258,0.0001438823566,0.005296332615,0.003487766405,2.380105042e-05,0.003511567455,0.004264319771,0.0001671071413,0.004431426912,0.003272963172,0.000193366948,0.00346633012,0.004010347318,0.0006597301435,0.004670077461,0.003694530852,0.0003848394207,0.004079370273,0.002580827726,7.529680712e-05,0.002656124533,0.001541585507,-4.905429402e-06,0.001536680077,0.003237785109,-0.0002576636765,0.002980121432,0.002445365107,-0.0005661236211,0.001879241486,0.006225957273,-0.0001392605157,0.006086696757,0.002006085373,9.751130833e-05,0.002103596681,0.007520080599,0.0008056173018,0.008325697901,0.004961024188,0.0003869705406,0.005347994729,0.006942626864,0.0001852513823,0.007127878246,0.003737246339,0.0002725433636,0.004009789702,0.006673494646,0.0005498193607,0.007223314007,0.006635391365,-0.0009838348702,0.005651556495,0.002837666539,-5.240295896e-05,0.00278526358,0.003494687183,-0.0005019798642,0.002992707319,0.00519419152,-0.0002277945776,0.004966396942,0.006698871488,-0.0003223318922,0.006376539596
6.5,0.001193387965,-4.261075835e-05,0.001150777207,0.002117592245,-0.0002163435727,0.001901248673,0.002903951354,-0.0004527698115,0.002451181543,0.00244496123,-6.741193752e-06,0.002438220036,0.002643357163,-0.0005695429717,0.002073814192,0.002005969065,0.0004059911398,0.002411960205,0.002491623791,-0.000139860323,0.002351763468,0.005567075253,0.0001044682119,0.005671543465,0.003551827485,-0.0002491971728,0.003302630312,0.004101294523,-0.0001569852274,0.003944309295,0.002934116751,-0.0009569842817,0.001977132469,0.004062350211,-4.90394591e-05,0.004013310752,0.006245445124,-0.0005193953953,0.005726049729,0.002201950747,0.0002560246277,0.002457975375,0.005123923491,0.0001490025416,0.005272926033,0.003383068864,1.560002435e-05,0.003398668888,0.004166726325,0.0001637243965,0.004330450722,0.003145005741,0.0001867604767,0.003331766217,0.003876569118,0.0006407016897,0.004517270807,0.003594320914,0.0003765728022,0.003970893716,0.002565551578,6.999878272e-05,0.002635550361,0.001473026728,-1.293919001e-05,0.001460087538,0.003202888306,-0.0002515963089,0.002951291997,0.002380402716,-0.000541581832,0.001838820884,0.006202816733,-0.0001431971912,0.006059619542,0.001989102041,9.71322363e-05,0.002086234277,0.007489918521,0.000806372716,0.008296291237,0.004951564496,0.0003827389645,0.00533430346,0.006859789365,0.0001834830367,0.007043272402,0.003620892386,0.0002672711173,0.003888163504,0.006422392229,0.0005745285591,0.006996920788,0.006421607644,-0.001019273366,0.005402334278,0.002650745238,-8.256272576e-05,0.002568182513,0.003257001308,-0.0004991109002,0.002757890408,0.005014003559,-0.0002130167145,0.004800986845,0.006486459123,-0.0003597089182,0.006126750205
6.6,0.001205324399,-3.243453668e-05,0.001172889862,0.002108174947,-0.0002119497574,0.001896225189,0.002895935236,-0.000446145365,0.002449789871,0.002424690565,-1.054104679e-05,0.002414149519,0.002568539051,-0.0005627412119,0.002005797839,0.001825923025,0.0004291096271,0.002255032652,0.002403660076,-0.0001395534832,0.002264106593,0.005553727032,8.678298676e-05,0.005640510019,0.003501959867,-0.0002376780265,0.00326428184,0.004011364731,-0.0001409522661,0.003870412465,0.002936456044,-0.0009442783518,0.001992177692,0.003969519306,-4.828293682e-05,0.003921236369,0.006164489217,-0.0005294321628,0.005635057054,0.002145493304,0.0002537600006,0.002399253305,0.005090154226,0.0001536563221,0.005243810548,0.003271391624,6.747538238e-06,0.003278139162,0.004058739539,0.000160703421,0.00421944296,0.003015405888,0.0001802213082,0.003195627197,0.003738522016,0.0006209519924,0.004359474008,0.00349207265,0.0003671150062,0.003859187656,0.002550300827,6.477308138e-05,0.002615073908,0.001405138754,-2.11504863e-05,0.001383988267,0.003165554511,-0.0002452739925,0.002920280519,0.002312251468,-0.0005150450927,0.001797206375,0.006172641527,-0.0001455926349,0.006027048892,0.001968676582,9.664192181e-05,0.002065318504,0.007454961888,0.0008027694159,0.008257731304,0.004937494232,0.0003763735584,0.005313867791,0.006766633473,0.0001806637059,0.006947297179,0.003498512587,0.00026080588,0.003759318467,0.006158907292,0.0005998099426,0.006758717235,0.006192790216,-0.001050550828,0.005142239388,0.002458036972,-0.000112995658,0.002345041314,0.00301422412,-0.0004919241394,0.002522299981,0.004814591208,-0.0002003074417,0.004614283766,0.006261754033,-0.0003970847536,0.00586466928
6.7,0.001213587924,-2.226859209e-05,0.001191319332,0.002097696101,-0.0002077688154,0.001889927286,0.002882565102,-0.0004391477284,0.002443417374,0.002405311585,-1.392359997e-05,0.002391387985,0.002492729769,-0.0005549416728,0.001937788096,0.001648500202,0.0004497977308,0.002098297933,0.002315343179,-0.0001385769689,0.002176766211,0.005533109446,6.896386451e-05,0.00560207331,0.003448297262,-0.0002259236609,0.003222373601,0.003916737802,-0.0001247843702,0.003791953432,0.00293757228,-0.0009308629761,0.002006709303,0.003871248884,-4.809049051e-05,0.003823158393,0.006075315453,-0.0005385855397,0.005536729914,0.002084282137,0.0002512884232,0.00233557056,0.005051097062,0.000157828375,0.005208925437,0.003153019634,-2.699167398e-06,0.003150320466,0.003940615662,0.0001579700794,0.004098585741,0.002884441753,0.0001738156448,0.003058257398,0.003596498439,0.000600576388,0.004197074827,0.003387887131,0.0003566300551,0.003744517186,0.002534867597,5.962386718e-05,0.002594491465,0.001338039907,-2.944530519e-05,0.001308594601,0.003125798361,-0.0002387403189,0.002887058042,0.002240735472,-0.000486298161,0.001754437311,0.006135408235,-0.0001464696302,0.005988938605,0.001944763149,9.607534771e-05,0.002040838497,0.007414969521,0.0007949965226,0.008209966044,0.004918689102,0.0003678878805,0.005286576982,0.006663237189,0.0001767824591,0.006840019649,0.003370419363,0.0002532052968,0.003623624659,0.005883618758,0.0006256941582,0.006509312916,0.00594965407,-0.001077504329,0.004872149741,0.00225974839,-0.0001431960161,0.002116552374,0.002766910367,-0.0004798620902,0.002287048276,0.004596968661,-0.0001902854492,0.004406683212,0.006024895931,-0.0004342344389,0.005590661492
6.8,0.001217904131,-1.215225202e-05,0.001205751879,0.00208592802,-0.000203862445,0.001882065575,0.002863779948,-0.0004317925689,0.002431987379,0.002386698946,-1.688765358e-05,0.002369811293,0.002416041551,-0.0005461685511,0.001869873,0.001474400201,0.0004680135782,0.001942413779,0.002226882962,-0.0001369209301,0.002089962032,0.00550511676,5.112853999e-05,0.0055562453,0.00339115989,-0.0002139597579,0.003177200132,0.003817755825,-0.0001085052813,0.003709250544,0.002937222847,-0.0009167793717,0.002020443476,0.00376774459,-4.843675424e-05,0.003719307835,0.005978042811,-0.0005467954886,0.005431247323,0.002018352446,0.0002486297425,0.002266982188,0.005006725677,0.0001615043364,0.005168230014,0.00302825664,-1.267181353e-05,0.003015584827,0.003812659264,0.0001554376565,0.003968096921,0.002752380439,0.0001676050013,0.002919985441,0.003450799283,0.0005796716505,0.004030470933,0.003281849707,0.0003453008582,0.003627150565,0.002519035709,5.455373331e-05,0.002573589442,0.001271835116,-3.771843836e-05,0.001234116677,0.003083648388,-0.0002320377654,0.002851610623,0.002165739511,-0.0004551738929,0.001710565618,0.00609112754,-0.0001458807266,0.005945246814,0.00191734103,9.546647023e-05,0.002012807501,0.007369628655,0.0007833610068,0.008152989662,0.004895019599,0.0003573300115,0.005252349611,0.006549709308,0.0001718438975,0.006721553205,0.003236929159,0.0002445515498,0.003481480708,0.005597177772,0.0006521829375,0.00624936071,0.005693128874,-0.001100064487,0.004593064387,0.002056094868,-0.0001726515979,0.00188344327,0.002515536872,-0.0004623842768,0.002053152595,0.00436227166,-0.0001835150576,0.004178756603,0.005775977221,-0.0004707553548,0.005305221866
6.9,0.001218033776,-2.120630807e-06,0.001215913145,0.002072639401,-0.0002002845827,0.001872354819,0.002839552527,-0.0004240955969,0.00241545693,0.002368701968,-1.943674694e-05,0.002349265221,0.002338577394,-0.0005364491842,0.001802128209,0.00130422807,0.0004837697091,0.001787997779,0.002138482247,-0.0001345855123,0.002003896734,0.005469680776,3.340200253e-05,0.005503082779,0.003330875496,-0.0002018118206,0.003129063676,0.00371477569,-9.21414067e-05,0.003622634284,0.002935161661,-0.0009020707266,0.002033090935,0.003659228096,-4.930127857e-05,0.003609926818,0.005872816895,-0.0005540073367,0.005318809559,0.001947757746,0.0002458057739,0.00219356352,0.004957032305,0.0001646703644,0.00512170267,0.002897425218,-2.309313043e-05,0.002874332087,0.003675221898,0.0001530071873,0.003828229086,0.002619477821,0.0001616444207,0.002781122241,0.003301734494,0.0005583341071,0.003860068601,0.003174028739,0.0003333253269,0.003507354066,0.002502581348,4.956398862e-05,0.002552145337,0.001206610727,-4.584882914e-05,0.001160761897,0.003039142944,-0.0002252078563,0.002813935087,0.00208721847,-0.00042156553,0.00166565294,0.00603984256,-0.0001439052295,0.00589593733,0.001886413838,9.48474451e-05,0.001981261283,0.007318557961,0.0007682783273,0.008086836288,0.004866349788,0.0003447815454,0.005211131334,0.006426186703,0.0001658684494,0.006592055152,0.003098359216,0.0002349481311,0.003333307347,0.005300300032,0.0006792489547,0.005979548987,0.005424329581,-0.001118245295,0.004306084285,0.001847308098,-0.0002008574316,0.001646450666,0.002260532829,-0.0004390218844,0.001821510945,0.004111737505,-0.00018049675,0.003931240755,0.005515063682,-0.0005060817004,0.005008981982
7.0,0.00121377292,7.796374836e-06,0.001221569295,0.002057592784,-0.000197080182,0.001860512602,0.002809886197,-0.0004160728396,0.002393813358,0.002351142988,-2.157881294e-05,0.002329564175,0.002260425201,-0.0005258139046,0.001734611296,0.001138479761,0.0004971371471,0.001635616908,0.00205033168,-0.0001315811165,0.001918750563,0.005426768977,1.591349409e-05,0.005442682471,0.003267770576,-0.0001895052812,0.003078265295,0.00360816224,-7.572261366e-05,0.003532439626,0.002931137927,-0.0008867820812,0.002044355846,0.003545933395,-5.066685114e-05,0.003495266544,0.005759807572,-0.0005601706739,0.005199636898,0.001872566209,0.0002428402422,0.002115406451,0.004902025601,0.0001673131819,0.005069338783,0.002760865245,-3.387855762e-05,0.002726986687,0.003528697843,0.000150569066,0.003679266909,0.00248597692,0.0001559810679,0.002641957988,0.003149621392,0.0005366578159,0.003686279208,0.003064472453,0.0003209122857,0.003385384738,0.002485272129,4.465503871e-05,0.002529927168,0.001142427424,-5.36946233e-05,0.001088732801,0.002992324892,-0.0002182911709,0.002774033721,0.002005202868,-0.000385435649,0.001619767219,0.005981623098,-0.0001406428597,0.005840980238,0.001852006027,9.424861429e-05,0.001946254642,0.007261319453,0.0007502523784,0.008011571831,0.004832536215,0.0003303552529,0.005162891468,0.006292831456,0.0001588918579,0.006451723313,0.002955024005,0.0002245155832,0.003179539588,0.00499375244,0.0007068356256,0.005700588066,0.005144521598,-0.001132129907,0.004012391692,0.001633642375,-0.0002273310187,0.001406311357,0.00200231424,-0.0004094365112,0.001592877729,0.00384668094,-0.0001816508166,0.003665030124,0.005242218601,-0.000539508193,0.004702710408
