Time,S1D1HbO,S1D1HbR,S1D1HbT,S2D2HbO,S2D2HbR,S2D2HbT,S3D3HbO,S3D3HbR,S3D3HbT,S4D4HbO,S4D4HbR,S4D4HbT,S5D5HbO,S5D5HbR,S5D5HbT,S6D6HbO,S6D6HbR,S6D6HbT,S7D7HbO,S7D7HbR,S7D7HbT,S8D8HbO,S8D8HbR,S8D8HbT,S9D9HbO,S9D9HbR,S9D9HbT,S10D10HbO,S10D10HbR,S10D10HbT,S11D11HbO,S11D11HbR,S11D11HbT,S12D12HbO,S12D12HbR,S12D12HbT,S13D13HbO,S13D13HbR,S13D13HbT,S14D14HbO,S14D14HbR,S14D14HbT,S15D15HbO,S15D15HbR,S15D15HbT,S16D16HbO,S16D16HbR,S16D16HbT,S17D17HbO,S17D17HbR,S17D17HbT,S18D18HbO,S18D18HbR,S18D18HbT,S19D19HbO,S19D19HbR,S19D19HbT,S20D20HbO,S20D20HbR,S20D20HbT,S21D21HbO,S21D21HbR,S21D21HbT,S22D22HbO,S22D22HbR,S22D22HbT,S23D23HbO,S23D23HbR,S23D23HbT,S24D24HbO,S24D24HbR,S24D24HbT,S25D25HbO,S25D25HbR,S25D25HbT,S26D26HbO,S26D26HbR,S26D26HbT,S27D27HbO,S27D27HbR,S27D27HbT,S28D28HbO,S28D28HbR,S28D28HbT,S29D29HbO,S29D29HbR,S29D29HbT,S30D30HbO,S30D30HbR,S30D30HbT,S31D31HbO,S31D31HbR,S31D31HbT,S32D32HbO,S32D32HbR,S32D32HbT,S33D33HbO,S33D33HbR,S33D33HbT,S34D34HbO,S34D34HbR,S34D34HbT,S35D35HbO,S35D35HbR,S35D35HbT,S36D36HbO,S36D36HbR,S36D36HbT,
-10,-5.884965818e-04,-2.974025416e-04,-8.858991234e-04,-1.185513470e-03,-1.883061811e-04,-1.373819652e-03,-1.523210656e-03,-3.548954439e-04,-1.878106100e-03,-1.128143794e-03,-2.410417820e-04,-1.369185576e-03,-7.517500840e-04,-1.996635870e-04,-9.514136710e-04,-9.303003966e-04,7.518982088e-05,-8.551105757e-04,-6.190499496e-04,-5.465217939e-05,-6.737021290e-04,-7.608309947e-04,-1.347274464e-05,-7.743037393e-04,-1.403724659e-03,-1.883898815e-04,-1.592114541e-03,-1.278885073e-03,-1.417590230e-04,-1.420644096e-03,-1.345269550e-03,-4.196416822e-04,-1.764911232e-03,-6.053085941e-04,8.945533013e-05,-5.158532640e-04,-1.196533498e-03,-2.315268861e-05,-1.219686187e-03,-4.635098888e-04,6.341354646e-06,-4.571685342e-04,-1.099982485e-03,4.154160036e-04,-6.845664816e-04,-7.639297415e-04,-4.242266444e-04,-1.188156386e-03,-7.221461698e-04,-1.323098998e-04,-8.544560696e-04,-1.781377932e-03,-2.651717021e-04,-2.046549634e-03,-8.359933365e-04,-4.397605046e-04,-1.275753841e-03,-1.599245286e-03,-6.836635836e-05,-1.667611644e-03,-2.707022817e-03,-6.012246887e-04,-3.308247506e-03,-1.499953304e-03,-2.288360873e-04,-1.728789391e-03,-9.796372856e-04,-3.945710774e-04,-1.374208363e-03,-1.198513136e-03,-3.194636978e-04,-1.517976834e-03,-1.149079547e-03,5.552994883e-05,-1.093549598e-03,-1.357825835e-03,1.001669229e-04,-1.257658912e-03,-9.139484393e-04,8.218341570e-05,-8.317650236e-04,-1.794462677e-03,3.676443408e-05,-1.757698243e-03,-9.735876572e-04,-2.598082015e-04,-1.233395859e-03,-2.111607648e-03,-4.559809203e-04,-2.567588568e-03,-9.980166137e-04,-2.691832196e-04,-1.267199833e-03,-1.297412988e-03,-7.694376999e-04,-2.066850688e-03,1.057157405e-03,-2.985996224e-04,7.585577829e-04,-7.745105339e-04,-9.360044151e-05,-8.681109755e-04,1.329087080e-03,-2.753278616e-04,1.053759218e-03,2.389855505e-03,-2.410430932e-03,-2.057542642e-05
-9.9,-5.874789512e-04,-2.933615631e-04,-8.808405144e-04,-1.165500691e-03,-1.828436558e-04,-1.348344347e-03,-1.490007023e-03,-3.429675907e-04,-1.832974614e-03,-1.091144814e-03,-2.315704824e-04,-1.322715297e-03,-7.083841859e-04,-1.978124714e-04,-9.061966573e-04,-9.011438348e-04,7.157897275e-05,-8.295648620e-04,-6.045028473e-04,-5.543609241e-05,-6.599389397e-04,-7.419929410e-04,-1.210918729e-05,-7.541021283e-04,-1.391577901e-03,-1.804363678e-04,-1.572014268e-03,-1.257088535e-03,-1.375464734e-04,-1.394635008e-03,-1.309799765e-03,-4.187912629e-04,-1.728591028e-03,-6.178002707e-04,9.656952481e-05,-5.212307459e-04,-1.221269514e-03,-8.213257794e-06,-1.229482772e-03,-4.597106300e-04,1.371179644e-05,-4.459988336e-04,-1.078005493e-03,4.472349370e-04,-6.307705559e-04,-6.981010563e-04,-4.258743243e-04,-1.123975381e-03,-7.795143762e-04,-8.427138169e-05,-8.637857579e-04,-1.783676646e-03,-2.307295921e-04,-2.014406238e-03,-8.687657905e-04,-4.279177737e-04,-1.296683564e-03,-1.546763334e-03,-9.172977420e-05,-1.638493108e-03,-2.650574270e-03,-5.883786728e-04,-3.238952943e-03,-1.470435384e-03,-2.273173052e-04,-1.697752690e-03,-9.527188264e-04,-3.994366595e-04,-1.352155486e-03,-1.179455149e-03,-3.126375693e-04,-1.492092718e-03,-1.144199495e-03,4.834250233e-05,-1.095856993e-03,-1.336039994e-03,9.803125035e-05,-1.238008744e-03,-8.955886390e-04,5.541004710e-05,-8.401785919e-04,-1.766767557e-03,3.719370782e-05,-1.729573849e-03,-9.866212409e-04,-2.581843893e-04,-1.244805630e-03,-2.086709717e-03,-4.548241909e-04,-2.541533908e-03,-1.024043466e-03,-2.570126257e-04,-1.281056092e-03,-1.266226485e-03,-8.121343352e-04,-2.078360820e-03,9.873983714e-04,-2.824617439e-04,7.049366276e-04,-7.363562869e-04,-8.947329595e-05,-8.258295829e-04,1.245685744e-03,-1.656359153e-04,1.080049828e-03,2.366508195e-03,-2.353383633e-03,1.312456263e-05
-9.8,-5.850050582e-04,-2.890701464e-04,-8.740752046e-04,-1.144793344e-03,-1.773771446e-04,-1.322170489e-03,-1.452648334e-03,-3.313747563e-04,-1.784023090e-03,-1.052680180e-03,-2.221517681e-04,-1.274831948e-03,-6.622829461e-04,-1.965124643e-04,-8.587954104e-04,-8.726900490e-04,6.760099245e-05,-8.050890565e-04,-5.899376202e-04,-5.648825887e-05,-6.464258791e-04,-7.217775503e-04,-1.327714686e-05,-7.350546972e-04,-1.377329299e-03,-1.728363175e-04,-1.550165617e-03,-1.233772285e-03,-1.334398947e-04,-1.367212179e-03,-1.271458955e-03,-4.172823069e-04,-1.688741261e-03,-6.326807391e-04,1.037615856e-04,-5.289191535e-04,-1.253590783e-03,1.218495752e-05,-1.241405825e-03,-4.562298982e-04,2.045192892e-05,-4.357779693e-04,-1.065016293e-03,4.829198084e-04,-5.820964842e-04,-6.369762334e-04,-4.242304782e-04,-1.061206712e-03,-8.381835877e-04,-3.924323089e-05,-8.774268186e-04,-1.784215593e-03,-1.965521365e-04,-1.980767730e-03,-9.046815011e-04,-4.149267687e-04,-1.319608270e-03,-1.493552845e-03,-1.158064332e-04,-1.609359278e-03,-2.601205353e-03,-5.669059528e-04,-3.168111306e-03,-1.439041173e-03,-2.255617430e-04,-1.664602916e-03,-9.233896682e-04,-4.033590006e-04,-1.326748669e-03,-1.158386671e-03,-3.052730377e-04,-1.463659709e-03,-1.138878774e-03,4.168078177e-05,-1.097197992e-03,-1.313977827e-03,9.530869121e-05,-1.218669136e-03,-8.800859902e-04,2.980002587e-05,-8.502859643e-04,-1.738094508e-03,3.699066235e-05,-1.701103846e-03,-1.001589398e-03,-2.552301434e-04,-1.256819541e-03,-2.058253918e-03,-4.518834463e-04,-2.510137364e-03,-1.052292910e-03,-2.432339149e-04,-1.295526825e-03,-1.234440374e-03,-8.498441637e-04,-2.084284538e-03,9.100656953e-04,-2.646761085e-04,6.453895868e-04,-6.978272881e-04,-8.578357604e-05,-7.836108641e-04,1.153684324e-03,-5.350565270e-05,1.100178671e-03,2.308073917e-03,-2.271383001e-03,3.669091671e-05
-9.7,-5.809784895e-04,-2.845183938e-04,-8.654968833e-04,-1.123290756e-03,-1.719153093e-04,-1.295206065e-03,-1.411093482e-03,-3.201347298e-04,-1.731228211e-03,-1.012720177e-03,-2.128051106e-04,-1.225525288e-03,-6.135361358e-04,-1.957409654e-04,-8.092771012e-04,-8.448496902e-04,6.329553404e-05,-7.815541561e-04,-5.753278164e-04,-5.775673336e-05,-6.330845497e-04,-7.003960535e-04,-1.692550976e-05,-7.173215632e-04,-1.360835335e-03,-1.655954653e-04,-1.526430800e-03,-1.208804131e-03,-1.294406803e-04,-1.338244811e-03,-1.230211256e-03,-4.150769196e-04,-1.645288176e-03,-6.495971121e-04,1.109612914e-04,-5.386358208e-04,-1.292770298e-03,3.775046701e-05,-1.255019831e-03,-4.529152635e-04,2.651903123e-05,-4.263962323e-04,-1.060534796e-03,5.221932950e-04,-5.383415013e-04,-5.805440057e-04,-4.194187547e-04,-9.999627604e-04,-8.972738204e-04,2.509415988e-06,-8.947644044e-04,-1.782562704e-03,-1.628797108e-04,-1.945442415e-03,-9.430012876e-04,-4.009818839e-04,-1.343983172e-03,-1.439789040e-03,-1.403324809e-04,-1.580121521e-03,-2.558247193e-03,-5.370269790e-04,-3.095274172e-03,-1.405726376e-03,-2.235346898e-04,-1.629261066e-03,-8.917759866e-04,-4.062014206e-04,-1.297977407e-03,-1.135297322e-03,-2.973996025e-04,-1.432696925e-03,-1.132838398e-03,3.553463091e-05,-1.097303767e-03,-1.291477273e-03,9.201721944e-05,-1.199460054e-03,-8.673548342e-04,5.690410355e-06,-8.616644238e-04,-1.708192282e-03,3.611752953e-05,-1.672074753e-03,-1.018079778e-03,-2.509698345e-04,-1.269049613e-03,-2.025792994e-03,-4.473390721e-04,-2.473132066e-03,-1.082293310e-03,-2.278847231e-04,-1.310178033e-03,-1.202478152e-03,-8.813116564e-04,-2.083789808e-03,8.257927736e-04,-2.452995085e-04,5.804932651e-04,-6.589149038e-04,-8.256494872e-05,-7.414798525e-04,1.054756779e-03,6.000749561e-05,1.114764274e-03,2.214884289e-03,-2.165244674e-03,4.963961527e-05
-9.6,-5.753138240e-04,-2.797022832e-04,-8.550161071e-04,-1.100898238e-03,-1.664675852e-04,-1.267365823e-03,-1.365337751e-03,-3.092637223e-04,-1.674601473e-03,-9.712511324e-04,-2.035500486e-04,-1.174801181e-03,-5.622590126e-04,-1.954681922e-04,-7.577272047e-04,-8.175302534e-04,5.869677952e-05,-7.588334739e-04,-5.606466519e-04,-5.918610419e-05,-6.198327561e-04,-6.780839408e-04,-2.297182960e-05,-7.010557704e-04,-1.341964653e-03,-1.587162832e-04,-1.500680936e-03,-1.182063935e-03,-1.255499336e-04,-1.307613869e-03,-1.186047926e-03,-4.121429281e-04,-1.598190854e-03,-6.681770416e-04,1.180996348e-04,-5.500774068e-04,-1.337938498e-03,6.810233918e-05,-1.269836159e-03,-4.496228428e-04,3.187680141e-05,-4.177460414e-04,-1.063996885e-03,5.647487101e-04,-4.992481747e-04,-5.287533771e-04,-4.116046899e-04,-9.403580670e-04,-9.559276550e-04,4.077089207e-05,-9.151567630e-04,-1.778290172e-03,-1.299545029e-04,-1.908244675e-03,-9.829498609e-04,-3.862926994e-04,-1.369242560e-03,-1.385673953e-03,-1.650166732e-04,-1.550690626e-03,-2.520894159e-03,-4.991145262e-04,-3.020008685e-03,-1.370461619e-03,-2.212038190e-04,-1.591665438e-03,-8.580214188e-04,-4.078417457e-04,-1.265863164e-03,-1.110197559e-03,-2.890501671e-04,-1.399247726e-03,-1.125800256e-03,2.988508919e-05,-1.095915167e-03,-1.268389607e-03,8.818411406e-05,-1.180205493e-03,-8.572581550e-04,-1.662681533e-05,-8.738849704e-04,-1.676854791e-03,3.455542071e-05,-1.642299371e-03,-1.035670996e-03,-2.454323428e-04,-1.281103339e-03,-1.988901823e-03,-4.414001995e-04,-2.430302022e-03,-1.113561644e-03,-2.110347357e-04,-1.324596379e-03,-1.170860994e-03,-9.052648486e-04,-2.076125842e-03,7.352828578e-04,-2.244237686e-04,5.108590892e-04,-6.196210274e-04,-7.983103341e-05,-6.994520608e-04,9.506328885e-04,1.737290166e-04,1.124361905e-03,2.087841858e-03,-2.036112355e-03,5.172950338e-05
-9.5,-5.679400940e-04,-2.746242849e-04,-8.425643789e-04,-1.077531016e-03,-1.610441548e-04,-1.238575171e-03,-1.315418989e-03,-2.987764080e-04,-1.614195397e-03,-9.282806468e-04,-1.944060574e-04,-1.122686704e-03,-5.085966714e-04,-1.956576030e-04,-7.042542744e-04,-7.906420268e-04,5.383332915e-05,-7.368086977e-04,-5.458698889e-04,-6.071858560e-05,-6.065884745e-04,-6.551006523e-04,-3.130068981e-05,-6.864013422e-04,-1.320602982e-03,-1.521979576e-04,-1.472800940e-03,-1.153449847e-03,-1.217684763e-04,-1.275218323e-03,-1.138993143e-03,-4.084540889e-04,-1.547447232e-03,-6.880399240e-04,1.251100530e-04,-5.629298710e-04,-1.388110691e-03,1.027796235e-04,-1.285331067e-03,-4.462251175e-04,3.649627487e-05,-4.097288426e-04,-1.074786176e-03,6.102662311e-04,-4.645199448e-04,-4.815143096e-04,-4.009940795e-04,-8.825083892e-04,-1.013320941e-03,7.537309264e-05,-9.379478481e-04,-1.770986163e-03,-9.801720810e-05,-1.869003371e-03,-1.023732108e-03,-3.710761500e-04,-1.394808258e-03,-1.331438872e-03,-1.895443442e-04,-1.520983216e-03,-2.488219451e-03,-4.536968453e-04,-2.941916296e-03,-1.333236211e-03,-2.185405612e-04,-1.551776772e-03,-8.222870406e-04,-4.081735694e-04,-1.230460610e-03,-1.083122314e-03,-2.802608324e-04,-1.363383147e-03,-1.117496804e-03,2.470621280e-05,-1.092790591e-03,-1.244588366e-03,8.384606774e-05,-1.160742298e-03,-8.496117942e-04,-3.690901440e-05,-8.865208086e-04,-1.643931408e-03,3.230757064e-05,-1.611623837e-03,-1.053943896e-03,-2.386481598e-04,-1.292592056e-03,-1.947194474e-03,-4.342955435e-04,-2.381490017e-03,-1.145611078e-03,-1.927879706e-04,-1.338399049e-03,-1.140179464e-03,-9.204676498e-04,-2.060647114e-03,6.392936894e-04,-2.021801788e-04,4.371135105e-04,-5.799635094e-04,-7.757724006e-05,-6.575407495e-04,8.430210361e-04,2.864205820e-04,1.129441618e-03,1.928386568e-03,-1.885435272e-03,4.295129604e-05
-9.4,-5.588043747e-04,-2.692935908e-04,-8.280979655e-04,-1.053118358e-03,-1.556557833e-04,-1.208774141e-03,-1.261423149e-03,-2.886858991e-04,-1.550109048e-03,-8.838425857e-04,-1.853924238e-04,-1.069235010e-03,-4.527280352e-04,-1.962663904e-04,-6.489944256e-04,-7.641031150e-04,4.872785332e-05,-7.153752617e-04,-5.309787010e-04,-6.229503679e-05,-5.932737378e-04,-6.317296142e-04,-4.176228845e-05,-6.734919026e-04,-1.296657912e-03,-1.460363566e-04,-1.442694268e-03,-1.122884203e-03,-1.180969009e-04,-1.240981104e-03,-1.089109639e-03,-4.039894842e-04,-1.493099124e-03,-7.088111964e-04,1.319308742e-04,-5.768803222e-04,-1.442219924e-03,1.412516762e-04,-1.300968248e-03,-4.426185079e-04,4.035699376e-05,-4.022615142e-04,-1.092261069e-03,6.584230560e-04,-4.338380126e-04,-4.386999427e-04,-3.878318553e-04,-8.265317980e-04,-1.068672508e-03,1.061946978e-04,-9.624778102e-04,-1.760268618e-03,-6.730270581e-05,-1.827571323e-03,-1.064549832e-03,-3.555487233e-04,-1.420098555e-03,-1.277346086e-03,-2.135811161e-04,-1.490927202e-03,-2.459187252e-03,-4.014592159e-04,-2.860646468e-03,-1.294061425e-03,-2.155212982e-04,-1.509582723e-03,-7.847502353e-04,-4.071077396e-04,-1.191857975e-03,-1.054133420e-03,-2.710707432e-04,-1.325204163e-03,-1.107680601e-03,1.996697340e-05,-1.087713627e-03,-1.219977566e-03,7.904910073e-05,-1.140928465e-03,-8.441908578e-04,-5.496494658e-05,-8.991558044e-04,-1.609338190e-03,2.940372932e-05,-1.579934461e-03,-1.072489919e-03,-2.306491771e-04,-1.303139096e-03,-1.900346584e-03,-4.262590672e-04,-2.326605651e-03,-1.177957414e-03,-1.732837797e-04,-1.351241194e-03,-1.111062692e-03,-9.257715670e-04,-2.036834259e-03,5.386196405e-04,-1.787395355e-04,3.598801050e-04,-5.399824118e-04,-7.578398067e-05,-6.157663925e-04,7.335471031e-04,3.968261712e-04,1.130373274e-03,1.738422269e-03,-1.714912430e-03,2.350983890e-05
-9.3,-5.478748809e-04,-2.637258637e-04,-8.116007446e-04,-1.027607207e-03,-1.503134860e-04,-1.177920693e-03,-1.203487953e-03,-2.790035738e-04,-1.482491527e-03,-8.380006714e-04,-1.765281264e-04,-1.014528798e-03,-3.948681500e-04,-1.972459717e-04,-5.921141217e-04,-7.378435633e-04,4.339708326e-05,-6.944464801e-04,-5.159618895e-04,-6.385600289e-05,-5.798178923e-04,-6.082775064e-04,-5.417116767e-05,-6.624486741e-04,-1.270062733e-03,-1.402240475e-04,-1.410286780e-03,-1.090318100e-03,-1.145356055e-04,-1.204853705e-03,-1.036502430e-03,-3.987322699e-04,-1.435234700e-03,-7.301378795e-04,1.385090090e-04,-5.916288705e-04,-1.499152370e-03,1.829304331e-04,-1.316221936e-03,-4.387286046e-04,4.344797479e-05,-3.952806298e-04,-1.115768941e-03,7.088935816e-04,-4.068753594e-04,-4.001493825e-04,-3.723996948e-04,-7.725490772e-04,-1.121254202e-03,1.331626900e-04,-9.880915116e-04,-1.745799602e-03,-3.803384865e-05,-1.783833450e-03,-1.104617699e-03,-3.399191795e-04,-1.444536879e-03,-1.223688330e-03,-2.367764976e-04,-1.460464827e-03,-2.432663772e-03,-3.432373955e-04,-2.775901168e-03,-1.252972453e-03,-2.121283267e-04,-1.465100780e-03,-7.456017935e-04,-4.045741309e-04,-1.150175924e-03,-1.023319762e-03,-2.615219594e-04,-1.284841721e-03,-1.096132268e-03,1.563309382e-05,-1.080499174e-03,-1.194497061e-03,7.384795163e-05,-1.120649109e-03,-8.407376627e-04,-7.065517022e-05,-9.113928329e-04,-1.573065725e-03,2.590357361e-05,-1.547162151e-03,-1.090915781e-03,-2.214704929e-04,-1.312386274e-03,-1.848117655e-03,-4.175138550e-04,-2.265631510e-03,-1.210123271e-03,-1.526959546e-04,-1.362819226e-03,-1.084149210e-03,-9.201616426e-04,-2.004310852e-03,4.340773020e-04,-1.543105593e-04,2.797667427e-04,-4.997466189e-04,-7.441997587e-05,-5.741665948e-04,6.237320103e-04,5.036885930e-04,1.127420603e-03,1.520220869e-03,-1.526414687e-03,-6.193817905e-06
-9.2,-5.351429078e-04,-2.579424793e-04,-7.930853871e-04,-1.000964448e-03,-1.450280643e-04,-1.145992513e-03,-1.141803616e-03,-2.697387503e-04,-1.411542366e-03,-7.908497055e-04,-1.678317025e-04,-9.586814081e-04,-3.352676658e-04,-1.985424476e-04,-5.338101134e-04,-7.118084657e-04,3.785275284e-05,-6.739557128e-04,-5.008167407e-04,-6.534303492e-05,-5.661597756e-04,-5.850709120e-04,-6.830652470e-05,-6.533774367e-04,-1.240778628e-03,-1.347504884e-04,-1.375529117e-03,-1.055733705e-03,-1.110848027e-04,-1.166818507e-03,-9.813190918e-04,-3.926682567e-04,-1.373987348e-03,-7.517015770e-04,1.448035151e-04,-6.068980619e-04,-1.557780697e-03,2.271846162e-04,-1.330596080e-03,-4.345112332e-04,4.576810343e-05,-3.887431298e-04,-1.144645794e-03,7.613413013e-04,-3.833044925e-04,-3.656696593e-04,-3.550111040e-04,-7.206807633e-04,-1.170401113e-03,1.562557583e-04,-1.014145355e-03,-1.727297397e-03,-1.041416837e-05,-1.737711565e-03,-1.143177063e-03,-3.243817405e-04,-1.467558803e-03,-1.170783912e-03,-2.587685170e-04,-1.429552429e-03,-2.407430233e-03,-2.799996442e-04,-2.687429877e-03,-1.210028374e-03,-2.083505294e-04,-1.418378903e-03,-7.050413322e-04,-4.005231649e-04,-1.105564497e-03,-9.907948524e-04,-2.516591774e-04,-1.242454030e-03,-1.082665750e-03,1.166884789e-05,-1.070996902e-03,-1.168123205e-03,6.830465610e-05,-1.099818548e-03,-8.389704915e-04,-8.389053405e-05,-9.228610255e-04,-1.535178863e-03,2.189715233e-05,-1.513281711e-03,-1.108844909e-03,-2.111526194e-04,-1.319997528e-03,-1.790365317e-03,-4.082590386e-04,-2.198624355e-03,-1.241639531e-03,-1.312297809e-04,-1.372869312e-03,-1.060062729e-03,-9.027941441e-04,-1.962856873e-03,3.264976298e-04,-1.291380582e-04,1.973595716e-04,-4.593582267e-04,-7.344570638e-05,-5.328039331e-04,5.150087641e-04,6.057352652e-04,1.120744029e-03,1.276322829e-03,-1.321902322e-03,-4.557949221e-05
-9.1,-5.206232381e-04,-2.519693716e-04,-7.725926097e-04,-9.731773183e-04,-1.398095945e-04,-1.112986913e-03,-1.076610322e-03,-2.608983328e-04,-1.337508655e-03,-7.425141333e-04,-1.593211043e-04,-9.018352375e-04,-2.742092260e-04,-2.000971146e-04,-4.743063405e-04,-6.859595753e-04,3.210340692e-05,-6.538561684e-04,-4.855481968e-04,-6.670048258e-05,-5.522486794e-04,-5.624493908e-04,-8.391519085e-05,-6.463645816e-04,-1.208795064e-03,-1.296024523e-04,-1.338397516e-03,-1.019143998e-03,-1.077445091e-04,-1.126888507e-03,-9.237462820e-04,-3.857850803e-04,-1.309531362e-03,-7.732260677e-04,1.507875429e-04,-6.224385248e-04,-1.616990370e-03,2.733538933e-04,-1.343636476e-03,-4.299487908e-04,4.732562311e-05,-3.826231677e-04,-1.178206327e-03,8.154066615e-04,-3.627996654e-04,-3.350353272e-04,-3.360044724e-04,-6.710397996e-04,-1.215520880e-03,1.755081380e-04,-1.040012742e-03,-1.704544033e-03,1.537903628e-05,-1.689164997e-03,-1.179506085e-03,-3.091103670e-04,-1.488616452e-03,-1.118966518e-03,-2.791906877e-04,-1.398157205e-03,-2.382201326e-03,-2.128190958e-04,-2.595020421e-03,-1.165310272e-03,-2.041835795e-04,-1.369493852e-03,-6.632718319e-04,-3.949264362e-04,-1.058198268e-03,-9.566924639e-04,-2.415291853e-04,-1.198221649e-03,-1.067130406e-03,8.038907443e-06,-1.059091498e-03,-1.140864502e-03,6.248634675e-05,-1.078378155e-03,-8.385928135e-04,-9.462813571e-05,-9.332209492e-04,-1.495807195e-03,1.750193362e-05,-1.478305261e-03,-1.125916291e-03,-1.997431150e-04,-1.325659406e-03,-1.727046537e-03,-3.986633147e-04,-2.125709851e-03,-1.272044659e-03,-1.091173148e-04,-1.381161974e-03,-1.039393986e-03,-8.730250298e-04,-1.912419016e-03,2.167235002e-04,-1.035001856e-04,1.132233146e-04,-4.189510629e-04,-7.281828364e-05,-4.917693465e-04,4.087538857e-04,7.016571164e-04,1.110411002e-03,1.009451213e-03,-1.103356793e-03,-9.390557986e-05
-9,-5.043532160e-04,-2.458357815e-04,-7.501889975e-04,-9.442521543e-04,-1.346669872e-04,-1.078919141e-03,-1.008193328e-03,-2.524865860e-04,-1.260679914e-03,-6.931446167e-04,-1.510135669e-04,-8.441581835e-04,-2.120017066e-04,-2.018471617e-04,-4.138488683e-04,-6.602752488e-04,2.615645037e-05,-6.341187985e-04,-4.701667694e-04,-6.787759027e-05,-5.380443597e-04,-5.407563933e-04,-1.007163280e-04,-6.414727213e-04,-1.174129006e-03,-1.247645954e-04,-1.298893601e-03,-9.805906197e-04,-1.045144859e-04,-1.085105106e-03,-8.640036698e-04,-3.780724279e-04,-1.242076098e-03,-7.944793908e-04,1.564480319e-04,-6.380313590e-04,-1.675697397e-03,3.207612222e-04,-1.354936175e-03,-4.250432083e-04,4.813669634e-05,-3.769065119e-04,-1.215731888e-03,8.706950164e-04,-3.450368712e-04,-3.079853536e-04,-3.157360327e-04,-6.237213863e-04,-1.256101311e-03,1.910128277e-04,-1.065088483e-03,-1.677388038e-03,3.920019483e-05,-1.638187844e-03,-1.212925719e-03,-2.942553151e-04,-1.507181034e-03,-1.068570484e-03,-2.976819001e-04,-1.366252384e-03,-2.355652056e-03,-1.428403068e-04,-2.498492363e-03,-1.118918455e-03,-1.996296049e-04,-1.318548060e-03,-6.204946226e-04,-3.877763938e-04,-1.008271016e-03,-9.211616825e-04,-2.311801761e-04,-1.152341859e-03,-1.049410417e-03,4.710199670e-06,-1.044700217e-03,-1.112754121e-03,5.646266452e-05,-1.056291457e-03,-8.393026524e-04,-1.028649633e-04,-9.421676157e-04,-1.455129513e-03,1.285711012e-05,-1.442272403e-03,-1.141782034e-03,-1.872976225e-04,-1.329079657e-03,-1.658207895e-03,-3.888660668e-04,-2.047073962e-03,-1.300882928e-03,-8.661198068e-05,-1.387494909e-03,-1.022686302e-03,-8.304299060e-04,-1.853116208e-03,1.056088198e-04,-7.770430317e-05,2.790451666e-05,-3.786825072e-04,-7.249830878e-05,-4.511808160e-04,3.063053265e-04,7.901073849e-04,1.096412711e-03,7.224508158e-04,-8.727378339e-04,-1.502870181e-04
-8.9,-4.863911564e-04,-2.395732354e-04,-7.259643918e-04,-9.142123145e-04,-1.296077271e-04,-1.043820042e-03,-9.368772971e-04,-2.445050465e-04,-1.181382344e-03,-6.429138837e-04,-1.429255086e-04,-7.858393923e-04,-1.489739896e-04,-2.037265946e-04,-3.527005841e-04,-6.347493870e-04,2.001996850e-05,-6.147294185e-04,-4.546861013e-04,-6.883043428e-05,-5.235165355e-04,-5.203310688e-04,-1.184057701e-04,-6.387368389e-04,-1.136823828e-03,-1.202200290e-04,-1.257043857e-03,-9.401410953e-04,-1.013940889e-04,-1.041535184e-03,-8.023372540e-04,-3.695231241e-04,-1.171860378e-03,-8.152723601e-04,1.617836353e-04,-6.534887249e-04,-1.732859908e-03,3.687229399e-04,-1.364136968e-03,-4.198081800e-04,4.822352956e-05,-3.715846505e-04,-1.256462726e-03,9.267685363e-04,-3.296941897e-04,-2.842200913e-04,-2.945737634e-04,-5.787938546e-04,-1.291716643e-03,2.029237610e-04,-1.088792882e-03,-1.645743742e-03,6.093881123e-05,-1.584804931e-03,-1.242803287e-03,-2.799418631e-04,-1.522745150e-03,-1.019913876e-03,-3.138986545e-04,-1.333812530e-03,-2.326452269e-03,-7.124471961e-05,-2.397696989e-03,-1.070969767e-03,-1.946965355e-04,-1.265666302e-03,-5.769061393e-04,-3.790856616e-04,-9.559918009e-04,-8.843626861e-04,-2.206611243e-04,-1.105023810e-03,-1.029422698e-03,1.653475940e-06,-1.027769222e-03,-1.083842430e-03,5.030335659e-05,-1.033539073e-03,-8.408015822e-04,-1.086305061e-04,-9.494320883e-04,-1.413357660e-03,8.116505348e-06,-1.405241155e-03,-1.156105555e-03,-1.738806170e-04,-1.329986172e-03,-1.583971801e-03,-3.789841885e-04,-1.962955990e-03,-1.327702668e-03,-6.398366231e-05,-1.391686330e-03,-1.010421476e-03,-7.748168236e-04,-1.785238300e-03,-5.986160733e-06,-5.208094706e-05,-5.806710780e-05,-3.387215881e-04,-7.245741260e-05,-4.111790007e-04,2.089555047e-04,8.697304464e-04,1.078685951e-03,4.182512382e-04,-6.319630300e-04,-2.137117918e-04
-8.8,-4.668148052e-04,-2.332148717e-04,-7.000296769e-04,-8.830962039e-04,-1.246378054e-04,-1.007734009e-03,-8.630213340e-04,-2.369524346e-04,-1.099973769e-03,-5.920130060e-04,-1.350724437e-04,-7.270854496e-04,-8.546972996e-05,-2.056672998e-04,-2.911370298e-04,-6.093904428e-04,1.370419711e-05,-5.956862456e-04,-4.391209589e-04,-6.952333892e-05,-5.086442978e-04,-5.015031089e-04,-1.366591520e-04,-6.381622609e-04,-1.096948477e-03,-1.159508300e-04,-1.212899307e-03,-8.978864858e-04,-9.838205201e-05,-9.962685379e-04,-7.390137597e-04,-3.601347580e-04,-1.099148518e-03,-8.354556010e-04,1.668019560e-04,-6.686536450e-04,-1.787486218e-03,4.165563149e-04,-1.370929903e-03,-4.142630345e-04,4.761271380e-05,-3.666503207e-04,-1.299597721e-03,9.831437974e-04,-3.164539236e-04,-2.634031372e-04,-2.728908574e-04,-5.362939946e-04,-1.322032071e-03,2.114555219e-04,-1.110576549e-03,-1.609589225e-03,8.052049571e-05,-1.529068729e-03,-1.268556968e-03,-2.662692349e-04,-1.534826203e-03,-9.732824601e-04,-3.275280617e-04,-1.300810522e-03,-2.293305146e-03,7.802590906e-07,-2.292524887e-03,-1.021595618e-03,-1.893974847e-04,-1.210993103e-03,-5.326972234e-04,-3.688864749e-04,-9.015836984e-04,-8.464640026e-04,-2.100212639e-04,-1.056485267e-03,-1.007114548e-03,-1.155810083e-06,-1.008270358e-03,-1.054192055e-03,4.407652799e-05,-1.010115527e-03,-8.428031365e-04,-1.119798592e-04,-9.547829958e-04,-1.370724150e-03,3.441676558e-06,-1.367282473e-03,-1.168561889e-03,-1.595661364e-04,-1.328128026e-03,-1.504524577e-03,-3.691204568e-04,-1.873645034e-03,-1.352056582e-03,-4.151409651e-05,-1.393570678e-03,-1.003005211e-03,-7.062311691e-04,-1.709236380e-03,-1.172075907e-04,-2.697472572e-05,-1.441823165e-04,-2.992368069e-04,-7.268462680e-05,-3.719214337e-04,1.179217524e-04,9.392160324e-04,1.057137785e-03,9.984165799e-05,-3.828988999e-04,-2.830572419e-04
-8.7,-4.457202839e-04,-2.267949956e-04,-6.725152795e-04,-8.509560314e-04,-1.197617585e-04,-9.707177899e-04,-7.870154500e-04,-2.298244512e-04,-1.016839901e-03,-5.406487448e-04,-1.274688732e-04,-6.681176180e-04,-2.184378424e-05,-2.076001368e-04,-2.294439211e-04,-5.842211605e-04,7.222626216e-06,-5.769985343e-04,-4.234860924e-04,-6.992970038e-05,-4.934157927e-04,-4.845896333e-04,-1.551351809e-04,-6.397248143e-04,-1.054597076e-03,-1.119384770e-04,-1.166535553e-03,-8.539399451e-04,-9.547627410e-05,-9.494162192e-04,-6.743169891e-04,-3.499117036e-04,-1.024228693e-03,-8.549162024e-04,1.715168052e-04,-6.833993972e-04,-1.838641772e-03,4.635847721e-04,-1.375057000e-03,-4.084293061e-04,4.633413500e-05,-3.620951711e-04,-1.344301436e-03,1.039294371e-03,-3.050070649e-04,-2.451702727e-04,-2.510568801e-04,-4.962271528e-04,-1.346804897e-03,2.168782940e-04,-1.129926603e-03,-1.568965203e-03,9.790639201e-05,-1.471058811e-03,-1.289663601e-03,-2.533081320e-04,-1.542971733e-03,-9.289171022e-04,-3.382997563e-04,-1.267216858e-03,-2.254987104e-03,7.206786770e-05,-2.182919236e-03,-9.709409312e-04,-1.837503028e-04,-1.154691234e-03,-4.880552723e-04,-3.572299444e-04,-8.452852167e-04,-8.076414065e-04,-1.993095291e-04,-1.006950936e-03,-9.824620251e-04,-3.737381658e-06,-9.861994068e-04,-1.023876176e-03,3.784760901e-05,-9.860285670e-04,-8.450408920e-04,-1.129884537e-04,-9.580293456e-04,-1.327474793e-03,-1.003966822e-06,-1.328478760e-03,-1.178840363e-03,-1.444386579e-04,-1.323279021e-03,-1.420108601e-03,-3.593695018e-04,-1.779478103e-03,-1.373506696e-03,-1.949122706e-05,-1.392997923e-03,-1.000753965e-03,-6.249500552e-04,-1.625704020e-03,-2.272279604e-04,-2.732244589e-06,-2.299602050e-04,-2.603856243e-04,-7.319098093e-05,-3.335766052e-04,3.430154497e-05,9.973686651e-04,1.031670210e-03,-2.297535524e-04,-1.273575486e-04,-3.571111009e-04
-8.6,-4.232215655e-04,-2.203487217e-04,-6.435702871e-04,-8.178574444e-04,-1.149827502e-04,-9.328401946e-04,-7.092783342e-04,-2.231134973e-04,-9.323918315e-04,-4.890420630e-04,-1.201281350e-04,-6.091701980e-04,4.153978539e-05,-2.094559922e-04,-1.679162068e-04,-5.592790831e-04,5.928070369e-07,-5.586862761e-04,-4.077961187e-04,-7.003227005e-05,-4.778283888e-04,-4.698907186e-04,-1.734810283e-04,-6.433717469e-04,-1.009888922e-03,-1.081641628e-04,-1.118053085e-03,-8.084361489e-04,-9.267363649e-05,-9.011097854e-04,-6.085463270e-04,-3.388670289e-04,-9.474133558e-04,-8.735741481e-04,1.759452952e-04,-6.976288529e-04,-1.885457938e-03,5.091428910e-04,-1.376315047e-03,-4.023298409e-04,4.442046020e-05,-3.579093807e-04,-1.389717774e-03,1.094658400e-03,-2.950593744e-04,-2.291431756e-04,-2.294266267e-04,-4.585698024e-04,-1.365882565e-03,2.195079235e-04,-1.146374641e-03,-1.523975976e-03,1.130917367e-04,-1.410884240e-03,-1.305669937e-03,-2.410973721e-04,-1.546767309e-03,-8.870056621e-04,-3.459953521e-04,-1.233001014e-03,-2.210387687e-03,1.414969954e-04,-2.068890691e-03,-9.191638755e-04,-1.777771912e-04,-1.096941067e-03,-4.431691003e-04,-3.441844787e-04,-7.873535790e-04,-7.680781076e-04,-1.885738403e-04,-9.566519479e-04,-9.554696647e-04,-6.106374276e-06,-9.615760390e-04,-9.929791268e-04,3.167868833e-05,-9.613004385e-04,-8.472760990e-04,-1.117490798e-04,-9.590251788e-04,-1.283864745e-03,-5.060167678e-06,-1.288924912e-03,-1.186648748e-03,-1.285942390e-04,-1.315242987e-03,-1.331018801e-03,-3.498192513e-04,-1.680838052e-03,-1.391634987e-03,1.798394710e-06,-1.389836592e-03,-1.003885241e-03,-5.314661822e-04,-1.535351423e-03,-3.352669323e-04,2.031025319e-05,-3.149566791e-04,-2.223071790e-04,-7.401252377e-05,-2.963197027e-04,-4.097863662e-05,1.043180665e-03,1.002202029e-03,-5.675006081e-04,1.328992279e-04,-4.346013802e-04
-8.5,-3.994502116e-04,-2.139116576e-04,-6.133618693e-04,-7.838797601e-04,-1.103027132e-04,-8.941824733e-04,-6.302557242e-04,-2.168084047e-04,-8.470641289e-04,-4.374273987e-04,-1.130622262e-04,-5.504896248e-04,1.043087435e-04,-2.111667575e-04,-1.068580140e-04,-5.346174533e-04,-6.162952108e-06,-5.407804054e-04,-3.920663079e-04,-6.982290335e-05,-4.618892113e-04,-4.576807664e-04,-1.913407834e-04,-6.490215497e-04,-9.629686727e-04,-1.046089199e-04,-1.067577593e-03,-7.615312537e-04,-8.996980971e-05,-8.515010634e-04,-5.420170534e-04,-3.270233226e-04,-8.690403760e-04,-8.913783284e-04,1.801041245e-04,-7.112742039e-04,-1.927144802e-03,5.525842526e-04,-1.374560550e-03,-3.959895823e-04,4.190699987e-05,-3.540825824e-04,-1.434989195e-03,1.148651381e-03,-2.863378138e-04,-2.149442527e-04,-2.083284065e-04,-4.232726593e-04,-1.379200515e-03,2.196938118e-04,-1.159506704e-03,-1.474791889e-03,1.261038521e-04,-1.348688037e-03,-1.316205586e-03,-2.296412064e-04,-1.545846793e-03,-8.476789590e-04,-3.504549830e-04,-1.198133942e-03,-2.158546544e-03,2.080158848e-04,-1.950530659e-03,-8.664359897e-04,-1.715042471e-04,-1.037940237e-03,-3.982353295e-04,-3.298333021e-04,-7.280686316e-04,-7.279654331e-04,-1.778602919e-04,-9.058257250e-04,-9.261715198e-04,-8.273524168e-06,-9.344450440e-04,-9.615977898e-04,2.562783865e-05,-9.359699511e-04,-8.493037561e-04,-1.083712306e-04,-9.576749868e-04,-1.240155584e-03,-8.574254462e-06,-1.248729839e-03,-1.191717523e-03,-1.121419600e-04,-1.303859483e-03,-1.237603102e-03,-3.405475256e-04,-1.578150628e-03,-1.406057703e-03,2.207868928e-05,-1.383979013e-03,-1.012510858e-03,-4.264662899e-04,-1.438977148e-03,-4.406065436e-04,4.183651861e-05,-3.987700250e-04,-1.851195836e-04,-7.521131126e-05,-2.603308948e-04,-1.072089579e-04,1.075894705e-03,9.686857467e-04,-9.103826530e-04,3.961502039e-04,-5.142324491e-04
-8.4,-3.745549578e-04,-2.075195290e-04,-5.820744868e-04,-7.491162555e-04,-1.057225786e-04,-8.548388341e-04,-5.504183761e-04,-2.108941832e-04,-7.613125593e-04,-3.860518711e-04,-1.062816263e-04,-4.923334974e-04,1.660837097e-04,-2.126661657e-04,-4.658245604e-05,-5.103057869e-04,-1.301694132e-05,-5.233227282e-04,-3.763137863e-04,-6.930179184e-05,-4.456155781e-04,-4.481950705e-04,-2.083670130e-04,-6.565620836e-04,-9.140062877e-04,-1.012535844e-04,-1.015259872e-03,-7.134027644e-04,-8.735904599e-05,-8.007618104e-04,-4.750613062e-04,-3.144119306e-04,-7.894732367e-04,-9.083018358e-04,1.840048554e-04,-7.242969805e-04,-1.963006592e-03,5.932935433e-04,-1.369713049e-03,-3.894367045e-04,3.883167232e-05,-3.506050322e-04,-1.479277320e-03,1.200680804e-03,-2.785965169e-04,-2.022100442e-04,-1.880542840e-04,-3.902643282e-04,-1.386780221e-03,2.178064766e-04,-1.168973744e-03,-1.421652046e-03,1.369999251e-04,-1.284652121e-03,-1.320994764e-03,-2.189086165e-04,-1.539903381e-03,-8.110096080e-04,-3.515809428e-04,-1.162590551e-03,-2.098684858e-03,2.706624901e-04,-1.828022368e-03,-8.129419887e-04,-1.649608979e-04,-9.779028866e-04,-3.534639419e-04,-3.142716897e-04,-6.677356316e-04,-6.875028774e-04,-1.672123991e-04,-8.547152765e-04,-8.946326117e-04,-1.024529499e-05,-9.048779067e-04,-9.298423395e-04,1.974834824e-05,-9.100939913e-04,-8.509557065e-04,-1.029819591e-04,-9.539376656e-04,-1.196611872e-03,-1.140514573e-05,-1.208017018e-03,-1.193802902e-03,-9.520537716e-05,-1.289008280e-03,-1.140265099e-03,-3.316149103e-04,-1.471880010e-03,-1.416439086e-03,4.109305407e-05,-1.375346032e-03,-1.026630058e-03,-3.108106431e-04,-1.337440702e-03,-5.425987045e-04,6.155661817e-05,-4.810420863e-04,-1.489210720e-04,-7.687333803e-05,-2.257944100e-04,-1.639220069e-04,1.095041815e-03,9.311198086e-04,-1.255426086e-03,6.607081383e-04,-5.947179479e-04
-8.3,-3.487006982e-04,-2.012075415e-04,-5.499082397e-04,-7.136738020e-04,-1.012425514e-04,-8.149163534e-04,-4.702584771e-04,-2.053517355e-04,-6.756102126e-04,-3.351733526e-04,-9.979515727e-05,-4.349685099e-04,2.264803744e-04,-2.138904269e-04,1.258994751e-05,-4.864290561e-04,-1.993569583e-05,-5.063647519e-04,-3.605583564e-04,-6.847634467e-05,-4.290347011e-04,-4.416125420e-04,-2.242346057e-04,-6.658471477e-04,-8.631960263e-04,-9.807874853e-05,-9.612747749e-04,-6.642483411e-04,-8.483409161e-05,-7.490824327e-04,-4.080275014e-04,-3.010713864e-04,-7.090988878e-04,-9.243361773e-04,1.876491482e-04,-7.366870291e-04,-1.992454317e-03,6.307014117e-04,-1.361752905e-03,-3.827024121e-04,3.523486589e-05,-3.474675462e-04,-1.521778105e-03,1.250156221e-03,-2.716218837e-04,-1.906006872e-04,-1.688548757e-04,-3.594555629e-04,-1.388723114e-03,2.142242544e-04,-1.174498860e-03,-1.364865657e-03,1.458649243e-04,-1.219000732e-03,-1.319863130e-03,-2.088351306e-04,-1.528698261e-03,-7.770124041e-04,-3.493382933e-04,-1.126350697e-03,-2.030229840e-03,3.285806753e-04,-1.701649165e-03,-7.588784611e-04,-1.581791841e-04,-9.170576452e-04,-3.090805083e-04,-2.976042983e-04,-6.066848066e-04,-6.468963799e-04,-1.566704992e-04,-8.035668792e-04,-8.609494404e-04,-1.202409689e-05,-8.729735373e-04,-8.978349777e-04,1.408801457e-05,-8.837469631e-04,-8.520998272e-04,-9.572686545e-05,-9.478266927e-04,-1.153496181e-03,-1.342705651e-05,-1.166923237e-03,-1.192687679e-03,-7.792332446e-05,-1.270611004e-03,-1.039466126e-03,-3.230557004e-04,-1.362521826e-03,-1.422500017e-03,5.861192650e-05,-1.363888090e-03,-1.046118526e-03,-1.855169603e-04,-1.231635487e-03,-6.406656409e-04,7.921108384e-05,-5.614545570e-04,-1.137922941e-04,-7.910266693e-05,-1.928949610e-04,-2.108916713e-04,1.100449359e-03,8.895576880e-04,-1.599722004e-03,9.249199093e-04,-6.748020951e-04
-8.2,-3.220663581e-04,-1.950093952e-04,-5.170757533e-04,-6.776711248e-04,-9.686232362e-05,-7.745334484e-04,-3.902833581e-04,-2.001575819e-04,-5.904409400e-04,-2.850564426e-04,-9.360991631e-05,-3.786663589e-04,2.851140871e-04,-2.147786797e-04,7.033540748e-05,-4.630844586e-04,-2.688027051e-05,-4.899647291e-04,-3.448221089e-04,-6.736002498e-05,-4.121821339e-04,-4.380366418e-04,-2.386549097e-04,-6.766915515e-04,-8.107537927e-04,-9.506483942e-05,-9.058186321e-04,-6.142824224e-04,-8.238638287e-05,-6.966688052e-04,-3.412758106e-04,-2.870465887e-04,-6.283223993e-04,-9.394842324e-04,1.910259332e-04,-7.484582992e-04,-2.015009133e-03,6.642983524e-04,-1.350710780e-03,-3.758179781e-04,3.115903904e-05,-3.446589391e-04,-1.561726926e-03,1.296490538e-03,-2.652363883e-04,-1.798027946e-04,-1.509395957e-04,-3.307423904e-04,-1.385196885e-03,2.093190059e-04,-1.175877880e-03,-1.304809690e-03,1.528095717e-04,-1.152000118e-03,-1.312737040e-03,-1.993264354e-04,-1.512063476e-03,-7.456450375e-04,-3.437524343e-04,-1.089397472e-03,-1.952830358e-03,3.810319594e-04,-1.571798399e-03,-7.044508107e-04,-1.511928594e-04,-8.556436701e-04,-2.653238366e-04,-2.799424394e-04,-5.452662760e-04,-6.063542393e-04,-1.462712731e-04,-7.526255124e-04,-8.252482514e-04,-1.360859212e-05,-8.388568435e-04,-8.657053541e-04,8.688725564e-06,-8.570166285e-04,-8.526348757e-04,-8.676992398e-05,-9.394047997e-04,-1.111061749e-03,-1.453278773e-05,-1.125594537e-03,-1.188179700e-03,-6.044938146e-05,-1.248629082e-03,-9.357243235e-04,-3.148685298e-04,-1.250592853e-03,-1.424019408e-03,7.443890768e-05,-1.349580500e-03,-1.070710679e-03,-5.174965099e-05,-1.122460330e-03,-7.342933958e-04,9.457418254e-05,-6.397192133e-04,-7.979786552e-05,-8.201151071e-05,-1.618093762e-04,-2.481096393e-04,1.092224562e-03,8.441149229e-04,-1.940431563e-03,1.187166589e-03,-7.532649739e-04
-8.1,-2.948412468e-04,-1.889560951e-04,-4.837973418e-04,-6.412353208e-04,-9.258115449e-05,-7.338164753e-04,-3.110060127e-04,-1.952837510e-04,-5.062897637e-04,-2.359660187e-04,-8.773129972e-05,-3.236973184e-04,3.416073388e-04,-2.152733734e-04,1.263339654e-04,-4.403754919e-04,-3.380720120e-05,-4.741826931e-04,-3.291274425e-04,-6.597139210e-05,-3.950988346e-04,-4.374769600e-04,-2.513882392e-04,-6.888651992e-04,-7.569126044e-04,-9.219235497e-05,-8.491049594e-04,-5.637301416e-04,-8.000651120e-05,-6.437366528e-04,-2.751690045e-04,-2.723894393e-04,-5.475584437e-04,-9.537521218e-04,1.941119659e-04,-7.596401559e-04,-2.030293376e-03,6.936437782e-04,-1.336649598e-03,-3.688087779e-04,2.664780765e-05,-3.421609702e-04,-1.598394789e-03,1.339094367e-03,-2.593004227e-04,-1.695258409e-04,-1.344803280e-04,-3.040061689e-04,-1.376415503e-03,2.034420477e-04,-1.172973455e-03,-1.241920866e-03,1.579678786e-04,-1.083952988e-03,-1.299635384e-03,-1.902623495e-04,-1.489897734e-03,-7.168084706e-04,-3.349044952e-04,-1.051712966e-03,-1.866363258e-03,4.274032449e-04,-1.438960013e-03,-6.498684237e-04,-1.440363508e-04,-7.939047745e-04,-2.224396081e-04,-2.614013594e-04,-4.838409674e-04,-5.660811231e-04,-1.360473473e-04,-7.021284704e-04,-7.876803688e-04,-1.499395148e-05,-8.026743203e-04,-8.335821940e-04,3.586357492e-06,-8.299958365e-04,-8.524810809e-04,-7.629169101e-05,-9.287727720e-04,-1.069542618e-03,-1.463611111e-05,-1.084178729e-03,-1.180108874e-03,-4.294968246e-05,-1.223058556e-03,-8.296092636e-04,-3.070082461e-04,-1.136617510e-03,-1.420829277e-03,8.841626532e-05,-1.332413011e-03,-1.099976568e-03,8.918646707e-05,-1.010790101e-03,-8.230193899e-04,1.074581725e-04,-7.155612174e-04,-4.698763315e-05,-8.570687970e-05,-1.326945128e-04,-2.757466602e-04,1.070723825e-03,7.949771648e-04,-2.274766432e-03,1.445856409e-03,-8.289100229e-04
-8,-2.672200341e-04,-1.830747899e-04,-4.502948240e-04,-6.044969899e-04,-8.839786786e-05,-6.928948577e-04,-2.329332549e-04,-1.906979925e-04,-4.236312474e-04,-1.881590976e-04,-8.216309961e-05,-2.703221972e-04,3.955993126e-04,-2.153207146e-04,1.802785980e-04,-4.184043472e-04,-4.066983354e-05,-4.590741807e-04,-3.134938575e-04,-6.433338002e-05,-3.778272375e-04,-4.398332357e-04,-2.622542372e-04,-7.020874729e-04,-7.019166773e-04,-8.944222330e-05,-7.913589006e-04,-5.128192340e-04,-7.768476876e-05,-5.905040027e-04,-2.100606796e-04,-2.571600183e-04,-4.672206979e-04,-9.671403234e-04,1.968751972e-04,-7.702651262e-04,-2.038012163e-03,7.183693578e-04,-1.319642805e-03,-3.616866580e-04,2.174434343e-05,-3.399423146e-04,-1.631080960e-03,1.377369455e-03,-2.537115052e-04,-1.594960168e-04,-1.196153038e-04,-2.791113206e-04,-1.362617110e-03,1.969112833e-04,-1.165705827e-03,-1.176681836e-03,1.614936280e-04,-1.015188208e-03,-1.280656747e-03,-1.815008270e-04,-1.462157574e-03,-6.903471998e-04,-3.229262298e-04,-1.013273430e-03,-1.770931773e-03,4.672126370e-04,-1.303719136e-03,-5.953388385e-04,-1.367437405e-04,-7.320825789e-04,-1.806718956e-04,-2.420981330e-04,-4.227700286e-04,-5.262715665e-04,-1.260270004e-04,-6.522985670e-04,-7.484150237e-04,-1.617201948e-05,-7.645870432e-04,-8.015824261e-04,-1.189322871e-06,-8.027717490e-04,-8.515676879e-04,-6.448644787e-05,-9.160541358e-04,-1.029141955e-03,-1.367315302e-05,-1.042815108e-03,-1.168324125e-03,-2.559934615e-05,-1.193923471e-03,-7.217315877e-04,-2.993809452e-04,-1.021112533e-03,-1.412806408e-03,1.004298551e-04,-1.312376553e-03,-1.133298784e-03,2.358509729e-04,-8.974478115e-04,-9.064175526e-04,1.177202208e-04,-7.886973317e-04,-1.539927351e-05,-9.027546061e-05,-1.056747341e-04,-2.941032227e-04,1.036515946e-03,7.424127235e-04,-2.599952639e-03,1.699413055e-03,-9.005395837e-04
-7.9,-2.393971851e-04,-1.773877929e-04,-4.167849780e-04,-5.675849628e-04,-8.431087460e-05,-6.518958374e-04,-1.565534169e-04,-1.863643417e-04,-3.429177586e-04,-1.418765289e-04,-7.690763195e-05,-2.187841609e-04,4.467556118e-04,-2.148712355e-04,2.318843763e-04,-3.972645472e-04,-4.741967112e-05,-4.446842183e-04,-2.979344390e-04,-6.247266650e-05,-3.604071056e-04,-4.448837288e-04,-2.711401218e-04,-7.160238506e-04,-6.460150602e-04,-8.679623950e-05,-7.328112997e-04,-4.617715574e-04,-7.541159967e-05,-5.371831571e-04,-1.462839622e-04,-2.414270348e-04,-3.877109969e-04,-9.796345622e-04,1.992789213e-04,-7.803556409e-04,-2.037933254e-03,7.381789563e-04,-1.299754298e-03,-3.544429281e-04,1.648935374e-05,-3.379535744e-04,-1.659107155e-03,1.410706140e-03,-2.484010152e-04,-1.494520267e-04,-1.064515355e-04,-2.559035622e-04,-1.344043927e-03,1.900005589e-04,-1.154043368e-03,-1.109603487e-03,1.635555214e-04,-9.460479653e-04,-1.255965079e-03,-1.728831422e-04,-1.428848221e-03,-6.660503118e-04,-3.079957684e-04,-9.740460802e-04,-1.666854827e-03,5.001137482e-04,-1.166741079e-03,-5.410620377e-04,-1.293480195e-04,-6.704100572e-04,-1.402548459e-04,-2.221505546e-04,-3.624054004e-04,-4.871045120e-04,-1.162339992e-04,-6.033385112e-04,-7.076310709e-04,-1.713160698e-05,-7.247626779e-04,-7.698005683e-04,-5.615037726e-06,-7.754156061e-04,-8.498197034e-04,-5.155934899e-05,-9.013790524e-04,-9.900195900e-04,-1.160359200e-05,-1.001623182e-03,-1.152691100e-03,-8.578266947e-06,-1.161269367e-03,-6.127292909e-04,-2.918435806e-04,-9.045728715e-04,-1.399863843e-03,1.104126726e-04,-1.289451171e-03,-1.169855007e-03,3.866750750e-04,-7.831799321e-04,-9.840848687e-04,1.252711739e-04,-8.588136947e-04,1.493675629e-05,-9.576865246e-05,-8.083189616e-05,-3.035536214e-04,9.903413539e-04,6.867877324e-04,-2.913202314e-03,1.946268381e-03,-9.669339328e-04
-7.8,-2.115618375e-04,-1.719118703e-04,-3.834737079e-04,-5.306217461e-04,-8.031824064e-05,-6.109399868e-04,-8.232551699e-05,-1.822439448e-04,-2.645694618e-04,-9.733603172e-05,-7.196585180e-05,-1.693018835e-04,4.947762988e-04,-2.138804443e-04,2.808958545e-04,-3.770355012e-04,-5.400766991e-05,-4.310431711e-04,-2.824529633e-04,-6.041896257e-05,-3.428719259e-04,-4.522811908e-04,-2.780057854e-04,-7.302869762e-04,-5.894557065e-04,-8.423750255e-05,-6.736932091e-04,-4.107958684e-04,-7.317789712e-05,-4.839737655e-04,-8.414290780e-05,-2.252673797e-04,-3.094102875e-04,-9.911973484e-04,2.012849077e-04,-7.899124407e-04,-2.029872824e-03,7.528472423e-04,-1.277025582e-03,-3.470440687e-04,1.091936569e-05,-3.361247030e-04,-1.681815787e-03,1.438486567e-03,-2.433292203e-04,-1.391446189e-04,-9.506623344e-05,-2.342108524e-04,-1.320927553e-03,1.829330917e-04,-1.137994461e-03,-1.041206350e-03,1.643314653e-04,-8.768748850e-04,-1.225775872e-03,-1.642410307e-04,-1.390016903e-03,-6.436544953e-04,-2.903341648e-04,-9.339886601e-04,-1.554645187e-03,5.258962099e-04,-1.028748977e-03,-4.872257878e-04,-1.218807965e-04,-6.091065844e-04,-1.014064452e-04,-2.016767110e-04,-3.030831562e-04,-4.487398567e-04,-1.066875669e-04,-5.554274235e-04,-6.655091110e-04,-1.785929840e-05,-6.833684094e-04,-7.383009581e-04,-9.674529012e-06,-7.479754871e-04,-8.471462346e-04,-3.772429339e-05,-8.848705280e-04,-9.522802282e-04,-8.412553310e-06,-9.606927815e-04,-1.133090843e-03,7.933075776e-06,-1.125157767e-03,-5.032551012e-04,-2.842077310e-04,-7.874628321e-04,-1.381944822e-03,1.183465880e-04,-1.263598234e-03,-1.208611131e-03,5.399748159e-04,-6.686363148e-04,-1.055631572e-03,1.300832838e-04,-9.255482883e-04,4.399021576e-05,-1.021895181e-04,-5.819930236e-05,-3.044866562e-04,9.330661152e-04,6.285794590e-04,-3.211711565e-03,2.184864110e-03,-1.026847456e-03
-7.7,-1.838937025e-04,-1.666578786e-04,-3.505515812e-04,-4.937204396e-04,-7.641773881e-05,-5.701381784e-04,-1.067106093e-05,-1.782960516e-04,-1.889671125e-04,-5.472748577e-05,-6.733743567e-05,-1.220649214e-04,5.394012093e-04,-2.123095017e-04,3.270917076e-04,-3.577795368e-04,-6.038551644e-05,-4.181650532e-04,-2.670421894e-04,-5.820414660e-05,-3.252463360e-04,-4.615593203e-04,-2.828839139e-04,-7.444432342e-04,-5.324805515e-04,-8.175071766e-05,-6.142312692e-04,-3.600828272e-04,-7.097516524e-05,-4.310579925e-04,-2.390782230e-05,-2.087651809e-04,-2.326730032e-04,-1.001761380e-03,2.028549743e-04,-7.989064056e-04,-2.013689980e-03,7.622169378e-04,-1.251473043e-03,-3.394311828e-04,5.065973666e-06,-3.343652091e-04,-1.698571813e-03,1.460092800e-03,-2.384790129e-04,-1.283394786e-04,-8.550838916e-05,-2.138478678e-04,-1.293480726e-03,1.758796463e-04,-1.117601080e-03,-9.720037911e-04,1.640029655e-04,-8.080008256e-04,-1.190343935e-03,-1.554047714e-04,-1.345748707e-03,-6.228499028e-04,-2.702016695e-04,-8.930515723e-04,-1.434979147e-03,5.444813289e-04,-8.904978186e-04,-4.340025885e-04,-1.143723870e-04,-5.483749755e-04,-6.432508106e-05,-1.807948257e-04,-2.451199068e-04,-4.113172099e-04,-9.740251080e-05,-5.087197207e-04,-6.222251505e-04,-1.834092077e-05,-6.405660712e-04,-7.071140830e-04,-1.335887871e-05,-7.204729617e-04,-8.434323579e-04,-2.320218685e-05,-8.666345447e-04,-9.159649756e-04,-4.113035799e-06,-9.200780114e-04,-1.109419739e-03,2.375752554e-05,-1.085662214e-03,-3.939688037e-04,-2.762461383e-04,-6.702149420e-04,-1.359020506e-03,1.242623119e-04,-1.234758195e-03,-1.248330915e-03,6.939728574e-04,-5.543580579e-04,-1.120676308e-03,1.321948499e-04,-9.884814579e-04,7.172334138e-05,-1.094835955e-04,-3.776025416e-05,-2.972465066e-04,8.656323479e-04,5.683858413e-04,-3.492682644e-03,2.413657704e-03,-1.079024940e-03
-7.6,-1.565600931e-04,-1.616308098e-04,-3.181909029e-04,-4.569832975e-04,-7.260687730e-05,-5.295901748e-04,5.803123597e-05,-1.744791196e-04,-1.164478836e-04,-1.421070135e-05,-6.302084595e-05,-7.723154730e-05,5.804123903e-04,-2.101259023e-04,3.702864880e-04,-3.395407987e-04,-6.650683954e-05,-4.060476382e-04,-2.516834731e-04,-5.586128258e-05,-3.075447557e-04,-4.721494378e-04,-2.858741686e-04,-7.580236065e-04,-4.753218509e-04,-7.932222224e-05,-5.546440732e-04,-3.098024317e-04,-6.879557619e-05,-3.785980079e-04,3.418535429e-05,-1.920105315e-04,-1.578251772e-04,-1.011226145e-03,2.039517400e-04,-8.072744051e-04,-1.989288456e-03,7.661947704e-04,-1.223093685e-03,-3.315228137e-04,-1.043835696e-06,-3.325666494e-04,-1.708766111e-03,1.474917314e-03,-2.338487969e-04,-1.168229632e-04,-7.780107282e-05,-1.946240361e-04,-1.261894038e-03,1.689600768e-04,-1.092933961e-03,-9.024883253e-04,1.627502209e-04,-7.397381044e-04,-1.149953591e-03,-1.462104074e-04,-1.296163998e-03,-6.032888582e-04,-2.478930383e-04,-8.511818964e-04,-1.308663635e-03,5.559139622e-04,-7.527496725e-04,-3.815484561e-04,-1.068519891e-04,-4.884004452e-04,-2.918792180e-05,-1.596234813e-04,-1.888114031e-04,-3.749564868e-04,-8.838955459e-05,-4.633460414e-04,-5.779466143e-04,-1.856327088e-05,-5.965098852e-04,-6.762370336e-04,-1.666640056e-05,-6.929034341e-04,-8.385355586e-04,-8.218565229e-06,-8.467541238e-04,-8.810488036e-04,1.252117462e-06,-8.797966861e-04,-1.081591112e-03,3.872479794e-05,-1.042866314e-03,-2.855334889e-04,-2.677013308e-04,-5.532348197e-04,-1.331091252e-03,1.282375210e-04,-1.202853731e-03,-1.287607817e-03,8.468293940e-04,-4.407784228e-04,-1.178847784e-03,1.317123642e-04,-1.047135420e-03,9.808407551e-05,-1.175351969e-04,-1.945112140e-05,-2.820846536e-04,7.890104582e-04,5.069258047e-04,-3.753360395e-03,2.631125149e-03,-1.122235246e-03
-7.5,-1.297139657e-04,-1.568302012e-04,-2.865441669e-04,-4.205016180e-04,-6.888297807e-05,-4.893845961e-04,1.234481895e-04,-1.707519578e-04,-4.730376829e-05,2.408469507e-05,-5.901340050e-05,-3.492870543e-05,6.176341778e-04,-2.073041398e-04,4.103300380e-04,-3.223448226e-04,-7.232830231e-05,-3.946731249e-04,-2.363475463e-04,-5.342358511e-05,-2.897711314e-04,-4.834039344e-04,-2.871323809e-04,-7.705363153e-04,-4.181997647e-04,-7.693968469e-05,-4.951394494e-04,-2.601035100e-04,-6.663194255e-05,-3.267354525e-04,8.993307125e-05,-1.750981882e-04,-8.516511700e-05,-1.019458517e-03,2.045397162e-04,-8.149188007e-04,-1.956623106e-03,7.647473174e-04,-1.191875788e-03,-3.232197964e-04,-7.386606679e-06,-3.306064031e-04,-1.711819277e-03,1.482373436e-03,-2.294458411e-04,-1.044106054e-04,-7.194366643e-05,-1.763542718e-04,-1.226336595e-03,1.622474028e-04,-1.064089192e-03,-8.331207864e-04,1.607474620e-04,-6.723733245e-04,-1.104911369e-03,-1.365056525e-04,-1.241417022e-03,-5.845963049e-04,-2.237321680e-04,-8.083284729e-04,-1.176606331e-03,5.603523753e-04,-6.162539560e-04,-3.300033641e-04,-9.934771828e-05,-4.293510823e-04,3.850652296e-06,-1.382825741e-04,-1.344319218e-04,-3.397595772e-04,-7.965586847e-05,-4.194154456e-04,-5.328311119e-04,-1.851542309e-05,-5.513465350e-04,-6.456372270e-04,-1.960211730e-05,-6.652393443e-04,-8.322863605e-04,6.999991975e-06,-8.252863685e-04,-8.474440660e-04,7.609306534e-06,-8.398347595e-04,-1.049538601e-03,5.267476187e-05,-9.968638394e-04,-1.786116281e-04,-2.582957124e-04,-4.369073404e-04,-1.298189705e-03,1.303927863e-04,-1.167796919e-03,-1.324919086e-03,9.966802527e-04,-3.282388334e-04,-1.229793781e-03,1.288118448e-04,-1.100981936e-03,1.230020987e-04,-1.261695768e-04,-3.167478175e-06,-2.591430151e-04,7.041617604e-04,4.450187453e-04,-3.991079581e-03,2.835759991e-03,-1.155319589e-03
-7.4,-1.034927616e-04,-1.522507256e-04,-2.557434872e-04,-3.843564028e-04,-6.524334636e-05,-4.495997492e-04,1.852931722e-04,-1.670747935e-04,1.821837870e-05,6.005802963e-05,-5.531134328e-05,4.746686353e-06,6.509318516e-04,-2.038262848e-04,4.471055669e-04,-3.061978447e-04,-7.781057083e-05,-3.840084156e-04,-2.209961369e-04,-5.092335996e-05,-2.719194968e-04,-4.946222278e-04,-2.868570353e-04,-7.814792631e-04,-3.613208916e-04,-7.459157638e-05,-4.359124680e-04,-2.111145719e-04,-6.447764726e-05,-2.755922192e-04,1.431618182e-04,-1.581267884e-04,-1.496497017e-05,-1.026296799e-03,2.045869896e-04,-8.217098098e-04,-1.915709449e-03,7.578976343e-04,-1.157811815e-03,-3.144106037e-04,-1.394102448e-05,-3.283516282e-04,-1.707186476e-03,1.481905028e-03,-2.252814480e-04,-9.095730590e-05,-6.791300534e-05,-1.588703112e-04,-1.186961060e-03,1.557749636e-04,-1.031186096e-03,-7.643212168e-04,1.581575026e-04,-6.061637142e-04,-1.055540154e-03,-1.261555389e-04,-1.181695693e-03,-5.663804880e-04,-1.980666939e-04,-7.644471819e-04,-1.039793510e-03,5.580590496e-04,-4.817344601e-04,-2.794926952e-04,-9.188647689e-05,-3.713791721e-04,3.466170078e-05,-1.168949713e-04,-8.223327054e-05,-3.058121516e-04,-7.120570430e-05,-3.770178559e-04,-4.870275319e-04,-1.818929174e-05,-5.052168236e-04,-6.152578837e-04,-2.217693324e-05,-6.374348170e-04,-8.244913635e-04,2.223016004e-05,-8.022612035e-04,-8.150078226e-04,1.485425613e-05,-8.001535665e-04,-1.013221028e-03,6.546085019e-05,-9.477601777e-04,-7.385851441e-05,-2.477418772e-04,-3.216003916e-04,-1.260383070e-03,1.308849209e-04,-1.129498149e-03,-1.358691841e-03,1.141677351e-03,-2.170144899e-04,-1.273195586e-03,1.237392990e-04,-1.149456287e-03,1.463893081e-04,-1.351602255e-04,1.122908260e-05,-2.284811945e-04,6.120209601e-04,3.835397656e-04,-4.203323822e-03,3.026074717e-03,-1.177249105e-03
-7.3,-7.801770409e-05,-1.478826880e-04,-2.259003921e-04,-3.486191384e-04,-6.168548853e-05,-4.103046270e-04,2.433264958e-04,-1.634101482e-04,7.991634757e-05,9.363597456e-05,-5.190989567e-05,4.172607889e-05,6.802100231e-04,-1.996823941e-04,4.805276290e-04,-2.910853918e-04,-8.291912535e-05,-3.740045171e-04,-2.055839431e-04,-4.839100233e-05,-2.539749454e-04,-5.050764509e-04,-2.852750585e-04,-7.903515094e-04,-3.048771825e-04,-7.226662030e-05,-3.771438028e-04,-1.629451168e-04,-6.232658236e-05,-2.252716992e-04,1.937270532e-04,-1.411988804e-04,5.252817281e-05,-1.031556486e-03,2.040666742e-04,-8.274898122e-04,-1.866634136e-03,7.457232554e-04,-1.120910881e-03,-3.049757112e-04,-2.068671480e-05,-3.256624260e-04,-1.694363052e-03,1.472995747e-03,-2.213673050e-04,-7.636617748e-05,-6.566364421e-05,-1.420298217e-04,-1.143911671e-03,1.495459576e-04,-9.943657130e-04,-6.964609205e-04,1.551253378e-04,-5.413355827e-04,-1.002174015e-03,-1.150481229e-04,-1.117222138e-03,-5.482427239e-04,-1.712627052e-04,-7.195054290e-04,-8.992774388e-04,5.493948174e-04,-3.498826214e-04,-2.301286871e-04,-8.449374639e-05,-3.146224335e-04,6.314567470e-05,-9.558825951e-05,-3.244258481e-05,-2.731846895e-04,-6.304097640e-05,-3.362256659e-04,-4.406781482e-04,-1.757964505e-05,-4.582577933e-04,-5.850234349e-04,-2.440657547e-05,-6.094300104e-04,-8.149362074e-04,3.725565289e-05,-7.776805545e-04,-7.835505946e-04,2.285321195e-05,-7.606973826e-04,-9.726277419e-04,7.695385409e-05,-8.956738878e-04,2.808697597e-05,-2.357523930e-04,-2.076654170e-04,-1.217771870e-03,1.298976892e-04,-1.087874181e-03,-1.387364952e-03,1.280025319e-03,-1.073396329e-04,-1.308782944e-03,1.168083022e-04,-1.191974642e-03,1.681451918e-04,-1.442398083e-04,2.390538350e-05,-1.901360511e-04,5.135005374e-04,3.233644863e-04,-4.387792730e-03,3.200610924e-03,-1.187181806e-03
-7.2,-5.339303730e-05,-1.437122505e-04,-1.971052878e-04,-3.133520389e-04,-5.820731621e-05,-3.715593551e-04,2.973562504e-04,-1.597234730e-04,1.376327774e-04,1.247715239e-04,-4.880329562e-05,7.596822825e-05,7.054118846e-04,-1.948707186e-04,5.105411660e-04,-2.769699330e-04,-8.762481380e-05,-3.645947468e-04,-1.900603597e-04,-4.585423992e-05,-2.359145996e-04,-5.140358675e-04,-2.826278037e-04,-7.966636712e-04,-2.490445781e-04,-6.995338221e-05,-3.189979603e-04,-1.156864706e-04,-6.017308591e-05,-1.758595566e-04,2.415142984e-04,-1.244217262e-04,1.170925721e-04,-1.035035760e-03,2.029574036e-04,-8.320783568e-04,-1.809563540e-03,7.283568217e-04,-1.081206718e-03,-2.947898809e-04,-2.760362258e-05,-3.223935035e-04,-1.672888106e-03,1.455177832e-03,-2.177102739e-04,-6.059294083e-05,-6.512826233e-05,-1.257212032e-04,-1.097330618e-03,1.435426960e-04,-9.537879216e-04,-6.298559707e-04,1.517720464e-04,-4.780839243e-04,-9.451536981e-04,-1.030989904e-04,-1.048252689e-03,-5.297855692e-04,-1.436991473e-04,-6.734847165e-04,-7.561697636e-04,5.348142023e-04,-2.213555613e-04,-1.820109201e-04,-7.719333046e-05,-2.592042505e-04,8.923736356e-05,-7.449579342e-05,1.474157014e-05,-2.419320244e-04,-5.516165793e-05,-2.970936823e-04,-3.939200140e-04,-1.668394474e-05,-4.106039588e-04,-5.548432308e-04,-2.631037828e-05,-5.811536091e-04,-8.033869387e-04,5.186950632e-05,-7.515174323e-04,-7.528445677e-04,3.144567070e-05,-7.213988970e-04,-9.277827669e-04,8.704574957e-05,-8.407370173e-04,1.266137152e-04,-2.220490312e-04,-9.543531595e-05,-1.170483517e-03,1.276303382e-04,-1.042853179e-03,-1.409439141e-03,1.410012788e-03,5.736466823e-07,-1.336344319e-03,1.083927971e-04,-1.227951522e-03,1.881661839e-04,-1.531130745e-04,3.505310944e-05,-1.441870663e-04,4.095091981e-04,2.653221317e-04,-4.542467853e-03,3.357960000e-03,-1.184507853e-03
-7.1,-2.970468722e-05,-1.397214981e-04,-1.694261853e-04,-2.786072898e-04,-5.480732181e-05,-3.334146116e-04,3.472402355e-04,-1.559835666e-04,1.912566689e-04,1.534441587e-04,-4.598485735e-05,1.074593014e-04,7.265199725e-04,-1.893977588e-04,5.371222137e-04,-2.637877235e-04,-9.190412278e-05,-3.556918463e-04,-1.743705140e-04,-4.333775043e-05,-2.177082644e-04,-5.207895269e-04,-2.791576926e-04,-7.999472195e-04,-1.939810779e-04,-6.764003384e-05,-2.616211118e-04,-6.941161340e-05,-5.801181417e-05,-1.274234276e-04,2.864424354e-04,-1.079086800e-04,1.785337553e-04,-1.036519353e-03,2.012429270e-04,-8.352764257e-04,-1.744748065e-03,7.059900755e-04,-1.038757989e-03,-2.837224149e-04,-3.467180767e-05,-3.183942225e-04,-1.642344310e-03,1.428040248e-03,-2.143040622e-04,-4.364532495e-05,-6.621867645e-05,-1.098640014e-04,-1.047358757e-03,1.377333659e-04,-9.096253914e-04,-5.647623185e-04,1.481905051e-04,-4.165718134e-04,-8.848220510e-04,-9.025382853e-05,-9.750758795e-04,-5.106194006e-04,-1.157612515e-04,-6.263806521e-04,-6.116354409e-04,5.148579007e-04,-9.677754021e-05,-1.352255578e-04,-7.000701149e-05,-2.052325693e-04,1.129109163e-04,-5.375667278e-05,5.915424350e-05,-2.120913340e-04,-4.756599651e-05,-2.596573305e-04,-3.468843180e-04,-1.550232265e-05,-3.623866406e-04,-5.246127670e-04,-2.791013294e-05,-5.525228999e-04,-7.895908979e-04,6.587510623e-05,-7.237157916e-04,-7.226293438e-04,4.044871133e-05,-6.821806325e-04,-8.787465208e-04,9.565309438e-05,-7.830934264e-04,2.211512601e-04,-2.063717494e-04,1.477951076e-05,-1.118660864e-03,1.242848512e-04,-9.943760126e-04,-1.423520600e-03,1.530042586e-03,1.065219859e-04,-1.355729986e-03,9.891483572e-05,-1.256815150e-03,2.063581591e-04,-1.614710203e-04,4.488713883e-05,-9.080991774e-05,3.009759899e-04,2.101660721e-04,-4.665663718e-03,3.496788266e-03,-1.168875452e-03
-7,-7.018234519e-06,-1.358886470e-04,-1.429068815e-04,-2.444254085e-04,-5.148473808e-05,-2.959101466e-04,3.928886115e-04,-1.521628260e-04,2.407257856e-04,1.796610358e-04,-4.344705876e-05,1.362139771e-04,7.435580799e-04,-1.832782516e-04,5.602798283e-04,-2.514454745e-04,-9.573939593e-05,-3.471848704e-04,-1.584556676e-04,-4.086304258e-05,-1.993187102e-04,-5.246669312e-04,-2.750961925e-04,-7.997631236e-04,-1.398245872e-04,-6.531422776e-05,-2.051388149e-04,-2.417424736e-05,-5.583751719e-05,-8.001176455e-05,3.284679792e-04,-9.178058194e-05,2.366873972e-04,-1.035780434e-03,1.989113545e-04,-8.368690799e-04,-1.672521605e-03,6.788800864e-04,-9.936415187e-04,-2.716367838e-04,-4.187101729e-05,-3.135078011e-04,-1.602357029e-03,1.391237016e-03,-2.111200128e-04,-2.557973438e-05,-6.882680907e-05,-9.440654346e-05,-9.941308940e-04,1.320759034e-04,-8.620549906e-04,-5.013719753e-04,1.444434027e-04,-3.569285726e-04,-8.215179944e-04,-7.648997780e-05,-8.980079722e-04,-4.903682549e-04,-8.783268781e-05,-5.782009427e-04,-4.668859782e-04,4.901419314e-04,2.325595316e-05,-8.984390095e-05,-6.295411803e-05,-1.527980190e-04,1.341835124e-04,-3.351492050e-05,1.006685919e-04,-1.836794608e-04,-4.025068814e-05,-2.239301489e-04,-2.996936336e-04,-1.403787128e-05,-3.137315049e-04,-4.942131215e-04,-2.922934971e-05,-5.234424713e-04,-7.732797690e-04,7.908730922e-05,-6.941924598e-04,-6.926148312e-04,4.966267172e-05,-6.429521594e-04,-8.256153422e-04,1.027198832e-04,-7.228954590e-04,3.111838082e-04,-1.884886207e-04,1.226951875e-04,-1.062448688e-03,1.200532154e-04,-9.423954726e-04,-1.428362124e-03,1.638662065e-03,2.102999410e-04,-1.366849638e-03,8.882918183e-05,-1.278020456e-03,2.226510720e-04,-1.690060671e-04,5.364500481e-05,-3.031309204e-05,1.888746178e-04,1.585615258e-04,-4.756052422e-03,3.615857193e-03,-1.140195230e-03
-6.9,1.462325002e-05,-1.321885753e-04,-1.175653253e-04,-2.108334959e-04,-4.823964445e-05,-2.590731404e-04,4.342660454e-04,-1.482373838e-04,2.860286616e-04,2.034582420e-04,-4.118162082e-05,1.622766212e-04,7.565930189e-04,-1.765351406e-04,5.800578784e-04,-2.398177637e-04,-9.911930073e-05,-3.389370644e-04,-1.422534468e-04,-3.844838806e-05,-1.807018348e-04,-5.250573632e-04,-2.706535308e-04,-7.957108940e-04,-8.669127098e-05,-6.296304725e-05,-1.496543182e-04,1.999199238e-05,-5.364475198e-05,-3.365275960e-05,3.675882244e-04,-7.616616607e-05,2.914220583e-04,-1.032581404e-03,1.959545474e-04,-8.366268561e-04,-1.593297020e-03,6.473556232e-04,-9.459413972e-04,-2.583914683e-04,-4.917961186e-05,-3.075710802e-04,-1.552598518e-03,1.344497482e-03,-2.081010355e-04,-6.497894050e-06,-7.282466424e-05,-7.932255829e-05,-9.377686245e-04,1.265193999e-04,-8.112492246e-04,-4.398097174e-04,1.405631067e-04,-2.992466107e-04,-7.555689142e-04,-6.181788361e-05,-8.173867978e-04,-4.686757403e-04,-6.028695649e-05,-5.289626968e-04,-3.231736737e-04,4.613449816e-04,1.381713079e-04,-4.592118206e-05,-5.605110444e-05,-1.019722865e-04,1.531165879e-04,-1.391839233e-05,1.391981955e-04,-1.566908875e-04,-3.321116741e-05,-1.899020549e-04,-2.524583367e-04,-1.229715338e-05,-2.647554900e-04,-4.635105128e-04,-3.029313155e-05,-4.938036444e-04,-7.541761848e-04,9.133487520e-05,-6.628413096e-04,-6.624832388e-04,5.887791262e-05,-6.036053262e-04,-7.685198877e-04,1.082196757e-04,-6.603002120e-04,3.962637259e-04,-1.682078751e-04,2.280558508e-04,-1.001982697e-03,1.151064321e-04,-8.868762647e-04,-1.422896069e-03,1.734588075e-03,3.116920057e-04,-1.369668778e-03,7.860789064e-05,-1.291060887e-03,2.370126643e-04,-1.754265861e-04,6.158607813e-05,3.684627436e-05,7.424069291e-05,1.110869673e-04,-4.812661295e-03,3.714036857e-03,-1.098624438e-03
-6.8,3.520057351e-05,-1.285935953e-04,-9.339302179e-05,-1.778443424e-04,-4.507292903e-05,-2.229172715e-04,4.713920955e-04,-1.441871970e-04,3.272048985e-04,2.249009713e-04,-3.917954130e-05,1.857214300e-04,7.657347992e-04,-1.691995088e-04,5.965352903e-04,-2.287461985e-04,-1.020394968e-04,-3.307856952e-04,-1.256983873e-04,-3.610876867e-05,-1.618071560e-04,-5.214284431e-04,-2.660100994e-04,-7.874385425e-04,-3.467500993e-05,-6.057303936e-05,-9.524804929e-05,6.307324629e-05,-5.142759867e-05,1.164564762e-05,4.038412194e-04,-6.120057100e-05,3.426406484e-04,-1.026675041e-03,1.923677186e-04,-8.343073226e-04,-1.507558265e-03,6.118218937e-04,-8.957363709e-04,-2.438431480e-04,-5.657305876e-05,-3.004162067e-04,-1.492800208e-03,1.287639286e-03,-2.051609220e-04,1.345618239e-05,-7.806377854e-05,-6.460759616e-05,-8.783726739e-04,1.210033032e-04,-7.573693708e-04,-3.801306054e-04,1.365529858e-04,-2.435776195e-04,-6.872830193e-04,-4.628209542e-05,-7.335651147e-04,-4.452110863e-04,-3.347907638e-05,-4.786901627e-04,-1.817864619e-04,4.291943070e-04,2.474078451e-04,-3.496325636e-06,-4.931126588e-05,-5.280759152e-05,1.698142201e-04,4.882492993e-06,1.746967131e-04,-1.310972626e-04,-2.644206687e-05,-1.575393295e-04,-2.052737662e-04,-1.029061619e-05,-2.155643824e-04,-4.323578100e-04,-3.112852067e-05,-4.634863307e-04,-7.320037036e-04,1.024645468e-04,-6.295391569e-04,-6.318926721e-04,6.788217672e-05,-5.640104954e-04,-7.076230829e-04,1.121565845e-04,-5.954664984e-04,4.760215556e-04,-1.453907676e-04,3.306307880e-04,-9.373843361e-04,1.095870913e-04,-8.277972448e-04,-1.406254643e-03,1.816722657e-03,4.104680144e-04,-1.364206932e-03,6.872604473e-05,-1.295480887e-03,2.494574472e-04,-1.804685399e-04,6.898890727e-05,1.100694063e-04,-4.182447993e-05,6.824492634e-05,-4.834854094e-03,3.790319655e-03,-1.044534438e-03
-6.7,5.471827338e-05,-1.250742836e-04,-7.035601022e-05,-1.454569825e-04,-4.198607363e-05,-1.874430562e-04,5.043391937e-04,-1.399961475e-04,3.643430462e-04,2.440819316e-04,-3.743108122e-05,2.066508504e-04,7.711344129e-04,-1.613104218e-04,6.098239910e-04,-2.180412603e-04,-1.045030578e-04,-3.225443180e-04,-1.087231396e-04,-3.385592802e-05,-1.425790676e-04,-5.133429040e-04,-2.613095146e-04,-7.746524186e-04,1.615182343e-05,-5.813031806e-05,-4.197849463e-05,1.050735329e-04,-4.917943182e-05,5.589410108e-05,4.373014531e-04,-4.702174591e-05,3.902797072e-04,-1.017807225e-03,1.881490695e-04,-8.296581558e-04,-1.415848984e-03,5.727619673e-04,-8.430870168e-04,-2.278522645e-04,-6.402253704e-05,-2.918748016e-04,-1.422770706e-03,1.220582176e-03,-2.021885302e-04,3.410046329e-05,-8.437571588e-05,-5.027525259e-05,-8.160158173e-04,1.154548532e-04,-7.005609641e-04,-3.223198239e-04,1.323904530e-04,-1.899293709e-04,-6.169433403e-04,-2.996098138e-05,-6.469043217e-04,-4.196751263e-04,-7.738345313e-06,-4.274134717e-04,-4.403993471e-05,3.944515860e-04,3.504116513e-04,3.740699216e-05,-4.274461760e-05,-5.337625436e-06,1.844185825e-04,2.273668233e-05,2.071552649e-04,-1.068486862e-04,-1.993776441e-05,-1.267864506e-04,-1.582189801e-04,-8.032737894e-06,-1.662517180e-04,-4.005987699e-04,-3.176496903e-05,-4.323637390e-04,-7.064995367e-04,1.123464221e-04,-5.941531146e-04,-6.004834754e-04,7.646774391e-05,-5.240157315e-04,-6.431177486e-04,1.145648810e-04,-5.285528676e-04,5.501687373e-04,-1.199619582e-04,4.302067791e-04,-8.687615788e-04,1.036064534e-04,-7.651551254e-04,-1.377782518e-03,1.884162638e-03,5.063801201e-04,-1.350537221e-03,5.964649718e-05,-1.290890724e-03,2.600496701e-04,-1.839037902e-04,7.614587985e-05,1.886408643e-04,-1.581634764e-04,3.047738792e-05,-4.822309485e-03,3.843838144e-03,-9.784713405e-04
-6.6,7.320283168e-05,-1.216003112e-04,-4.839747948e-05,-1.136587455e-04,-3.898085285e-05,-1.526395983e-04,5.332282471e-04,-1.356521565e-04,3.975760905e-04,2.611179430e-04,-3.592573288e-05,2.251922101e-04,7.729792041e-04,-1.529146223e-04,6.200645818e-04,-2.074872519e-04,-1.065201641e-04,-3.140074160e-04,-9.126052466e-05,-3.169851009e-05,-1.229590347e-04,-5.004714511e-04,-2.566533614e-04,-7.571248125e-04,6.573636416e-05,-5.562068028e-05,1.011568389e-05,1.460112485e-04,-4.689278833e-05,9.911846014e-05,4.680715135e-04,-3.376522289e-05,4.343062906e-04,-1.005721617e-03,1.832995961e-04,-8.224220206e-04,-1.318757274e-03,5.307324653e-04,-7.880248088e-04,-2.102902185e-04,-7.149396704e-05,-2.817841855e-04,-1.342414781e-03,1.143359721e-03,-1.990550601e-04,5.522083205e-05,-9.157398286e-05,-3.635315081e-05,-7.507393079e-04,1.097863091e-04,-6.409529988e-04,-2.662968083e-04,1.280321445e-04,-1.382646638e-04,-5.448040931e-04,-1.296487902e-05,-5.577689721e-04,-3.918060681e-04,1.663753954e-05,-3.751685285e-04,8.873762667e-05,3.579014083e-04,4.466390350e-04,7.677805944e-05,-3.635790431e-05,4.042015512e-05,1.971026292e-04,3.949549716e-05,2.365981263e-04,-8.387651585e-05,-1.369287092e-05,-9.756938678e-05,-1.113571317e-04,-5.542101051e-06,-1.168992328e-04,-3.680747587e-04,-3.223458583e-05,-4.003093445e-04,-6.774287836e-04,1.208799395e-04,-5.565488441e-04,-5.678873713e-04,8.443777921e-05,-4.834495920e-04,-5.752239511e-04,1.155072176e-04,-4.597167335e-04,6.184909811e-04,-9.191494541e-05,5.265760357e-04,-7.962136879e-04,9.724533446e-05,-6.989683535e-04,-1.337050342e-03,1.936209498e-03,5.991591566e-04,-1.328784919e-03,5.180165174e-05,-1.276983268e-03,2.689009651e-04,-1.855456312e-04,8.335533396e-05,2.717619719e-04,-2.735806076e-04,-1.818635712e-06,-4.775003787e-03,3.873877456e-03,-9.011263303e-04
-6.5,9.069962999e-05,-1.181413297e-04,-2.744169970e-05,-8.242842843e-05,-3.605906763e-05,-1.184874961e-04,5.582223981e-04,-1.311472471e-04,4.270751510e-04,2.761452498e-04,-3.465219801e-05,2.414930518e-04,7.714864248e-04,-1.440660182e-04,6.274204066e-04,-1.968498883e-04,-1.081069166e-04,-3.049568050e-04,-7.324629958e-05,-2.964220102e-05,-1.028885006e-04,-4.825999663e-04,-2.520976547e-04,-7.346976210e-04,1.140423749e-04,-5.302970519e-05,6.101266968e-05,1.859145499e-04,-4.455938389e-05,1.413551660e-04,4.962710490e-04,-2.155786783e-05,4.747131811e-04,-9.901658433e-04,1.778233418e-04,-8.123425015e-04,-1.216896702e-03,4.863508904e-04,-7.305458114e-04,-1.910470523e-04,-7.894745675e-05,-2.699945090e-04,-1.251750523e-03,1.056127100e-03,-1.956234226e-04,7.657786816e-05,-9.945678877e-05,-2.287892061e-05,-6.825565845e-04,1.038944970e-04,-5.786620875e-04,-2.119242445e-04,1.234209397e-04,-8.850330484e-05,-4.710897338e-04,4.567296011e-06,-4.665224378e-04,-3.613847707e-04,3.938682425e-05,-3.219979465e-04,2.152295148e-04,3.203415408e-04,5.355710556e-04,1.146161182e-04,-3.015475657e-05,8.446136165e-05,2.080607411e-04,5.501672583e-05,2.630774669e-04,-6.209717372e-05,-7.702506452e-06,-6.979968017e-05,-6.473702316e-05,-2.841756678e-06,-6.757877983e-05,-3.346330345e-04,-3.257193184e-05,-3.672049664e-04,-6.445981840e-04,1.279995958e-04,-5.165985883e-04,-5.337387258e-04,9.161166383e-05,-4.421270620e-04,-5.041862941e-04,1.150717684e-04,-3.891145257e-04,6.808337966e-04,-6.131278250e-05,6.195210141e-04,-7.198374821e-04,9.055700180e-05,-6.292804803e-04,-1.283873675e-03,1.972383048e-03,6.885093728e-04,-1.299123916e-03,4.557424911e-05,-1.253549667e-03,2.761631064e-04,-1.852513191e-04,9.091178730e-05,3.585792357e-04,-3.868596334e-04,-2.828039770e-05,-4.693195010e-03,3.879867748e-03,-8.133272616e-04
-6.4,1.072691915e-04,-1.146678780e-04,-7.398686467e-06,-5.173996281e-05,-3.322233145e-05,-8.496229426e-05,5.795198773e-04,-1.264774575e-04,4.530424199e-04,2.893143999e-04,-3.359837643e-05,2.557160234e-04,7.668960054e-04,-1.348248989e-04,6.320711066e-04,-1.858853070e-04,-1.092835434e-04,-2.951688504e-04,-5.462212905e-05,-2.768989226e-05,-8.231202131e-05,-4.596307575e-04,-2.476509364e-04,-7.072816940e-04,1.610470516e-04,-5.034289590e-05,1.107041557e-04,2.248164385e-04,-4.217030322e-05,1.826461353e-04,5.220248583e-04,-1.051120057e-05,5.115136577e-04,-9.708978872e-04,1.717276298e-04,-7.991702574e-04,-1.110884533e-03,4.402739131e-04,-6.706106195e-04,-1.700381690e-04,-8.633717405e-05,-2.563753430e-04,-1.150923691e-03,9.591642354e-04,-1.917594558e-04,9.791497501e-05,-1.078114291e-04,-9.896454104e-06,-6.114653516e-04,9.766451062e-05,-5.138008410e-04,-1.590202357e-04,1.184937615e-04,-4.052647417e-05,-3.959972543e-04,2.247321391e-05,-3.735240403e-04,-3.282391394e-04,6.028657975e-05,-2.679525596e-04,3.341631233e-04,2.825699257e-04,6.167330490e-04,1.509274078e-04,-2.413603981e-05,1.267913680e-04,2.174986112e-04,6.916958616e-05,2.866681974e-04,-4.141613246e-05,-1.962272945e-06,-4.337840540e-05,-1.839518007e-05,3.992766388e-08,-1.835525241e-05,-3.001351064e-04,-3.281333907e-05,-3.329484454e-04,-6.078672474e-04,1.336790450e-04,-4.741882024e-04,-4.976860665e-04,9.782921741e-05,-3.998568490e-04,-4.302713754e-04,1.133691431e-04,-3.169022324e-04,7.370855510e-04,-2.828642929e-05,7.087991218e-04,-6.397332512e-04,8.357062134e-05,-5.561626299e-04,-1.218335761e-03,1.992437086e-03,7.741013250e-04,-1.261772288e-03,4.128196890e-05,-1.220490320e-03,2.820164485e-04,-1.829214220e-04,9.909502644e-05,4.481945545e-04,-4.967723455e-04,-4.857779094e-05,-4.577405900e-03,3.861358718e-03,-7.160471826e-04
-6.3,1.229832753e-04,-1.111521170e-04,1.183115837e-05,-2.156582620e-05,-3.047182359e-05,-5.203764979e-05,5.973471234e-04,-1.216425615e-04,4.757045619e-04,3.007856068e-04,-3.275133722e-05,2.680342696e-04,7.594637668e-04,-1.252568532e-04,6.342069136e-04,-1.743490924e-04,-1.100724013e-04,-2.844214937e-04,-3.533816584e-05,-2.584197900e-05,-6.118014484e-05,-4.315790072e-04,-2.432736396e-04,-6.748526469e-04,2.067381953e-04,-4.754596281e-05,1.591922325e-04,2.627504676e-04,-3.971630984e-05,2.230341578e-04,5.454522539e-04,-7.150838246e-07,5.447371701e-04,-9.476907696e-04,1.650218363e-04,-7.826689333e-04,-1.001318643e-03,3.931691067e-04,-6.081495359e-04,-1.472087485e-04,-9.361173177e-05,-2.408204803e-04,-1.040217770e-03,8.528749019e-04,-1.873428684e-04,1.189690206e-04,-1.164216151e-04,2.547405458e-06,-5.374650744e-04,9.097705534e-05,-4.464880191e-04,-1.073709259e-04,1.131888397e-04,5.817913767e-06,-3.197013274e-04,4.057404559e-05,-2.791272818e-04,-2.922471459e-04,7.915478130e-05,-2.130923646e-04,4.443470567e-04,2.453655856e-04,6.897126423e-04,1.857230041e-04,-1.830032559e-05,1.674226785e-04,2.256238556e-04,8.184005207e-05,3.074639077e-04,-2.173105702e-05,3.532012916e-06,-1.819904410e-05,2.764218855e-05,3.068059267e-06,3.071024781e-05,-2.644634165e-04,-3.299593732e-05,-2.974593538e-04,-5.671546946e-04,1.379317381e-04,-4.292229566e-04,-4.594013740e-04,1.029537941e-04,-3.564475798e-04,-3.537654598e-04,1.105301519e-04,-2.432353079e-04,7.871645364e-04,6.967825380e-06,7.941323618e-04,-5.560093628e-04,7.629485170e-05,-4.797145111e-04,-1.140807986e-03,1.996372065e-03,8.555640789e-04,-1.216988843e-03,3.916959084e-05,-1.177819252e-03,2.866556379e-04,-1.784968906e-04,1.081587473e-04,5.396580198e-04,-6.020786348e-04,-6.242061493e-05,-4.428411569e-03,3.817997080e-03,-6.104144893e-04
-6.2,1.379213520e-04,-1.075682665e-04,3.035308547e-05,8.120488545e-06,-2.780795936e-05,-1.968747081e-05,6.119531421e-04,-1.166456530e-04,4.953074892e-04,3.107252699e-04,-3.209725546e-05,2.786280145e-04,7.494560898e-04,-1.154314703e-04,6.340246195e-04,-1.620042389e-04,-1.104959729e-04,-2.725002118e-04,-1.535476094e-05,-2.409692178e-05,-3.945168272e-05,-3.985658998e-04,-2.388785376e-04,-6.374444374e-04,2.511122194e-04,-4.462527636e-05,2.064869430e-04,2.997477456e-04,-3.718815886e-05,2.625595868e-04,5.666596820e-04,7.767309942e-06,5.744269920e-04,-9.203339864e-04,1.577136104e-04,-7.626203761e-04,-8.887548648e-04,3.456848029e-04,-5.430700620e-04,-1.225354326e-04,-1.007149177e-04,-2.232503503e-04,-9.200580413e-04,7.377846068e-04,-1.822734345e-04,1.394825419e-04,-1.250766907e-04,1.440585121e-05,-4.605744326e-04,8.371703408e-05,-3.768573985e-04,-5.674173684e-05,1.074512562e-04,5.070951941e-05,-2.423598757e-04,5.868214125e-05,-1.836777344e-04,-2.533379692e-04,9.585234619e-05,-1.574856230e-04,5.447075641e-04,2.094673885e-04,7.541749526e-04,2.190177971e-04,-1.264430013e-05,2.063734970e-04,2.326384716e-04,9.293564556e-05,3.255741171e-04,-2.933493243e-06,8.784633070e-06,5.851139826e-06,7.335772272e-05,6.200026217e-06,7.955774893e-05,-2.275251091e-04,-3.315662238e-05,-2.606817315e-04,-5.224392766e-04,1.408071712e-04,-3.816321055e-04,-4.185857849e-04,1.068744104e-04,-3.117113745e-04,-2.749722884e-04,1.067047975e-04,-1.682674909e-04,8.310128103e-04,4.419352384e-05,8.752063341e-04,-4.687852859e-04,6.872187223e-05,-4.000634137e-04,-1.051960429e-03,1.984440313e-03,9.324798845e-04,-1.165070832e-03,3.940850377e-05,-1.125662328e-03,2.902742914e-04,-1.719545902e-04,1.183197013e-04,6.319592441e-04,-7.015317666e-04,-6.957252247e-05,-4.247237219e-03,3.749524009e-03,-4.977132103e-04
-6.1,1.521676704e-04,-1.038928039e-04,4.827486649e-05,3.734326024e-05,-2.523005739e-05,1.211320285e-05,6.236051832e-04,-1.114927015e-04,5.121124816e-04,3.193037388e-04,-3.162132411e-05,2.876824147e-04,7.371462470e-04,-1.054209786e-04,6.317252683e-04,-1.486276290e-04,-1.105748517e-04,-2.592024807e-04,5.356917210e-06,-2.245212611e-05,-1.709520890e-05,-3.608092951e-04,-2.343325717e-04,-5.951418668e-04,2.941729182e-04,-4.156841800e-05,2.526045002e-04,3.358352517e-04,-3.457682518e-05,3.012584265e-04,5.857374330e-04,1.490249417e-05,6.006399272e-04,-8.886320692e-04,1.498032677e-04,-7.388288016e-04,-7.736871089e-04,2.984229180e-04,-4.752641909e-04,-9.602606891e-05,-1.075863171e-04,-2.036123860e-04,-7.910095284e-04,6.145397811e-04,-1.764697473e-04,1.592144984e-04,-1.335792690e-04,2.563522943e-05,-3.808443938e-04,7.578150980e-05,-3.050628840e-04,-6.887016211e-06,1.012361486e-04,9.434913242e-05,-1.641175534e-04,7.660808142e-05,-8.750947197e-05,-2.114914341e-04,1.102852467e-04,-1.012061874e-04,6.343185544e-04,1.755575802e-04,8.098761346e-04,2.508303960e-04,-7.163070066e-06,2.436673259e-04,2.387331793e-04,1.023890319e-04,3.411222113e-04,1.509043236e-05,1.380018237e-05,2.889061473e-05,1.187418373e-04,9.384734047e-06,1.281265713e-04,-1.892529575e-04,-3.333113517e-05,-2.225840927e-04,-4.737567026e-04,1.423841272e-04,-3.313725755e-04,-3.749722693e-04,1.095070438e-04,-2.654652255e-04,-1.942107877e-04,1.020615760e-04,-9.214921171e-05,8.685945822e-04,8.308372399e-05,9.516783062e-04,-3.781936162e-04,6.083232692e-05,-3.173612893e-04,-9.527566032e-04,1.957141332e-03,1.004384729e-03,-1.106351356e-03,4.209992286e-05,-1.064251434e-03,2.930499849e-04,-1.633011035e-04,1.297488813e-04,7.240324122e-04,-7.939028811e-04,-6.987046888e-05,-4.035161906e-03,3.655792451e-03,-3.793694552e-04
-6,1.658085774e-04,-1.001045109e-04,6.570406651e-05,6.612423605e-05,-2.273610942e-05,4.338812663e-05,6.325848262e-04,-1.061921597e-04,5.263926665e-04,3.266936994e-04,-3.130763725e-05,2.953860622e-04,7.228116078e-04,-9.529896167e-05,6.275126461e-04,-1.340154405e-04,-1.103257471e-04,-2.443411877e-04,2.681506324e-05,-2.090498849e-05,5.910074756e-06,-3.186127380e-04,-2.294602239e-04,-5.480729618e-04,3.359304398e-04,-3.836473823e-05,2.975657016e-04,3.710348185e-04,-3.187367561e-05,3.391611429e-04,6.027596833e-04,2.068729406e-05,6.234469774e-04,-8.524027585e-04,1.412786300e-04,-7.111241284e-04,-6.565320583e-04,2.519174225e-04,-4.046146358e-04,-6.771887567e-05,-1.141615695e-04,-1.818804452e-04,-6.537707551e-04,4.839080542e-04,-1.698627009e-04,1.779465851e-04,-1.417482366e-04,3.619834851e-05,-2.983662238e-04,6.708662004e-05,-2.312796037e-04,4.244076933e-05,9.450996051e-05,1.369507298e-04,-8.510732620e-05,9.416646728e-05,9.059141072e-06,-1.667367344e-04,1.224060397e-04,-4.433069464e-05,7.124231422e-04,1.442518795e-04,8.566750217e-04,2.811834231e-04,-1.850599866e-06,2.793328232e-04,2.440828102e-04,1.101604676e-04,3.542432778e-04,3.245904135e-05,1.858369559e-05,5.104273695e-05,1.637914250e-04,1.256252805e-05,1.763539530e-04,-1.496048923e-04,-3.355326530e-05,-1.831581576e-04,-4.211958991e-04,1.427635778e-04,-2.784323212e-04,-3.283273933e-04,1.107950531e-04,-2.175323402e-04,-1.118124783e-04,9.678562856e-05,-1.502684976e-05,8.998962570e-04,1.232936908e-04,1.023189948e-03,-2.843825665e-04,5.260132604e-05,-2.317812404e-04,-8.444312995e-04,1.915206569e-03,1.070775270e-03,-1.041195576e-03,4.727848652e-05,-9.939170891e-04,2.951311637e-04,-1.525647758e-04,1.425663880e-04,8.147792040e-04,-8.780265158e-04,-6.324731182e-05,-3.793718289e-03,3.536796974e-03,-2.569213149e-04
-5.9,1.789294784e-04,-9.618438373e-05,8.274509467e-05,9.448240623e-05,-2.032263089e-05,7.415977534e-05,6.391833818e-04,-1.007546609e-04,5.384287209e-04,3.330682666e-04,-3.113901979e-05,3.019292468e-04,7.067305247e-04,-8.513918299e-05,6.215913417e-04,-1.179882124e-04,-1.097598112e-04,-2.277480236e-04,4.902744418e-05,-1.945376367e-05,2.957368050e-05,-2.723544120e-04,-2.240482123e-04,-4.964026243e-04,3.763998631e-04,-3.500585672e-05,3.413940064e-04,4.053619759e-04,-2.907067487e-05,3.762913010e-04,6.177860774e-04,2.514759129e-05,6.429336687e-04,-8.114775937e-04,1.321123187e-04,-6.793652750e-04,-5.376184793e-04,2.066179367e-04,-3.310005425e-04,-3.768206211e-05,-1.203725117e-04,-1.580545738e-04,-5.091663207e-04,3.467779208e-04,-1.623883998e-04,1.954841355e-04,-1.494172334e-04,4.606690214e-05,-2.132754307e-04,5.757251722e-05,-1.557029135e-04,9.148097656e-05,8.725094871e-05,1.787319253e-04,-5.452063227e-06,1.111804262e-04,1.057283629e-04,-1.191510200e-04,1.322137710e-04,1.306275105e-05,7.784501378e-04,1.160914838e-04,8.945416216e-04,3.101036176e-04,3.299513453e-06,3.134031310e-04,2.488421944e-04,1.162393369e-04,3.650815313e-04,4.929283031e-05,2.314075440e-05,7.243358471e-05,2.085075208e-04,1.566590052e-05,2.241734213e-04,-1.085640415e-04,-3.385395680e-05,-1.424179983e-04,-3.648961150e-04,1.420625968e-04,-2.228335181e-04,-2.784546953e-04,1.107086325e-04,-1.677460628e-04,-2.811905915e-05,9.107524206e-05,6.295618291e-05,9.249285407e-04,1.644525701e-04,1.089381111e-03,-1.875204369e-04,4.400479741e-05,-1.435156395e-04,-7.284561230e-04,1.859576107e-03,1.131119984e-03,-9.699965286e-04,5.491528390e-05,-9.150812447e-04,2.966270582e-04,-1.397866580e-04,1.568404002e-04,9.031030284e-04,-9.528573663e-04,-4.975433790e-05,-3.524685307e-03,3.392712008e-03,-1.319732988e-04
-5.8,1.916110719e-04,-9.211544740e-05,9.949562445e-05,1.224331349e-04,-1.798450915e-05,1.044486258e-04,6.436960695e-04,-9.519281619e-05,5.485032533e-04,3.385981477e-04,-3.109680799e-05,3.075013397e-04,6.891780778e-04,-7.501448408e-05,6.141635937e-04,-1.003958249e-04,-1.088817824e-04,-2.092776073e-04,7.199090630e-05,-1.809794881e-05,5.389295749e-05,-2.224779027e-04,-2.178515438e-04,-4.403294464e-04,4.155990574e-04,-3.148602722e-05,3.841130302e-04,4.388241286e-04,-2.616062700e-05,4.126635016e-04,6.308631854e-04,2.833613719e-05,6.591993226e-04,-7.657065568e-04,1.222619612e-04,-6.434445956e-04,-4.171817965e-04,1.628771731e-04,-2.543046234e-04,-6.014264459e-06,-1.261476966e-04,-1.321619610e-04,-3.581397024e-04,2.041558325e-04,-1.539838699e-04,2.116528358e-04,-1.564316479e-04,5.522118784e-05,-1.257522004e-04,4.720460049e-05,-7.854759989e-05,1.404537138e-04,7.944989984e-05,2.199036136e-04,7.473313499e-05,1.274845447e-04,2.022176797e-04,-6.885750148e-05,1.397515164e-04,7.089401492e-05,8.320274642e-04,9.153323070e-05,9.235606949e-04,3.376212384e-04,8.293047215e-06,3.459142856e-04,2.531428547e-04,1.206445042e-04,3.737873589e-04,6.571072966e-05,2.747755540e-05,9.318828507e-05,2.528914145e-04,1.862098754e-05,2.715124021e-04,-6.614054988e-05,-3.426000725e-05,-1.004005571e-04,-3.050440116e-04,1.404083894e-04,-1.646356222e-04,-2.252009806e-04,1.092433381e-04,-1.159576425e-04,5.651869742e-05,8.513727948e-05,1.416559769e-04,9.437328856e-04,2.061708850e-04,1.149903771e-03,-8.780273071e-05,3.502491347e-05,-5.277781724e-05,-6.064984984e-04,1.791372319e-03,1.184873821e-03,-8.931719816e-04,6.492054183e-05,-8.282514398e-04,2.976004851e-04,-1.250116311e-04,1.725888539e-04,9.879419365e-04,-1.017523521e-03,-2.958158443e-05,-3.230078649e-03,3.223934168e-03,-6.144481149e-06
-5.7,2.039249850e-04,-8.788257568e-05,1.160424093e-04,1.499864481e-04,-1.571485961e-05,1.342715885e-04,6.464150716e-04,-8.952106534e-05,5.568940063e-04,3.434477645e-04,-3.116063404e-05,3.122871304e-04,6.704205443e-04,-6.499571173e-05,6.054248325e-04,-8.112222550e-05,-1.076901367e-04,-1.888123622e-04,9.568995619e-05,-1.683812134e-05,7.885183486e-05,-1.694850096e-04,-2.106016972e-04,-3.800867068e-04,4.535458258e-04,-2.780227829e-05,4.257435475e-04,4.714179499e-04,-2.313736389e-05,4.482805860e-04,6.420254402e-04,3.032974791e-05,6.723551881e-04,-7.149667709e-04,1.116724766e-04,-6.032942943e-04,-2.953675248e-04,1.209431417e-04,-1.744243831e-04,2.715448623e-05,-1.314136242e-04,-1.042591380e-04,-2.017445339e-04,5.715813808e-05,-1.445863959e-04,2.262921716e-04,-1.626464635e-04,6.364570802e-05,-3.601999366e-05,3.597127854e-05,-4.871512158e-08,1.895486868e-04,7.111112404e-05,2.606598108e-04,1.553379548e-04,1.429263236e-04,2.982642783e-04,-1.602288794e-05,1.451018352e-04,1.290789472e-04,8.729888627e-04,7.093888543e-05,9.439277481e-04,3.637685150e-04,1.313423685e-05,3.769027518e-04,2.570911444e-04,1.234228974e-04,3.805140418e-04,8.182541384e-05,3.160088972e-05,1.134263036e-04,2.969392233e-04,2.134972544e-05,3.182889487e-04,-2.237530028e-05,-3.479230205e-05,-5.716760233e-05,-2.418697019e-04,1.379310846e-04,-1.039386174e-04,-1.684649265e-04,1.064180112e-04,-6.204691524e-05,1.417401301e-04,7.918193557e-05,2.209220657e-04,9.563923975e-04,2.480434016e-04,1.204435799e-03,1.453840699e-05,2.565369115e-05,4.019209814e-05,-4.803752373e-04,1.711874287e-03,1.231499050e-03,-8.111631997e-04,7.714653069e-05,-7.340166690e-04,2.980638172e-04,-1.082821098e-04,1.897817074e-04,1.068290090e-03,-1.071362311e-03,-3.072221393e-06,-2.912140792e-03,3.031120574e-03,1.189797824e-04
-5.6,2.159293189e-04,-8.347231428e-05,1.324570046e-04,1.771447622e-04,-1.350496932e-05,1.636397929e-04,6.476220244e-04,-8.375546222e-05,5.638665622e-04,3.477707139e-04,-3.130826958e-05,3.164624443e-04,6.507091142e-04,-5.515065085e-05,5.955584634e-04,-6.008956974e-05,-1.061779151e-04,-1.662674848e-04,1.200947298e-04,-1.567541587e-05,1.044193140e-04,-1.139288069e-04,-2.020178499e-04,-3.159466568e-04,4.902546215e-04,-2.395431587e-05,4.663003057e-04,5.031263201e-04,-1.999586556e-05,4.831304545e-04,6.512964446e-04,3.122547499e-05,6.825219196e-04,-6.591732655e-04,1.002791710e-04,-5.588940946e-04,-1.722468698e-04,8.095826495e-05,-9.128860486e-05,6.166209690e-05,-1.360967844e-04,-7.443468753e-05,-4.113175775e-05,-9.300363317e-05,-1.341353909e-04,2.392457000e-04,-1.679245865e-04,7.132111343e-05,5.565515215e-05,2.388103735e-05,7.953618949e-05,2.389147393e-04,6.225334663e-05,3.011680859e-04,2.362522312e-04,1.573674966e-04,3.936197278e-04,3.914539447e-05,1.483813447e-04,1.875267392e-04,9.013719343e-04,5.456472938e-05,9.559366637e-04,3.885773953e-04,1.782513393e-05,4.064025293e-04,2.607680474e-04,1.246463634e-04,3.854144108e-04,9.773848381e-05,3.551808492e-05,1.332565687e-04,3.406353967e-04,2.377244330e-05,3.644078400e-04,2.265540983e-05,-3.546396041e-05,-1.280855058e-05,-1.756419602e-04,1.347556413e-04,-4.088631890e-05,-1.082064019e-04,1.022728171e-04,-5.933584803e-06,2.271726852e-04,7.341679906e-05,3.005894842e-04,9.630437486e-04,2.896496246e-04,1.252693373e-03,1.192234968e-04,1.589479646e-05,1.351182932e-04,-3.519974496e-04,1.622492166e-03,1.270494716e-03,-7.244352903e-04,9.139153565e-05,-6.330437547e-04,2.979790898e-04,-8.963692934e-05,2.083421605e-04,1.143206696e-03,-1.113931784e-03,2.927491207e-05,-2.573331878e-03,2.815219936e-03,2.418880580e-04
-5.5,2.276647875e-04,-7.887256034e-05,1.487922271e-04,2.039006465e-04,-1.134437124e-05,1.925562752e-04,6.475808615e-04,-7.791325041e-05,5.696676111e-04,3.517053560e-04,-3.151554363e-05,3.201898123e-04,6.302738501e-04,-4.554293936e-05,5.847309108e-04,-3.726106718e-05,-1.043338501e-04,-1.415949173e-04,1.451589756e-04,-1.461092647e-05,1.305480491e-04,-5.640536967e-05,-1.918208076e-04,-2.482261773e-04,5.257333711e-04,-1.994429751e-05,5.057890735e-04,5.339155801e-04,-1.673242701e-05,5.171831531e-04,6.586915624e-04,3.113577603e-05,6.898273385e-04,-5.982886098e-04,8.801062770e-05,-5.102779821e-04,-4.784301829e-05,4.296572778e-05,-4.877290514e-06,9.731512702e-05,-1.401264291e-04,-4.281130207e-05,1.224685560e-04,-2.450427665e-04,-1.225742104e-04,2.503498956e-04,-1.721344576e-04,7.821543800e-05,1.489646295e-04,1.096098972e-05,1.599256192e-04,2.886507209e-04,5.291012434e-05,3.415608452e-04,3.173590828e-04,1.706863483e-04,4.880454311e-04,9.640233143e-05,1.497353344e-04,2.461376658e-04,9.174138936e-04,4.254925695e-05,9.599631505e-04,4.120773047e-04,2.236530698e-05,4.344426116e-04,2.642303562e-04,1.244077829e-04,3.886381391e-04,1.135365384e-04,3.923700109e-05,1.527735395e-04,3.839461408e-04,2.581068423e-05,4.097568250e-04,6.883596117e-05,-3.627899399e-05,3.255696718e-05,-1.066635111e-04,1.309950645e-04,2.433155338e-05,-4.445489416e-05,9.686805794e-05,5.241316379e-05,3.124304236e-04,6.804056222e-05,3.804709858e-04,9.638854083e-04,3.305554725e-04,1.294440881e-03,2.259158910e-04,5.764211265e-06,2.316801023e-04,-2.233053178e-04,1.524737477e-03,1.301432159e-03,-6.334777374e-04,1.074053711e-04,-5.260723663e-04,2.972621350e-04,-6.911588735e-05,2.281462476e-04,1.211818175e-03,-1.145001899e-03,6.681627590e-05,-2.216327334e-03,2.577500717e-03,3.611733828e-04
-5.4,2.391521694e-04,-7.407200447e-05,1.650801649e-04,2.302353804e-04,-9.221042077e-06,2.210143383e-04,6.465321399e-04,-7.201215899e-05,5.745199809e-04,3.553715579e-04,-3.175632677e-05,3.236152312e-04,6.093190952e-04,-3.623095558e-05,5.730881396e-04,-1.264147974e-05,-1.021438062e-04,-1.147852859e-04,1.708187162e-04,-1.364523212e-05,1.571734841e-04,2.455607073e-06,-1.797476148e-04,-1.772920078e-04,5.599810499e-04,-1.577663431e-05,5.442044155e-04,5.637341169e-04,-1.334498042e-05,5.503891365e-04,6.642218603e-04,3.018360460e-05,6.944054649e-04,-5.323294064e-04,7.479135897e-05,-4.575380474e-04,7.783767877e-05,6.920947917e-06,8.475862668e-05,1.338917416e-04,-1.434377438e-04,-9.546002124e-06,2.877710330e-04,-3.976198088e-04,-1.098487759e-04,2.594250734e-04,-1.751464698e-04,8.427860363e-05,2.435592485e-04,-2.743449509e-06,2.408157990e-04,3.387992132e-04,4.312947291e-05,3.819286861e-04,3.985278697e-04,1.827804003e-04,5.813082700e-04,1.554700335e-04,1.493321451e-04,3.048021786e-04,9.215542976e-04,3.489687395e-05,9.564511715e-04,4.342937459e-04,2.675192810e-05,4.610456740e-04,2.675130293e-04,1.228175605e-04,3.903305898e-04,1.292891996e-04,4.276609720e-05,1.720552968e-04,4.268141917e-04,2.739013525e-05,4.542043270e-04,1.160102734e-04,-3.723185631e-05,7.877841710e-05,-3.526690365e-05,1.267471523e-04,9.148024869e-05,2.268456157e-05,9.028372591e-05,1.129682875e-04,3.971149613e-04,6.323694448e-05,4.603519058e-04,9.591794146e-04,3.703190663e-04,1.329498481e-03,3.342162082e-04,-4.709627168e-06,3.295065811e-04,-9.619644165e-05,1.420186028e-03,1.323989586e-03,-5.388036724e-04,1.248959031e-04,-4.139077694e-04,2.957901590e-04,-4.676797467e-05,2.490221843e-04,1.273319818e-03,-1.164537600e-03,1.087822177e-04,-1.844020204e-03,2.319575171e-03,4.755549667e-04
-5.3,2.503916845e-04,-6.905948395e-05,1.813322005e-04,2.561189543e-04,-7.121694110e-06,2.489972602e-04,6.446897771e-04,-6.606946336e-05,5.786203137e-04,3.588694425e-04,-3.200259063e-05,3.268668518e-04,5.880212902e-04,-2.726672663e-05,5.607545636e-04,1.372542371e-05,-9.959280314e-05,-8.586737942e-05,1.969920338e-04,-1.277809854e-05,1.842139353e-04,6.200050342e-05,-1.655644543e-04,-1.035639509e-04,5.929864748e-04,-1.145789596e-05,5.815285789e-04,5.925130530e-04,-9.833551391e-06,5.826795016e-04,6.678989043e-04,2.849849803e-05,6.963974024e-04,-4.613702931e-04,6.054537273e-05,-4.008249204e-04,2.047759088e-04,-2.729458045e-05,1.774813283e-04,1.711470498e-04,-1.459748566e-04,2.517219317e-05,4.534632373e-04,-5.493651286e-04,-9.590189129e-05,2.662712894e-04,-1.768283409e-04,8.944294858e-05,3.390550904e-04,-1.716927078e-05,3.218858196e-04,3.893452098e-04,3.297260551e-05,4.223178153e-04,4.796097398e-04,1.935682581e-04,6.731779979e-04,2.160445652e-04,1.473568027e-04,3.634013679e-04,9.144465496e-04,3.146087302e-05,9.459074227e-04,4.552482232e-04,3.098028305e-05,4.862285062e-04,2.706327364e-04,1.200010166e-04,3.906337530e-04,1.450496115e-04,4.611454672e-05,1.911641582e-04,4.691561258e-04,2.844371789e-05,4.975998437e-04,1.639849563e-04,-3.830791376e-05,1.256770426e-04,3.818942993e-05,1.220950312e-04,1.602844611e-04,9.302957052e-05,8.261915711e-05,1.756487276e-04,4.808198513e-04,5.916905014e-05,5.399889015e-04,9.492468547e-04,4.085014930e-04,1.357748348e-03,4.436637652e-04,-1.548580672e-05,4.281779585e-04,2.754528655e-05,1.310432790e-03,1.337978076e-03,-4.409466957e-04,1.435350413e-04,-2.974116544e-04,2.934130899e-04,-2.266062786e-05,2.707524621e-04,1.326979129e-03,-1.172682141e-03,1.542969878e-04,-1.459513291e-03,2.043409371e-03,5.838960795e-04
-5.2,2.613644499e-04,-6.382354679e-05,1.975409031e-04,2.815116061e-04,-5.032134034e-06,2.764794721e-04,6.422402533e-04,-6.010093558e-05,5.821393177e-04,3.622802109e-04,-3.222456963e-05,3.300556413e-04,5.665292548e-04,-1.869496693e-05,5.478342879e-04,4.176217892e-05,-9.666775293e-05,-5.490557402e-05,2.235799838e-04,-1.200831011e-05,2.115716737e-04,1.215618719e-04,-1.490765832e-04,-2.751471132e-05,6.247282566e-04,-6.996772310e-06,6.177314843e-04,6.201689595e-04,-6.200723875e-06,6.139682356e-04,6.697394570e-04,2.621433366e-05,6.959537907e-04,-3.855473874e-04,4.520167655e-05,-3.403457109e-04,3.329151322e-04,-5.985906791e-05,2.730560643e-04,2.088199077e-04,-1.476931437e-04,6.112676396e-05,6.182337503e-04,-6.988994361e-04,-8.066568581e-05,2.706700364e-04,-1.770402080e-04,9.362982848e-05,4.350426060e-04,-3.223773168e-05,4.028048743e-04,4.402204487e-04,2.251200756e-05,4.627324562e-04,5.604361877e-04,2.029902948e-04,7.634264825e-04,2.778030502e-04,1.440046145e-04,4.218076647e-04,8.969706118e-04,3.193351147e-05,9.289041233e-04,4.749592813e-04,3.504463648e-05,5.100039177e-04,2.735921875e-04,1.160965821e-04,3.896887696e-04,1.608568613e-04,4.929236350e-05,2.101492248e-04,5.108622871e-04,2.891495002e-05,5.397772372e-04,2.125368034e-04,-3.948478202e-05,1.730520213e-04,1.133255337e-04,1.171095197e-04,2.304350534e-04,1.663230898e-04,7.399217253e-05,2.403152624e-04,5.631373085e-04,5.597428760e-05,6.191115961e-04,9.344591112e-04,4.446806646e-04,1.379139776e-03,5.537441380e-04,-2.651055784e-05,5.272335802e-04,1.463129918e-04,1.197040763e-03,1.343353755e-03,-3.404549715e-04,1.629628247e-04,-1.774921467e-04,2.899683805e-04,3.112069884e-06,2.930804504e-04,1.372136640e-03,-1.169736493e-03,2.024001465e-04,-1.066087040e-03,1.751312463e-03,6.852254231e-04
-5.1,2.720353965e-04,-5.835237727e-05,2.136830192e-04,3.063662498e-04,-2.937688116e-06,3.034285617e-04,6.393432098e-04,-5.411981898e-05,5.852233908e-04,3.656681280e-04,-3.239103149e-05,3.332770965e-04,5.449658279e-04,-1.055233835e-05,5.344134896e-04,7.136443956e-05,-9.336066182e-05,-2.199622226e-05,2.504681693e-04,-1.133350650e-05,2.391346629e-04,1.804696714e-04,-1.301356643e-04,5.033400704e-05,6.551753588e-04,-2.404014523e-06,6.527713443e-04,6.466075282e-04,-2.451961624e-06,6.441555666e-04,6.697685206e-04,2.346891422e-05,6.932374348e-04,-3.050616725e-04,2.870091639e-05,-2.763607561e-04,4.621440280e-04,-9.099712418e-05,3.711469038e-04,2.466395019e-04,-1.485605699e-04,9.807893193e-05,7.807944325e-04,-8.448506426e-04,-6.405621014e-05,2.723912166e-04,-1.756313816e-04,9.675983495e-05,5.310964929e-04,-4.785708139e-05,4.832394115e-04,4.913113750e-04,1.182922257e-05,5.031405975e-04,6.408191899e-04,2.110080525e-04,8.518272424e-04,3.404083268e-04,1.394761267e-04,4.798844536e-04,8.702364266e-04,3.584957096e-05,9.060859976e-04,4.934438920e-04,3.893919625e-05,5.323830883e-04,2.763842663e-04,1.112542169e-04,3.876384832e-04,1.767389906e-04,5.231045878e-05,2.290494494e-04,5.517983214e-04,2.876131545e-05,5.805596368e-04,2.614226058e-04,-4.073440622e-05,2.206881996e-04,1.897441644e-04,1.118510674e-04,3.015952319e-04,2.422385745e-04,6.453749225e-05,3.067760667e-04,6.436646346e-04,5.376028296e-05,6.974249175e-04,9.152270972e-04,4.784648602e-04,1.393691957e-03,6.638988219e-04,-3.771616140e-05,6.261826605e-04,2.587275328e-04,1.081489066e-03,1.340216599e-03,-2.378844275e-04,1.827900062e-04,-5.509442130e-05,2.852974859e-04,3.042282964e-05,3.157203156e-04,1.408196350e-03,-1.156126280e-03,2.520700701e-04,-6.671377147e-04,1.445902601e-03,7.787648868e-04
-5,2.823565227e-04,-5.263393513e-05,2.297225875e-04,3.306307896e-04,-8.236944854e-07,3.298070951e-04,6.361319282e-04,-4.813591426e-05,5.879960139e-04,3.690823263e-04,-3.246962413e-05,3.366127022e-04,5.234292776e-04,-2.866931486e-06,5.205623461e-04,1.024075243e-04,-8.967169544e-05,1.273582889e-05,2.775283202e-04,-1.074988959e-05,2.667784306e-04,2.380642535e-04,-1.086460586e-04,1.294181949e-04,6.842876349e-04,2.307650682e-06,6.865952856e-04,6.717267838e-04,1.404315407e-06,6.731310992e-04,6.680195264e-04,2.040478594e-05,6.884243124e-04,-2.201807348e-04,1.100080283e-05,-2.091799320e-04,5.922837948e-04,-1.209678449e-04,4.713159499e-04,2.843301660e-04,-1.485580612e-04,1.357721048e-04,9.398947457e-04,-9.858679746e-04,-4.597322886e-05,2.712054240e-04,-1.724416396e-04,9.876378444e-05,6.267828574e-04,-6.392508498e-05,5.628577724e-04,5.424673129e-04,1.012677234e-06,5.434799902e-04,7.205516802e-04,2.176018399e-04,9.381535201e-04,4.035103585e-04,1.339736686e-04,5.374840271e-04,8.355699629e-04,4.260488450e-05,8.781748474e-04,5.107183586e-04,4.265887771e-05,5.533772363e-04,2.789949072e-04,1.056334397e-04,3.846283469e-04,1.927152780e-04,5.518060056e-05,2.478958785e-04,5.918071599e-04,2.795681144e-05,6.197639714e-04,3.103881033e-04,-4.202546907e-05,2.683626342e-04,2.670331373e-04,1.063706647e-04,3.734038020e-04,3.203844803e-04,5.440449961e-05,3.747889799e-04,7.220082932e-04,5.260216032e-05,7.746104535e-04,8.919901785e-04,5.095033097e-04,1.401493488e-03,7.735332199e-04,-4.901958913e-05,7.245136308e-04,3.636739396e-04,9.651283945e-04,1.328802334e-03,-1.337935217e-04,2.026006869e-04,6.880716520e-05,2.792626558e-04,5.910515524e-05,3.383678110e-04,1.434604645e-03,-1.132359506e-03,3.022451389e-04,-2.660902715e-04,1.130047307e-03,8.639570359e-04
-4.9,2.922695529e-04,-4.665610033e-05,2.456134526e-04,3.542495522e-04,1.323986501e-06,3.555735387e-04,6.327126484e-04,-4.215481138e-05,5.905578370e-04,3.725574532e-04,-3.242725625e-05,3.401301970e-04,5.019933798e-04,4.342104496e-06,5.063354843e-04,1.347510617e-04,-8.561139510e-05,4.913966665e-05,3.046193516e-04,-1.025174652e-05,2.943676051e-04,2.937110767e-04,-8.457149513e-05,2.091395816e-04,7.120159425e-04,7.123607333e-06,7.191395499e-04,6.954188890e-04,5.356882385e-06,7.007757714e-04,6.645319600e-04,1.717000098e-05,6.817019610e-04,-1.312377556e-04,-7.921269705e-06,-1.391590253e-04,7.230776125e-04,-1.500537784e-04,5.730238342e-04,3.216136587e-04,-1.476789836e-04,1.739346751e-04,1.094329234e-03,-1.120635738e-03,-2.630650384e-05,2.669015690e-04,-1.673085290e-04,9.959303995e-05,7.216604729e-04,-8.032985435e-05,6.413306186e-04,5.935066078e-04,-9.844279348e-06,5.836623285e-04,7.994076030e-04,2.227663205e-04,1.022173923e-03,4.667454648e-04,1.276985057e-04,5.944439706e-04,7.944791946e-04,5.148717043e-05,8.459663651e-04,5.267981425e-04,4.619982959e-05,5.729979721e-04,2.814040017e-04,9.940093857e-05,3.808049403e-04,2.087970739e-04,5.791531147e-05,2.667123854e-04,6.307108432e-04,2.649284850e-05,6.572036917e-04,3.591737199e-04,-4.332558155e-05,3.158481383e-04,3.447644815e-04,1.007104647e-04,4.454749462e-04,4.003067172e-04,4.375461021e-05,4.440613274e-04,7.977852984e-04,5.254095617e-05,8.503262546e-04,8.652061564e-04,5.374928643e-04,1.402699021e-03,8.820213906e-04,-6.032192246e-05,8.216994682e-04,4.603216380e-04,8.491510952e-04,1.309472733e-03,-2.873939166e-05,2.219552424e-04,1.932158507e-04,2.717630958e-04,8.894676782e-05,3.607098636e-04,1.450830354e-03,-1.098991525e-03,3.518388286e-04,1.336951654e-04,8.067865204e-04,9.404816858e-04
-4.8,3.017076734e-04,-4.040688488e-05,2.613007885e-04,3.771635805e-04,3.518515442e-06,3.806820959e-04,6.291625216e-04,-3.617730488e-05,5.929852167e-04,3.761128538e-04,-3.223048647e-05,3.438823673e-04,4.807059011e-04,1.106485198e-05,4.917707531e-04,1.682409002e-04,-8.120165058e-05,8.703924961e-05,3.315876660e-04,-9.830809745e-06,3.217568562e-04,3.468164441e-04,-5.794209458e-05,2.888743495e-04,7.383016779e-04,1.202748286e-05,7.503291607e-04,7.175703523e-04,9.391993821e-06,7.269623462e-04,6.593477383e-04,1.391773273e-05,6.732654710e-04,-3.862911217e-05,-2.806775168e-05,-6.669686385e-05,8.541824193e-04,-1.785504522e-04,6.756319672e-04,3.582090970e-04,-1.459279352e-04,2.122811618e-04,1.242939024e-03,-1.247887048e-03,-4.948024231e-06,2.593081141e-04,-1.600793130e-04,9.922880112e-05,8.152756969e-04,-9.694826885e-05,7.183274281e-04,6.442202720e-04,-2.064512417e-05,6.235751479e-04,8.771405441e-04,2.265048195e-04,1.103645364e-03,5.297341252e-04,1.208481215e-04,6.505822467e-04,7.486051203e-04,6.171372187e-05,8.103188422e-04,5.416963272e-04,4.955998172e-05,5.912563089e-04,2.835842304e-04,9.272818531e-05,3.763124158e-04,2.249871962e-04,6.052769206e-05,2.855148883e-04,6.683118865e-04,2.437746059e-05,6.926893471e-04,4.075166705e-04,-4.460300421e-05,3.629136663e-04,4.224909204e-04,9.490468186e-05,5.173956023e-04,4.814895374e-04,3.275858616e-05,5.142481236e-04,8.706224605e-04,5.358275908e-05,9.242052196e-04,8.353429039e-04,5.621808162e-04,1.397523720e-03,9.887075433e-04,-7.150916579e-05,9.171983775e-04,5.481262957e-04,7.345768807e-04,1.282703176e-03,7.672676039e-05,2.403924228e-04,3.171191832e-04,2.627477142e-04,1.196831819e-04,3.824308961e-04,1.456363233e-03,-1.056611635e-03,3.997515973e-04,5.289951696e-04,4.792618928e-04,1.008257062e-03
-4.7,3.105965574e-04,-3.387497597e-05,2.767215814e-04,3.993099942e-04,5.771672285e-06,4.050816665e-04,6.255267189e-04,-3.019906391e-05,5.953276549e-04,3.797505667e-04,-3.184591903e-05,3.479046476e-04,4.595859033e-04,1.730086082e-05,4.768867641e-04,2.027086563e-04,-7.647560250e-05,1.262330538e-04,3.582668238e-04,-9.475551719e-06,3.487912721e-04,3.968435655e-04,-2.886093164e-05,3.679826339e-04,7.630757848e-04,1.700142578e-05,7.800772105e-04,7.380610105e-04,1.349373937e-05,7.515547499e-04,6.525073898e-04,1.080464000e-05,6.633120298e-04,5.718737736e-05,-4.942080683e-05,7.766570531e-06,9.851654432e-04,-2.067564345e-04,7.784090087e-04,3.938316810e-04,-1.433192860e-04,2.505123950e-04,1.384608405e-03,-1.366416441e-03,1.819196369e-05,2.483147638e-04,-1.506249435e-04,9.768982027e-05,9.071539744e-04,-1.136430114e-04,7.935109630e-04,6.943735727e-04,-3.129180744e-05,6.630817652e-04,9.534797271e-04,2.288239062e-04,1.182303633e-03,5.920778663e-04,1.136137870e-04,7.056916534e-04,6.996674975e-04,7.246980294e-05,7.721373004e-04,5.554209075e-04,5.273980357e-05,6.081607111e-04,2.854987070e-04,8.578917061e-05,3.712878776e-04,2.412784617e-04,6.303113146e-05,3.043095931e-04,7.043940352e-04,2.163350826e-05,7.260275435e-04,4.551504344e-04,-4.582792258e-05,4.093225118e-04,4.997413542e-04,8.898090074e-05,5.887222549e-04,5.633562400e-04,2.159368286e-05,5.849499228e-04,9.401539621e-04,5.569890380e-05,9.958528659e-04,8.028709873e-04,5.833644475e-04,1.386235435e-03,1.092905271e-03,-8.245448472e-05,1.010450787e-03,6.268150436e-04,6.222500025e-04,1.249065046e-03,1.820651687e-04,2.574306996e-04,4.394958683e-04,2.522206570e-04,1.509938560e-04,4.032145130e-04,1.450734957e-03,-1.005851474e-03,4.448834827e-04,9.167563976e-04,1.506710349e-04,1.067427433e-03
-4.6,3.188551478e-04,-2.705068893e-05,2.918044588e-04,4.206209532e-04,8.093455741e-06,4.287144089e-04,6.218157074e-04,-2.421059674e-05,5.976051107e-04,3.834528614e-04,-3.124060453e-05,3.522122569e-04,4.386207912e-04,2.305932315e-05,4.616801144e-04,2.379700814e-04,-7.147686121e-05,1.664932201e-04,3.844770857e-04,-9.170603951e-06,3.753064817e-04,4.433283658e-04,2.490203886e-06,4.458185697e-04,7.862575478e-04,2.202654282e-05,8.082840906e-04,7.567625334e-04,1.764443044e-05,7.744069638e-04,6.440464640e-04,7.988615437e-06,6.520350794e-04,1.556931904e-04,-7.194129474e-05,8.375189569e-05,1.115505552e-03,-2.349622504e-04,8.805433014e-04,4.281918164e-04,-1.398758987e-04,2.883159177e-04,1.518260071e-03,-1.475091879e-03,4.316819208e-05,2.338904411e-04,-1.388529444e-04,9.503749669e-05,9.967916740e-04,-1.302600900e-04,8.665315840e-04,7.437068944e-04,-4.168654188e-05,7.020203525e-04,1.028122932e-03,2.297298681e-04,1.257852800e-03,6.533570168e-04,1.061781479e-04,7.595351646e-04,6.494121950e-04,8.294376519e-05,7.323559602e-04,5.679717454e-04,5.574309595e-05,6.237148413e-04,2.870991792e-04,7.875797797e-05,3.658571572e-04,2.576522374e-04,6.543894268e-05,3.230911801e-04,7.387227767e-04,1.829659344e-05,7.570193701e-04,5.018030335e-04,-4.697325380e-05,4.548297797e-04,5.760168477e-04,8.296214473e-05,6.589789925e-04,6.452719808e-04,1.043976166e-05,6.557117424e-04,1.006018128e-03,5.882796116e-05,1.064846089e-03,7.682562745e-04,6.008886543e-04,1.369144929e-03,1.193897185e-03,-9.302211231e-05,1.100875073e-03,6.963603674e-04,5.128442549e-04,1.209204622e-03,2.867510371e-04,2.725711121e-04,5.593221492e-04,2.402387724e-04,1.825030310e-04,4.227418034e-04,1.433549067e-03,-9.474032902e-04,4.861457768e-04,1.294097914e-03,-1.757592675e-04,1.118338646e-03
-4.5,3.263966944e-04,-1.992705972e-05,3.064696347e-04,4.410229085e-04,1.049171550e-05,4.515146240e-04,6.180039248e-04,-1.819745030e-05,5.998064745e-04,3.871803521e-04,-3.038241662e-05,3.567979355e-04,4.177644131e-04,2.835914825e-05,4.461235614e-04,2.738234291e-04,-6.625814716e-05,2.075652820e-04,4.100255156e-04,-8.896512946e-06,4.011290026e-04,4.858935062e-04,3.584669872e-05,5.217402049e-04,8.077537572e-04,2.708336353e-05,8.348371207e-04,7.735375223e-04,2.182490927e-05,7.953624316e-04,6.339927246e-04,5.626424535e-06,6.396191491e-04,2.563098073e-04,-9.556636314e-05,1.607434441e-04,1.244596812e-03,-2.634355826e-04,9.811612294e-04,4.609960759e-04,-1.356282067e-04,3.253678692e-04,1.642854141e-03,-1.572867583e-03,6.998655736e-05,2.160933825e-04,-1.247156634e-04,9.137771917e-05,1.083650731e-03,-1.466281694e-04,9.370225618e-04,7.919377722e-04,-5.173389380e-05,7.402038784e-04,1.100727921e-03,2.292277716e-04,1.329955692e-03,7.131316005e-04,9.871253071e-05,8.118441312e-04,5.995626978e-04,9.235768151e-05,6.919203793e-04,5.793384921e-04,5.857743999e-05,6.379159321e-04,2.883264340e-04,7.180618781e-05,3.601326218e-04,2.740780494e-04,6.776400721e-05,3.418420566e-04,7.710464720e-04,1.441319716e-05,7.854596691e-04,5.471956798e-04,-4.801487338e-05,4.991808064e-04,6.507882950e-04,7.687015674e-05,7.276584518e-04,7.265513672e-04,-5.262034923e-07,7.260251637e-04,1.067855378e-03,6.287944383e-05,1.130734822e-03,7.319527909e-04,6.146433311e-04,1.346596122e-03,1.290938982e-03,-1.030731879e-04,1.187865795e-03,7.569482803e-04,4.068742842e-04,1.163822565e-03,3.902733537e-04,2.853042381e-04,6.755775918e-04,2.269043313e-04,2.137855218e-04,4.406898530e-04,1.404504117e-03,-8.820346633e-04,5.224694540e-04,1.658302778e-03,-4.968030277e-04,1.161499750e-03
-4.4,3.331304819e-04,-1.250069870e-05,3.206297832e-04,4.604368473e-04,1.297195935e-05,4.734088066e-04,6.140309785e-04,-1.214052942e-05,6.018904491e-04,3.908717946e-04,-2.924037484e-05,3.616314198e-04,3.969376364e-04,3.322885559e-05,4.301664920e-04,3.100488330e-04,-6.087931068e-05,2.491695223e-04,4.347072888e-04,-8.629980321e-06,4.260773085e-04,5.242583661e-04,7.086113970e-05,5.951195058e-04,8.274589754e-04,3.215215922e-05,8.596111346e-04,7.882403385e-04,2.601467795e-05,8.142550165e-04,6.223654209e-04,3.871140979e-06,6.262365619e-04,3.584006103e-04,-1.202053671e-04,2.381952431e-04,1.371753669e-03,-2.924027498e-04,1.079350919e-03,4.919508999e-04,-1.306135549e-04,3.613373450e-04,1.757394948e-03,-1.658797933e-03,9.859701552e-05,1.950721969e-04,-1.082122908e-04,8.685990612e-05,1.167157338e-03,-1.625602518e-04,1.004597086e-03,8.387649522e-04,-6.134266157e-05,7.774222906e-04,1.170906004e-03,2.273227012e-04,1.398228705e-03,7.709464218e-04,9.137434927e-05,8.623207710e-04,5.517773939e-04,9.999389905e-05,6.517712929e-04,5.895005909e-04,6.125413088e-05,6.507547218e-04,2.891136131e-04,6.510049040e-05,3.542141035e-04,2.905151231e-04,7.001848582e-05,3.605336089e-04,8.010989474e-04,1.003950192e-05,8.111384494e-04,5.910435473e-04,-4.893127050e-05,5.421122768e-04,7.234971730e-04,7.072976129e-05,7.942269343e-04,8.064721977e-04,-1.113630153e-05,7.953358961e-04,1.125309639e-03,6.773825355e-05,1.193047893e-03,6.943974942e-04,6.245611353e-04,1.318958630e-03,1.383270598e-03,-1.124727088e-04,1.270797889e-03,8.089465110e-04,3.047113722e-04,1.113657883e-03,4.921288399e-04,2.951226548e-04,7.872514947e-04,2.123575226e-04,2.443764520e-04,4.567339746e-04,1.363408753e-03,-8.105951453e-04,5.528136078e-04,2.006812237e-03,-8.092833022e-04,1.197528934e-03
-4.3,3.389645489e-04,-4.772210289e-06,3.341923386e-04,4.787800687e-04,1.553742540e-05,4.943174941e-04,6.098058846e-04,-6.016469893e-06,6.037894147e-04,3.944463091e-04,-2.778494433e-05,3.666613648e-04,3.760322997e-04,3.770617592e-05,4.137384756e-04,3.464096035e-04,-5.540490358e-05,2.910047000e-04,4.583085336e-04,-8.344603250e-06,4.499639304e-04,5.582441439e-04,1.071095990e-04,6.653537429e-04,8.452573592e-04,3.721304736e-05,8.824704066e-04,8.007202751e-04,3.019191684e-05,8.309121920e-04,6.091778376e-04,2.868999267e-06,6.120468369e-04,4.612750159e-04,-1.457343500e-04,3.155406659e-04,1.496219587e-03,-3.220293584e-04,1.174190229e-03,5.207690458e-04,-1.248755434e-04,3.958935024e-04,1.860947163e-03,-1.732052017e-03,1.288951461e-04,1.710603004e-04,-8.938637721e-05,8.167392317e-05,1.246705264e-03,-1.778577541e-04,1.068847510e-03,8.838739653e-04,-7.042668861e-05,8.134472767e-04,1.238221084e-03,2.240225201e-04,1.462243604e-03,8.263400021e-04,8.430485862e-05,9.106448607e-04,5.076142859e-04,1.052181954e-04,6.128324813e-04,5.984295591e-04,6.378776417e-05,6.622173232e-04,2.893920813e-04,5.880055270e-05,3.481926340e-04,3.069158938e-04,7.221361337e-05,3.791295072e-04,8.286041050e-04,5.241137874e-06,8.338452429e-04,6.330601055e-04,-4.970287583e-05,5.833572297e-04,7.935609490e-04,6.457320343e-05,8.581341524e-04,8.842948015e-04,-2.123707866e-05,8.630577228e-04,1.178033826e-03,7.326912456e-05,1.251302950e-03,6.560082744e-04,6.306149690e-04,1.286623243e-03,1.470133220e-03,-1.210959174e-04,1.349037303e-03,8.528772148e-04,2.066016274e-04,1.059478842e-03,5.918127002e-04,3.015391551e-04,8.933518553e-04,1.967708104e-04,2.737842865e-04,4.705550969e-04,1.310198630e-03,-7.340194849e-04,5.761791455e-04,2.337223698e-03,-1.110136606e-03,1.227087092e-03
-4.2,3.438093340e-04,3.253773312e-06,3.470631073e-04,4.959694623e-04,1.818936431e-05,5.141588266e-04,6.052137055e-04,2.019187454e-07,6.054156242e-04,3.978078299e-04,-2.598838530e-05,3.718194446e-04,3.549181467e-04,4.183728033e-05,3.967554270e-04,3.826556143e-04,-4.990156445e-05,3.327540498e-04,4.806104784e-04,-8.011929810e-06,4.725985486e-04,5.877748582e-04,1.441040920e-04,7.318789502e-04,8.610257832e-04,4.224595893e-05,9.032717421e-04,8.108266407e-04,3.433360967e-05,8.451602504e-04,5.944426223e-04,2.755641652e-06,5.971982639e-04,5.641953359e-04,-1.719902002e-04,3.922051357e-04,1.617179165e-03,-3.524034004e-04,1.264775764e-03,5.471776629e-04,-1.184631531e-04,4.287145098e-04,1.952659938e-03,-1.791929124e-03,1.607308144e-04,1.443674089e-04,-6.832224809e-05,7.604516079e-05,1.321664051e-03,-1.923165133e-04,1.129347538e-03,9.269437616e-04,-7.890478886e-05,8.480389727e-04,1.302194280e-03,2.193419432e-04,1.521536223e-03,8.788558360e-04,7.762693523e-05,9.564827712e-04,4.685035011e-04,1.074983648e-04,5.760018659e-04,6.060927265e-04,6.619570941e-05,6.722884359e-04,2.890986048e-04,5.305662658e-05,3.421552314e-04,3.232303051e-04,7.435959720e-05,3.975899023e-04,8.532826970e-04,9.355795933e-08,8.533762550e-04,6.729649165e-04,-5.031143732e-05,6.226534792e-04,8.603837583e-04,5.844284319e-05,9.188266015e-04,9.592850605e-04,-3.069386609e-05,9.285911944e-04,1.225697714e-03,7.932098889e-05,1.305018703e-03,6.171850089e-04,6.328142111e-04,1.249999220e-03,1.550788131e-03,-1.288330523e-04,1.421955079e-03,8.893935074e-04,1.126850431e-04,1.002078551e-03,6.888080708e-04,3.041098222e-04,9.929178930e-04,1.803440065e-04,3.015069676e-04,4.818509741e-04,1.244962033e-03,-6.533318018e-04,5.916302312e-04,2.647288193e-03,-1.396480028e-03,1.250808165e-03
-4.1,3.475816173e-04,1.156880963e-05,3.591504269e-04,5.119255013e-04,2.092740954e-05,5.328529108e-04,6.001229544e-04,6.545111554e-06,6.066680660e-04,4.008505929e-04,-2.382519470e-05,3.770253982e-04,3.334510360e-04,4.567565744e-05,3.791266935e-04,4.185276085e-04,-4.443523250e-05,3.740923760e-04,5.013941607e-04,-7.602499016e-06,4.937916616e-04,6.128745535e-04,1.813097960e-04,7.941843495e-04,8.746374196e-04,4.723060879e-05,9.218680283e-04,8.184144342e-04,3.841592814e-05,8.568303623e-04,5.781773075e-04,3.652477825e-06,5.818297854e-04,6.663860446e-04,-1.987659016e-04,4.676201430e-04,1.733771605e-03,-3.835232343e-04,1.350248371e-03,5.709261097e-04,-1.114296508e-04,4.594964589e-04,2.031795454e-03,-1.837876086e-03,1.939193674e-04,1.153716511e-04,-4.514323856e-05,7.022841251e-05,1.391391356e-03,-2.057336326e-04,1.185657723e-03,9.676544620e-04,-8.670108218e-05,8.809533798e-04,1.362311319e-03,2.133077490e-04,1.575619068e-03,9.280535494e-04,7.144279162e-05,9.994963410e-04,4.357263240e-04,1.064146491e-04,5.421409731e-04,6.124571779e-04,6.849750214e-05,6.809546801e-04,2.881822073e-04,4.800653969e-05,3.361887470e-04,3.394092000e-04,7.646563875e-05,4.158748387e-04,8.748606502e-04,-5.317650358e-06,8.695429998e-04,7.104927882e-04,-5.073971734e-05,6.597530709e-04,9.233712984e-04,5.239100087e-05,9.757622992e-04,1.030737620e-03,-3.939430536e-05,9.913433145e-04,1.267995605e-03,8.573137053e-05,1.353726976e-03,5.783122601e-04,6.311994076e-04,1.209511668e-03,1.624533267e-03,-1.355922924e-04,1.488940975e-03,9.192542415e-04,2.301385005e-05,9.422680915e-04,7.825766960e-04,3.024588905e-04,1.085035586e-03,1.632984563e-04,3.270496334e-04,4.903480897e-04,1.167972094e-03,-5.696491864e-04,5.983229074e-04,2.934904829e-03,-1.665666908e-03,1.269237921e-03
-4,3.502078497e-04,2.016103087e-05,3.703688806e-04,5.265758600e-04,2.374992362e-05,5.503257836e-04,5.943920850e-04,1.304624231e-05,6.074383273e-04,4.034642059e-04,-2.127262554e-05,3.821915803e-04,3.114804035e-04,4.928077696e-05,3.607611804e-04,4.537606709e-04,-3.906802552e-05,4.146926453e-04,5.204448433e-04,-7.086623258e-06,5.133582201e-04,6.336598450e-04,2.181652812e-04,8.518251262e-04,8.859649533e-04,5.214655171e-05,9.381115050e-04,8.233491858e-04,4.241483616e-05,8.657640219e-04,5.604071278e-04,5.664239415e-06,5.660713673e-04,7.670442785e-04,-2.258077222e-04,5.412365563e-04,1.845104446e-03,-4.152917272e-04,1.429812718e-03,5.917917555e-04,-1.038313875e-04,4.879603680e-04,2.097755109e-03,-1.869505106e-03,2.282500032e-04,8.451366460e-05,-2.001242969e-05,6.450123491e-05,1.455247117e-03,-2.179139495e-04,1.237333168e-03,1.005695601e-03,-9.374651587e-05,9.119490849e-04,1.418030022e-03,2.059643516e-04,1.623994374e-03,9.735181356e-04,6.583213486e-05,1.039350270e-03,4.103984203e-04,1.016596196e-04,5.120580399e-04,6.174928407e-04,7.071408921e-05,6.882069299e-04,2.866094184e-04,4.377236501e-05,3.303817834e-04,3.554057740e-04,7.854002330e-05,4.339457973e-04,8.930776420e-04,-1.089715147e-05,8.821804906e-04,7.454013871e-04,-5.097149208e-05,6.944298950e-04,9.819479054e-04,4.647657037e-05,1.028424476e-03,1.097995019e-03,-4.725061453e-05,1.050744405e-03,1.304651838e-03,9.233090272e-05,1.396982741e-03,5.397606088e-04,6.258366236e-04,1.165597232e-03,1.690714735e-03,-1.413006840e-04,1.549414051e-03,9.432919993e-04,-6.243061978e-05,8.808613795e-04,8.725542637e-04,2.963008154e-04,1.168855079e-03,1.458704959e-04,3.499406910e-04,4.958111869e-04,1.079714146e-03,-4.841788955e-04,5.955352509e-04,3.198115712e-03,-1.915324971e-03,1.282790741e-03
-3.9,3.516262708e-04,2.901559404e-05,3.806418648e-04,5.398578843e-04,2.665422790e-05,5.665121122e-04,5.878741174e-04,1.974040020e-05,6.076145176e-04,4.055372972e-04,-1.831123073e-05,3.872260665e-04,2.888546486e-04,5.271671449e-05,3.415713631e-04,4.880859251e-04,-3.385491651e-05,4.542310086e-04,5.375555922e-04,-6.434910525e-06,5.311206817e-04,6.503265887e-04,2.541038693e-04,9.044304580e-04,8.948830410e-04,5.697331954e-05,9.518563605e-04,8.255101016e-04,4.630676189e-05,8.718168635e-04,5.411642765e-04,8.878115840e-06,5.500423924e-04,8.653497191e-04,-2.528145323e-04,6.125351868e-04,1.950267724e-03,-4.475165098e-04,1.502751214e-03,6.095828555e-04,-9.572657311e-05,5.138562824e-04,2.150095178e-03,-1.886607058e-03,2.634881206e-04,5.229040819e-05,6.865841002e-06,5.915624920e-05,1.512607044e-03,-2.286756735e-04,1.283931371e-03,1.040773189e-03,-9.998107100e-05,9.407921180e-04,1.468786847e-03,1.973787135e-04,1.666165560e-03,1.014867000e-03,6.085137971e-05,1.075718379e-03,3.934557587e-04,9.302888185e-05,4.864846406e-04,6.211741067e-04,7.286700125e-05,6.940411079e-04,2.843672025e-04,4.045741435e-05,3.248246169e-04,3.711751006e-04,8.059013068e-05,4.517652312e-04,9.076946853e-04,-1.654127718e-05,8.911534081e-04,7.774753922e-04,-5.099167447e-05,7.264837177e-04,1.035573820e-03,4.075881382e-05,1.076332634e-03,1.160460155e-03,-5.420010928e-05,1.106260045e-03,1.335423125e-03,9.894805821e-05,1.434371183e-03,5.018826798e-04,6.168133755e-04,1.118696055e-03,1.748732269e-03,-1.459026844e-04,1.602829585e-03,9.623735007e-04,-1.437212645e-04,8.186522361e-04,9.581520895e-04,2.854565049e-04,1.243608594e-03,1.283046128e-04,3.697438519e-04,4.980484647e-04,9.808907623e-04,-3.982020672e-04,5.826886952e-04,3.435107253e-03,-2.143380237e-03,1.291727016e-03
-3.8,3.517877588e-04,3.811499937e-05,3.899027582e-04,5.517196684e-04,2.963665622e-05,5.813563246e-04,5.804192715e-04,2.666379625e-05,6.070830677e-04,4.069593518e-04,-1.492535495e-05,3.920339968e-04,2.654241129e-04,5.605084017e-05,3.214749531e-04,5.212309183e-04,-2.884084953e-05,4.923900688e-04,5.525298761e-04,-5.618648904e-06,5.469112272e-04,6.631300976e-04,2.885745297e-04,9.517046273e-04,9.012699606e-04,6.169063192e-05,9.629605926e-04,8.247913269e-04,5.006923967e-05,8.748605666e-04,5.204851514e-04,1.336370665e-05,5.338488581e-04,9.604725223e-04,-2.794393670e-04,6.810331553e-04,2.048348504e-03,-4.799158142e-04,1.568432689e-03,6.241386324e-04,-8.717413839e-05,5.369644940e-04,2.188529616e-03,-1.889156627e-03,2.993729890e-04,1.924614840e-05,3.524548658e-05,5.449163498e-05,1.562874336e-03,-2.378556698e-04,1.325018666e-03,1.072614230e-03,-1.053558130e-04,9.672584168e-04,1.514002479e-03,1.876439333e-04,1.701646413e-03,1.051755180e-03,5.653410740e-05,1.108289288e-03,3.856431104e-04,8.040654417e-05,4.660496545e-04,6.234798859e-04,7.497762928e-05,6.984575152e-04,2.814631482e-04,3.814408041e-05,3.196072286e-04,3.866723372e-04,8.262222555e-05,4.692945627e-04,9.185000845e-04,-2.214060358e-05,8.963594809e-04,8.065271590e-04,-5.078665849e-05,7.557405005e-04,1.083761263e-03,3.528929361e-05,1.119050557e-03,1.217601692e-03,-6.020412974e-05,1.157397562e-03,1.360097597e-03,1.054139254e-04,1.465511522e-03,4.650022544e-04,6.042368911e-04,1.069239145e-03,1.798039680e-03,-1.493564935e-04,1.648683187e-03,9.773549809e-04,-2.209665154e-04,7.563884655e-04,1.038762630e-03,2.698638353e-04,1.308626465e-03,1.108454060e-04,3.860668494e-04,4.969122554e-04,8.723949648e-04,-3.130405356e-04,5.593544293e-04,3.644219351e-03,-2.348073992e-03,1.296145359e-03
-3.7,3.506556966e-04,4.743916637e-05,3.980948629e-04,5.621198974e-04,3.269245571e-05,5.948123531e-04,5.718760319e-04,3.385278301e-05,6.057288149e-04,4.076208908e-04,-1.110349889e-05,3.965173919e-04,2.410421133e-04,5.935257514e-05,3.003946884e-04,5.529198601e-04,-2.405889215e-05,5.288609680e-04,5.651832974e-04,-4.610130800e-06,5.605731666e-04,6.723603595e-04,3.210611288e-04,9.934214883e-04,9.050085583e-04,6.627869835e-05,9.712872567e-04,8.211016599e-04,5.368153171e-05,8.747831916e-04,4.984077538e-04,1.917254186e-05,5.175802956e-04,1.051579967e-03,-3.052936137e-04,7.462863535e-04,2.138444747e-03,-5.121289893e-04,1.626315757e-03,6.353274452e-04,-7.823290976e-05,5.570945355e-04,2.212925111e-03,-1.877310616e-03,3.356144949e-04,-1.403876993e-05,6.483954988e-05,5.080077996e-05,1.605489985e-03,-2.453149774e-04,1.360175008e-03,1.100968414e-03,-1.098343286e-04,9.911340854e-04,1.553087176e-03,1.768810570e-04,1.729968233e-03,1.083878904e-03,5.289236287e-05,1.136771267e-03,3.875029250e-04,6.375225496e-05,4.512551800e-04,6.243925018e-04,7.706666725e-05,7.014591691e-04,2.779229204e-04,3.689280993e-05,3.148157303e-04,4.018503756e-04,8.464100247e-05,4.864913780e-04,9.253136573e-04,-2.758369825e-05,8.977299591e-04,8.323953001e-04,-5.034530602e-05,7.820499940e-04,1.126088709e-03,3.010314292e-05,1.156191852e-03,1.268952924e-03,-6.524555976e-05,1.203707365e-03,1.378491618e-03,1.115666048e-04,1.490058223e-03,4.293993316e-04,5.882343124e-04,1.017633644e-03,1.838142779e-03,-1.516291682e-04,1.686513610e-03,9.890372290e-04,-2.942892918e-04,6.947479372e-04,1.113764208e-03,2.495838450e-04,1.363348053e-03,9.372740404e-05,3.985695059e-04,4.922969099e-04,7.552611595e-04,-2.300104045e-04,5.252507550e-04,3.823959561e-03,-2.527976983e-03,1.295982578e-03
-3.6,3.482052502e-04,5.696543293e-05,4.051706832e-04,5.710268384e-04,3.581568278e-05,6.068425212e-04,5.620914080e-04,4.134284710e-05,6.034342551e-04,4.074126736e-04,-6.838519666e-06,4.005741539e-04,2.155650232e-04,6.269218588e-05,2.782572091e-04,5.828745151e-04,-1.952931185e-05,5.633452033e-04,5.753446709e-04,-3.382965392e-06,5.719617055e-04,6.783163762e-04,3.510988358e-04,1.029415212e-03,9.059867614e-04,7.071857191e-05,9.767053333e-04,8.143634332e-04,5.712524105e-05,8.714886742e-04,4.749705672e-04,2.633633861e-05,5.013069058e-04,1.137844008e-03,-3.299541684e-04,8.078898393e-04,2.219677094e-03,-5.437299618e-04,1.675947133e-03,6.430440854e-04,-6.896119187e-05,5.740828935e-04,2.223293313e-03,-1.851402693e-03,3.718906196e-04,-4.695930814e-05,9.532241481e-05,4.836310667e-05,1.639942439e-03,-2.509446498e-04,1.388997789e-03,1.125607699e-03,-1.133934372e-04,1.012214262e-03,1.585447346e-03,1.652387286e-04,1.750686074e-03,1.110977762e-03,4.991826698e-05,1.160896029e-03,3.993605623e-04,4.309816753e-05,4.424587298e-04,6.238962166e-04,7.915360488e-05,7.030498215e-04,2.737857546e-04,3.674227728e-05,3.105280319e-04,4.166577142e-04,8.664903371e-05,5.033067479e-04,9.279894019e-04,-3.276168796e-05,8.952277139e-04,8.549427662e-04,-4.966068372e-05,8.052820825e-04,1.162212536e-03,2.521146715e-05,1.187424003e-03,1.314105678e-03,-6.932502726e-05,1.244780651e-03,1.390446686e-03,1.172548298e-04,1.507701516e-03,3.952967504e-04,5.689542353e-04,9.642509857e-04,1.868597273e-03,-1.526920501e-04,1.715905223e-03,9.981274013e-04,-3.638070314e-04,6.343203699e-04,1.182523043e-03,2.248029540e-04,1.407325997e-03,7.716374393e-05,4.069723825e-04,4.841361264e-04,6.306141771e-04,-1.503697459e-04,4.802444312e-04,3.973018741e-03,-2.681998440e-03,1.291020301e-03
-3.5,3.444225546e-04,6.666877016e-05,4.110913247e-04,5.784169917e-04,3.899930088e-05,6.174162926e-04,5.509113969e-04,4.916774462e-05,6.000791416e-04,4.062249581e-04,-2.127686203e-06,4.040972719e-04,1.888526506e-04,6.613961690e-05,2.549922675e-04,6.108159746e-04,-1.525895546e-05,5.955570192e-04,5.828568072e-04,-1.912476409e-06,5.809443308e-04,6.812852308e-04,3.782860453e-04,1.059571276e-03,9.040981512e-04,7.499243711e-05,9.790905883e-04,8.045116024e-04,6.038483086e-05,8.648964333e-04,4.502135089e-04,3.486416262e-05,4.850776715e-04,1.218451406e-03,-3.529735969e-04,8.654778096e-04,2.291198420e-03,-5.742421914e-04,1.716956228e-03,6.472072585e-04,-5.941651749e-05,5.877907410e-04,2.219782228e-03,-1.811936292e-03,4.078459357e-04,-7.889700654e-05,1.263340511e-04,4.743704460e-05,1.665777432e-03,-2.546715202e-04,1.411105911e-03,1.146325549e-03,-1.160234084e-04,1.030302141e-03,1.610494833e-03,1.528907342e-04,1.763385568e-03,1.132836130e-03,4.758618481e-05,1.180422315e-03,4.213071932e-04,1.855801190e-05,4.398652051e-04,6.219763596e-04,8.125613794e-05,7.032324976e-04,2.690994896e-04,3.771061379e-05,3.068101033e-04,4.310373598e-04,8.864639895e-05,5.196837587e-04,9.264171721e-04,-3.757284240e-05,8.888443297e-04,8.740555333e-04,-4.873192519e-05,8.253236082e-04,1.191874473e-03,2.059700825e-05,1.212471481e-03,1.352702835e-03,-7.245624783e-05,1.280246587e-03,1.395828882e-03,1.223406239e-04,1.518169506e-03,3.628536844e-04,5.465683124e-04,9.094219968e-04,1.889009146e-03,-1.525181354e-04,1.736491011e-03,1.005214900e-03,-4.296177078e-04,5.755971920e-04,1.244395369e-03,1.958303864e-04,1.440225756e-03,6.133667677e-05,4.110646253e-04,4.724013020e-04,4.996313923e-04,-7.526721644e-05,4.243641759e-04,4.090286894e-03,-2.809386318e-03,1.280900576e-03
