Time,S1D1HbO,S1D1HbR,S1D1HbT,S2D2HbO,S2D2HbR,S2D2HbT,S3D3HbO,S3D3HbR,S3D3HbT,S4D4HbO,S4D4HbR,S4D4HbT,S5D5HbO,S5D5HbR,S5D5HbT,S6D6HbO,S6D6HbR,S6D6HbT,S7D7HbO,S7D7HbR,S7D7HbT,S8D8HbO,S8D8HbR,S8D8HbT,S9D9HbO,S9D9HbR,S9D9HbT,S10D10HbO,S10D10HbR,S10D10HbT,S11D11HbO,S11D11HbR,S11D11HbT,S12D12HbO,S12D12HbR,S12D12HbT,S13D13HbO,S13D13HbR,S13D13HbT,S14D14HbO,S14D14HbR,S14D14HbT,S15D15HbO,S15D15HbR,S15D15HbT,S16D16HbO,S16D16HbR,S16D16HbT,S17D17HbO,S17D17HbR,S17D17HbT,S18D18HbO,S18D18HbR,S18D18HbT,S19D19HbO,S19D19HbR,S19D19HbT,S20D20HbO,S20D20HbR,S20D20HbT,S21D21HbO,S21D21HbR,S21D21HbT,S22D22HbO,S22D22HbR,S22D22HbT,S23D23HbO,S23D23HbR,S23D23HbT,S24D24HbO,S24D24HbR,S24D24HbT,S25D25HbO,S25D25HbR,S25D25HbT,S26D26HbO,S26D26HbR,S26D26HbT,S27D27HbO,S27D27HbR,S27D27HbT,S28D28HbO,S28D28HbR,S28D28HbT,S29D29HbO,S29D29HbR,S29D29HbT,S30D30HbO,S30D30HbR,S30D30HbT,S31D31HbO,S31D31HbR,S31D31HbT,S32D32HbO,S32D32HbR,S32D32HbT,S33D33HbO,S33D33HbR,S33D33HbT,S34D34HbO,S34D34HbR,S34D34HbT,S35D35HbO,S35D35HbR,S35D35HbT,S36D36HbO,S36D36HbR,S36D36HbT,
-10,-8.714466166e-04,-3.722661831e-05,-9.086732349e-04,4.149959748e-04,1.657364589e-04,5.807324337e-04,-6.370533038e-04,2.423548550e-04,-3.946984487e-04,6.023930595e-04,1.477468967e-04,7.501399562e-04,2.910522367e-04,9.104878937e-05,3.821010261e-04,4.984498572e-04,1.352887492e-04,6.337386063e-04,1.366414868e-04,-5.358494760e-05,8.305653919e-05,6.501871384e-04,6.558119233e-05,7.157683308e-04,6.494656543e-05,3.576404780e-05,1.007106132e-04,4.475744634e-04,-1.411782489e-05,4.334566385e-04,1.117008773e-04,2.128613786e-04,3.245622559e-04,5.664961151e-04,-5.981382095e-05,5.066822942e-04,2.133621483e-03,-8.038216218e-04,1.329799862e-03,9.317019771e-04,-2.118113231e-04,7.198906540e-04,1.433084173e-03,-1.984267254e-04,1.234657447e-03,7.839820175e-04,1.472589866e-04,9.312410041e-04,-5.192088360e-04,1.005011560e-03,4.858027245e-04,6.565437582e-04,-2.484796847e-04,4.080640735e-04,4.134249773e-04,-1.014302373e-04,3.119947401e-04,9.266606490e-04,1.363678028e-05,9.402974293e-04,-2.593186267e-05,2.001969864e-05,-5.912164033e-06,6.482831695e-04,1.646388725e-04,8.129220420e-04,3.207090743e-05,7.360436135e-05,1.056752688e-04,4.304560620e-04,1.856840401e-04,6.161401021e-04,9.377527830e-04,-1.604839815e-04,7.772688014e-04,4.243791087e-04,-1.288938336e-04,2.954852751e-04,1.044582122e-03,-5.216076625e-05,9.924213557e-04,7.701506010e-04,1.890389536e-04,9.591895545e-04,1.059581835e-03,-5.237944496e-05,1.007202390e-03,1.081309151e-03,-3.138686403e-04,7.674405109e-04,1.041759154e-03,1.061430514e-04,1.147902205e-03,1.370821267e-03,4.315972174e-06,1.375137240e-03,5.536790499e-04,9.429043273e-04,1.496583377e-03,3.646241898e-04,6.597260865e-04,1.024350276e-03,-9.113592525e-05,6.160672280e-04,5.249313028e-04,8.362191567e-04,2.919435238e-04,1.128162680e-03
-9.9,-8.704481590e-04,-3.959473284e-05,-9.100428918e-04,4.660450947e-04,1.755832242e-04,6.416283189e-04,-5.361066430e-04,2.484685266e-04,-2.876381164e-04,6.467559379e-04,1.395166574e-04,7.862725953e-04,3.376119133e-04,8.028463517e-05,4.178965485e-04,5.631986992e-04,1.468238910e-04,7.100225901e-04,1.473612446e-04,-5.373007101e-05,9.363117357e-05,6.953483285e-04,6.683437717e-05,7.621827057e-04,1.058589198e-04,3.864504155e-05,1.445039614e-04,4.433452035e-04,-1.618217272e-05,4.271630307e-04,1.680889297e-04,2.033394009e-04,3.714283306e-04,6.020474824e-04,-4.975502084e-05,5.522924616e-04,2.219490483e-03,-8.354997026e-04,1.383990781e-03,9.654345752e-04,-2.041334385e-04,7.613011366e-04,1.456842042e-03,-2.041980571e-04,1.252643985e-03,7.375854851e-04,1.753177369e-04,9.129032220e-04,-5.261505890e-04,1.028394394e-03,5.022438054e-04,6.392988846e-04,-2.378235593e-04,4.014753254e-04,4.058727059e-04,-1.142822827e-04,2.915904233e-04,9.456452051e-04,2.276105677e-05,9.684062618e-04,1.588797939e-05,1.237784002e-05,2.826581942e-05,6.855340328e-04,1.670288281e-04,8.525628609e-04,6.948253715e-05,7.498375839e-05,1.444662955e-04,4.378527124e-04,1.833282795e-04,6.211809919e-04,9.742691446e-04,-1.569044922e-04,8.173646524e-04,4.520018812e-04,-1.249635583e-04,3.270383229e-04,1.069512159e-03,-4.280855001e-05,1.026703609e-03,7.838149183e-04,1.712128870e-04,9.550278054e-04,1.071202435e-03,-5.795023217e-05,1.013252203e-03,1.062903430e-03,-3.142558093e-04,7.486476204e-04,1.083744328e-03,9.043951375e-05,1.174183842e-03,1.344917600e-03,1.124912186e-05,1.356166721e-03,6.141122366e-04,8.884965778e-04,1.502608814e-03,4.150251166e-04,6.007774114e-04,1.015802528e-03,2.982097896e-05,4.840692489e-04,5.138902279e-04,7.636093770e-04,3.563055319e-04,1.119914909e-03
-9.8,-8.674063786e-04,-4.060190245e-05,-9.080082810e-04,5.146328388e-04,1.850524707e-04,6.996853095e-04,-4.324336107e-04,2.552101959e-04,-1.772234148e-04,6.882738324e-04,1.311701008e-04,8.194439332e-04,3.814846626e-04,6.983168878e-05,4.513163514e-04,6.239898588e-04,1.578935619e-04,7.818834207e-04,1.581707036e-04,-5.263581861e-05,1.055348850e-04,7.387725567e-04,6.887826609e-05,8.076508228e-04,1.459142471e-04,4.208167566e-05,1.879959227e-04,4.391759274e-04,-1.721829956e-05,4.219576278e-04,2.220620758e-04,1.945734436e-04,4.166355194e-04,6.331813927e-04,-3.948486124e-05,5.936965315e-04,2.292806859e-03,-8.642486470e-04,1.428558212e-03,9.963343917e-04,-1.963897333e-04,7.999446584e-04,1.477961163e-03,-2.103024214e-04,1.267658741e-03,6.877758296e-04,2.029514351e-04,8.907272647e-04,-5.269498059e-04,1.044839359e-03,5.178895532e-04,6.191436204e-04,-2.270428255e-04,3.921007949e-04,3.963336283e-04,-1.272227631e-04,2.691108651e-04,9.616064496e-04,3.221113623e-05,9.938175858e-04,5.624867763e-05,5.472649295e-06,6.172132693e-05,7.197899555e-04,1.692681801e-04,8.890581356e-04,1.050151960e-04,7.666549293e-05,1.816806890e-04,4.437950974e-04,1.814933376e-04,6.252884350e-04,1.008304926e-03,-1.525883347e-04,8.557165918e-04,4.784276432e-04,-1.207349582e-04,3.576926851e-04,1.094397853e-03,-3.398564130e-05,1.060412211e-03,7.924501794e-04,1.546435921e-04,9.470937715e-04,1.079745109e-03,-6.360753903e-05,1.016137570e-03,1.040251031e-03,-3.135718230e-04,7.266792075e-04,1.119627668e-03,7.479355214e-05,1.194421220e-03,1.314935247e-03,1.707318229e-05,1.332008429e-03,6.760523619e-04,8.257059739e-04,1.501758336e-03,4.632430397e-04,5.383874973e-04,1.001630537e-03,1.432240314e-04,3.577581048e-04,5.009821362e-04,6.869020835e-04,4.185412465e-04,1.105443330e-03
-9.7,-8.620526184e-04,-4.018190096e-05,-9.022345193e-04,5.602996047e-04,1.940279609e-04,7.543275655e-04,-3.267400636e-04,2.624354685e-04,-6.430459512e-05,7.268227473e-04,1.227638644e-04,8.495866116e-04,4.223826958e-04,5.968517509e-05,4.820678708e-04,6.802670033e-04,1.683339161e-04,8.486009194e-04,1.692889827e-04,-5.027109178e-05,1.190178910e-04,7.799256559e-04,7.160877940e-05,8.515344353e-04,1.846927678e-04,4.595382799e-05,2.306465958e-04,4.352820958e-04,-1.722055744e-05,4.180615383e-04,2.730701097e-04,1.864422990e-04,4.595124086e-04,6.593483822e-04,-2.902328862e-05,6.303250936e-04,2.352342236e-03,-8.892050222e-04,1.463137214e-03,1.024119700e-03,-1.886422772e-04,8.354774223e-04,1.496423185e-03,-2.167910236e-04,1.279632161e-03,6.351293688e-04,2.299639951e-04,8.650933639e-04,-5.211860131e-04,1.053676932e-03,5.324909189e-04,5.963015040e-04,-2.162300222e-04,3.800714819e-04,3.850598329e-04,-1.401138584e-04,2.449459745e-04,9.743757260e-04,4.189688814e-05,1.016272614e-03,9.506094411e-05,-6.621648531e-07,9.439877926e-05,7.508468224e-04,1.712850124e-04,9.221318347e-04,1.383683030e-04,7.857424181e-05,2.169425448e-04,4.483693615e-04,1.801710422e-04,6.285404037e-04,1.039617929e-03,-1.476563195e-04,8.919616095e-04,5.034301836e-04,-1.162948790e-04,3.871353046e-04,1.119094251e-03,-2.570451466e-05,1.093389737e-03,7.953347649e-04,1.400054913e-04,9.353402563e-04,1.085266082e-03,-6.932309989e-05,1.015942982e-03,1.013687491e-03,-3.118327183e-04,7.018547729e-04,1.149280463e-03,5.927814749e-05,1.208558611e-03,1.281302763e-03,2.170227492e-05,1.303005038e-03,7.392321224e-04,7.549209154e-04,1.494153038e-03,5.092196813e-04,4.731501759e-04,9.823698572e-04,2.481727360e-04,2.381866149e-04,4.863593508e-04,6.064977465e-04,4.785102538e-04,1.085008000e-03
-9.6,-8.541203811e-04,-3.827740278e-05,-8.923977839e-04,6.025863403e-04,2.023891001e-04,8.049754404e-04,-2.198136937e-04,2.699855620e-04,5.017186830e-05,7.622871783e-04,1.143429874e-04,8.766301658e-04,4.600507718e-04,4.983747125e-05,5.098882431e-04,7.315195813e-04,1.779878441e-04,9.095074254e-04,1.809122949e-04,-4.662271617e-05,1.342895787e-04,8.183176685e-04,7.492186951e-05,8.932395380e-04,2.217950736e-04,5.014080446e-05,2.719358781e-04,4.318729708e-04,-1.619389524e-05,4.156790755e-04,3.206007946e-04,1.788215445e-04,4.994223391e-04,6.800935093e-04,-1.843882995e-05,6.616546794e-04,2.397218251e-03,-9.096640137e-04,1.487554237e-03,1.048529175e-03,-1.809516137e-04,8.675775610e-04,1.512206867e-03,-2.237114659e-04,1.288495401e-03,5.802777291e-04,2.561135335e-04,8.363912626e-04,-5.086064300e-04,1.054389816e-03,5.457833858e-04,5.710025364e-04,-2.054663800e-04,3.655361564e-04,3.722983873e-04,-1.528107790e-04,2.194876083e-04,9.838131779e-04,5.172693737e-05,1.035540115e-03,1.322360429e-04,-6.004890409e-06,1.262311525e-04,7.785260658e-04,1.730134823e-04,9.515395481e-04,1.692582658e-04,8.062883041e-05,2.498870962e-04,4.516785380e-04,1.793470567e-04,6.310255947e-04,1.067986243e-03,-1.422345451e-04,9.257516980e-04,5.267870540e-04,-1.117246657e-04,4.150623883e-04,1.143450155e-03,-1.798853363e-05,1.125461621e-03,7.918631322e-04,1.279283276e-04,9.197914598e-04,1.087854706e-03,-7.506830649e-05,1.012786399e-03,9.835580278e-04,-3.090446057e-04,6.745134222e-04,1.172650233e-03,4.397144375e-05,1.216621676e-03,1.244447524e-03,2.505663416e-05,1.269504158e-03,8.033356956e-04,6.766590423e-04,1.479994738e-03,5.528522907e-04,4.057328071e-04,9.585850979e-04,3.439197022e-04,1.262560724e-04,4.701757746e-04,5.228469611e-04,5.360541083e-04,1.058901069e-03
-9.5,-8.433466368e-04,-3.484064412e-05,-8.781872810e-04,6.410401380e-04,2.100126297e-04,8.510527676e-04,-1.125117529e-04,2.776903433e-04,1.651785904e-04,7.945606902e-04,1.059405677e-04,9.005012579e-04,4.942681398e-04,4.027866964e-05,5.345468094e-04,7.772891710e-04,1.867074313e-04,9.639966023e-04,1.932092163e-04,-4.169622420e-05,1.515129921e-04,8.535100040e-04,7.871524675e-05,9.322252507e-04,2.568504295e-04,5.452376972e-05,3.113741992e-04,4.291467762e-04,-1.415438804e-05,4.149923882e-04,3.641883207e-04,1.715863578e-04,5.357746786e-04,6.950713350e-04,-7.851341622e-06,6.872199933e-04,2.426914720e-03,-9.250938107e-04,1.501820909e-03,1.069326693e-03,-1.733774289e-04,8.959492641e-04,1.525286422e-03,-2.311047678e-04,1.294181655e-03,5.238961418e-04,2.811155570e-04,8.050116987e-04,-4.891164036e-04,1.046614986e-03,5.574985821e-04,5.434774320e-04,-1.948211121e-04,3.486563199e-04,3.582854675e-04,-1.651677664e-04,1.931177012e-04,9.898114547e-04,6.160997717e-05,1.051421432e-03,1.676843483e-04,-1.054630358e-05,1.571380447e-04,8.026770953e-04,1.743945442e-04,9.770716394e-04,1.974211210e-04,8.274311262e-05,2.801642336e-04,4.538398826e-04,1.790003998e-04,6.328402824e-04,1.093212200e-03,-1.364535763e-04,9.567586232e-04,5.482837420e-04,-1.070992966e-04,4.411844453e-04,1.167309694e-03,-1.087887819e-05,1.156430816e-03,7.815778424e-04,1.189665404e-04,9.005443828e-04,1.087628449e-03,-8.081367468e-05,1.006814774e-03,9.502084438e-04,-3.051991839e-04,6.450092599e-04,1.189757430e-03,2.895496439e-05,1.218712394e-03,1.204794453e-03,2.705962017e-05,1.231854073e-03,8.679893159e-04,5.915510636e-04,1.459540379e-03,5.939945724e-04,3.368614278e-04,9.308560002e-04,4.298822421e-04,2.270627797e-05,4.525885200e-04,4.364713655e-04,5.909722541e-04,1.027443620e-03
-9.4,-8.294743024e-04,-2.983400312e-05,-8.593083055e-04,6.752211197e-04,2.167747221e-04,8.919958418e-04,-5.746284669e-06,2.853718612e-04,2.796255766e-04,8.235465899e-04,9.757798088e-05,9.211245708e-04,5.248498957e-04,3.099718535e-05,5.558470811e-04,8.171760263e-04,1.943563731e-04,1.011532399e-03,2.063149759e-04,-3.551674469e-05,1.707982312e-04,8.851213480e-04,8.288980695e-05,9.680111550e-04,2.895248100e-04,5.898817822e-05,3.485129882e-04,4.272841044e-04,-1.113015401e-05,4.161539504e-04,4.034214055e-04,1.646144239e-04,5.680358294e-04,7.040584542e-04,2.566846697e-06,7.066253009e-04,2.441259308e-03,-9.351403597e-04,1.506118948e-03,1.086304462e-03,-1.659789520e-04,9.203255100e-04,1.535628105e-03,-2.390028357e-04,1.296625269e-03,4.666851962e-04,3.046521100e-04,7.713373062e-04,-4.627649048e-04,1.030140669e-03,5.673757640e-04,5.139521422e-04,-1.843514882e-04,3.296006540e-04,3.432410600e-04,-1.770438316e-04,1.661972284e-04,9.922991361e-04,7.145612590e-05,1.063755262e-03,2.013131500e-04,-1.429031200e-05,1.870228380e-04,8.231796724e-04,1.753767579e-04,9.985564303e-04,2.226145177e-04,8.482707729e-05,3.074415950e-04,4.549808408e-04,1.791030202e-04,6.340838610e-04,1.115126880e-03,-1.304474795e-04,9.846794006e-04,5.677188891e-04,-1.024874378e-04,4.652314513e-04,1.190513504e-03,-4.438870429e-06,1.186074634e-03,7.641984243e-04,1.135715010e-04,8.777699252e-04,1.084725809e-03,-8.652838034e-05,9.981974282e-04,9.139770601e-04,-3.002715443e-04,6.137055158e-04,1.200690267e-03,1.431137012e-05,1.215001637e-03,1.162769261e-03,2.763267937e-05,1.190401940e-03,9.327574270e-04,5.003169618e-04,1.433074389e-03,6.324653346e-04,2.672999118e-04,8.997652464e-04,5.056476832e-04,-7.189037439e-05,4.337573088e-04,3.479796300e-04,6.430030999e-04,9.909827299e-04
-9.3,-8.122579460e-04,-2.323083161e-05,-8.354887776e-04,7.047104155e-04,2.225535489e-04,9.272639644e-04,9.953163884e-05,2.928483238e-04,3.923799627e-04,8.491574809e-04,8.926548032e-05,9.384229612e-04,5.516468044e-04,2.198046403e-05,5.736272685e-04,8.508456885e-04,2.008125447e-04,1.051658233e-03,2.203238925e-04,-2.813005922e-05,1.921938333e-04,9.128322590e-04,8.735092543e-05,1.000183184e-03,3.195282745e-04,6.342639936e-05,3.829546739e-04,4.264387307e-04,-7.162616214e-06,4.192761145e-04,4.379507850e-04,1.577891501e-04,5.957399351e-04,7.069602014e-04,1.259288289e-05,7.195530843e-04,2.440405604e-03,-9.396286225e-04,1.500776982e-03,1.099283430e-03,-1.588146814e-04,9.404687490e-04,1.543183965e-03,-2.474257127e-04,1.295758253e-03,4.093488096e-04,3.263836319e-04,7.357324415e-04,-4.297303456e-04,1.004900946e-03,5.751706002e-04,4.826418581e-04,-1.741029186e-04,3.085389395e-04,3.273644803e-04,-1.883085467e-04,1.390559336e-04,9.912431413e-04,8.117844633e-05,1.072421588e-03,2.330231567e-04,-1.725458492e-05,2.157685717e-04,8.399457760e-04,1.759173773e-04,1.015863153e-03,2.446189701e-04,8.678829250e-05,3.314072626e-04,4.552330728e-04,1.796194983e-04,6.348525711e-04,1.133593219e-03,-1.243523203e-04,1.009240899e-03,5.849091045e-04,-9.795206261e-05,4.869570419e-04,1.212899190e-03,1.245149360e-06,1.214144340e-03,7.396403087e-04,1.120728507e-04,8.517131594e-04,1.079296805e-03,-9.217985421e-05,9.871169510e-04,8.751867398e-04,-2.942206863e-04,5.809660536e-04,1.205597001e-03,1.222930461e-07,1.205719294e-03,1.118802473e-03,2.669008253e-05,1.145492555e-03,9.971478797e-04,4.037341282e-04,1.400882008e-03,6.680573501e-04,1.978262672e-04,8.658836173e-04,5.709744781e-04,-1.571328066e-04,4.138416714e-04,2.580690194e-04,6.918168425e-04,9.498858619e-04
-9.2,-7.914737472e-04,-1.501686984e-05,-8.064906171e-04,7.291189877e-04,2.272322905e-04,9.563512782e-04,2.023483140e-04,2.999385970e-04,5.022869110e-04,8.713132057e-04,8.100304849e-05,9.523162542e-04,5.745434808e-04,1.321586438e-05,5.877593452e-04,8.780352708e-04,2.059708483e-04,1.084006119e-03,2.352803556e-04,-1.960363983e-05,2.156767158e-04,9.363883397e-04,9.200977881e-05,1.028398119e-03,3.466214569e-04,6.774059027e-05,4.143620472e-04,4.267262628e-04,-2.307886496e-06,4.244183763e-04,4.674961366e-04,1.510032913e-04,6.184994279e-04,7.038098928e-04,2.195938574e-05,7.257692785e-04,2.424804776e-03,-9.385608974e-04,1.486243878e-03,1.108111546e-03,-1.519412183e-04,9.561703275e-04,1.547884157e-03,-2.563786561e-04,1.291505501e-03,3.525723693e-04,3.459600002e-04,6.985323694e-04,-3.903089590e-04,9.709694292e-04,5.806604701e-04,4.497448882e-04,-1.641090773e-04,2.856358109e-04,3.108299470e-04,-1.988471206e-04,1.119828264e-04,9.866496720e-04,9.069452019e-05,1.077344192e-03,2.627040681e-04,-1.947104076e-05,2.432330273e-04,8.529206673e-04,1.759835862e-04,1.028904254e-03,2.632389735e-04,8.853379544e-05,3.517727689e-04,4.547246318e-04,1.805069061e-04,6.352315379e-04,1.148506732e-03,-1.183040179e-04,1.030202714e-03,5.996924880e-04,-9.355102231e-05,5.061414657e-04,1.234301053e-03,6.065942856e-06,1.240366996e-03,7.080191500e-04,1.146714551e-04,8.226906052e-04,1.071492194e-03,-9.773372320e-05,9.737584706e-04,8.341364076e-04,-2.869922603e-04,5.471441473e-04,1.204675195e-03,-1.353276361e-05,1.191142431e-03,1.073329950e-03,2.413572629e-05,1.097465677e-03,1.060624415e-03,3.026018320e-04,1.363226247e-03,7.005391405e-04,1.292121672e-04,8.297513077e-04,6.257863405e-04,-2.327903835e-04,3.929959570e-04,1.675102218e-04,7.370217215e-04,9.045319433e-04
-9.1,-7.669333502e-04,-5.192366587e-06,-7.721257168e-04,7.480971257e-04,2.307025255e-04,9.787996512e-04,3.017252332e-04,3.064673884e-04,6.081926215e-04,8.899376613e-04,7.278146768e-05,9.627191289e-04,5.934555295e-04,4.691744732e-06,5.981472742e-04,8.985586622e-04,2.097461069e-04,1.108304769e-03,2.511705095e-04,-1.002710600e-05,2.411434035e-04,9.556016481e-04,9.678468263e-05,1.052386331e-03,3.706202678e-04,7.184541802e-05,4.424656858e-04,4.282127807e-04,3.362185218e-06,4.315749659e-04,4.918519810e-04,1.441626727e-04,6.360146537e-04,6.947609708e-04,3.036493619e-05,7.251259070e-04,2.395167935e-03,-9.321038631e-04,1.463064072e-03,1.112661464e-03,-1.454114096e-04,9.672500544e-04,1.549630144e-03,-2.658498514e-04,1.283780292e-03,2.970022181e-04,3.630306520e-04,6.600328701e-04,-3.449040991e-04,9.285511461e-04,5.836470470e-04,4.154370730e-04,-1.543921395e-04,2.610449335e-04,2.937814104e-04,-2.085633751e-04,8.521803538e-05,9.785631992e-04,9.992771832e-05,1.078490918e-03,2.902306628e-04,-2.098596398e-05,2.692446988e-04,8.620826867e-04,1.755533966e-04,1.037636083e-03,2.783048853e-04,8.997253476e-05,3.682774200e-04,4.535711094e-04,1.817149024e-04,6.352860118e-04,1.159794140e-03,-1.124355897e-04,1.047358550e-03,6.119308236e-04,-8.933697070e-05,5.225938529e-04,1.254549115e-03,9.899763676e-06,1.264448879e-03,6.696406053e-04,1.214422445e-04,7.910828498e-04,1.061453182e-03,-1.031544215e-04,9.582987608e-04,7.910925409e-04,-2.785221184e-04,5.125704225e-04,1.198158541e-03,-2.657627113e-05,1.171582270e-03,1.026788274e-03,1.986324482e-05,1.046651519e-03,1.122623469e-03,1.977082377e-04,1.320331707e-03,7.296494048e-04,6.220926612e-05,7.918586709e-04,6.701580278e-04,-2.987941157e-04,3.713639121e-04,7.711932068e-05,7.781813092e-04,8.553006299e-04
-9,-7.385000005e-04,6.225256519e-06,-7.322747440e-04,7.613443528e-04,2.328679048e-04,9.942122576e-04,3.966999493e-04,3.122712016e-04,7.089711508e-04,9.049557647e-04,6.458365153e-05,9.695394162e-04,6.083263600e-04,-3.601374813e-06,6.047249852e-04,9.123093322e-04,2.120753230e-04,1.124384655e-03,2.679180159e-04,4.886881465e-07,2.684067040e-04,9.703497547e-04,1.016021772e-04,1.071951932e-03,3.913973810e-04,7.566990462e-05,4.670672856e-04,4.309068285e-04,9.759948840e-06,4.406667773e-04,5.108913021e-04,1.371893032e-04,6.480806053e-04,6.800742047e-04,3.748870773e-05,7.175629125e-04,2.352414616e-03,-9.205572536e-04,1.431857362e-03,1.112829544e-03,-1.392723307e-04,9.735572132e-04,1.548291007e-03,-2.758093047e-04,1.272481703e-03,2.432268605e-04,3.772551853e-04,6.204820458e-04,-2.940145636e-04,8.779720121e-04,5.839574486e-04,3.798669219e-04,-1.449627375e-04,2.349041844e-04,2.763272966e-04,-2.173800705e-04,5.894722613e-05,9.670630496e-04,1.088078620e-04,1.075870912e-03,3.154613010e-04,-2.185929316e-05,2.936020079e-04,8.674411537e-04,1.746156894e-04,1.042056843e-03,2.896762237e-04,9.101838653e-05,3.806946102e-04,4.518672382e-04,1.831862711e-04,6.350535093e-04,1.167410730e-03,-1.068736337e-04,1.060537096e-03,6.215108489e-04,-8.535644150e-05,5.361544074e-04,1.273467287e-03,1.261277131e-05,1.286080058e-03,6.249794783e-04,1.323438805e-04,7.573233588e-04,1.049303172e-03,-1.084063879e-04,9.408967846e-04,7.462830217e-04,-2.687398453e-04,4.775431765e-04,1.186303787e-03,-3.893275857e-05,1.147371029e-03,9.796066671e-04,1.375978810e-05,9.933664552e-04,1.182574573e-03,8.980475557e-05,1.272379328e-03,7.550903273e-04,-2.459023617e-06,7.526313037e-04,7.042978828e-04,-3.552230246e-04,3.490748582e-04,-1.227724523e-05,8.148394595e-04,8.025622142e-04
-8.9,-7.061048464e-04,1.919852359e-05,-6.869063228e-04,7.686194842e-04,2.336479582e-04,1.002267442e-03,4.863516264e-04,3.172049628e-04,8.035565892e-04,9.162920060e-04,5.638626675e-05,9.726782728e-04,6.191241988e-04,-1.166982762e-05,6.074543712e-04,9.192595594e-04,2.129186002e-04,1.132178160e-03,2.853861714e-04,1.181434161e-05,2.972005130e-04,9.805721537e-04,1.063975425e-04,1.086969696e-03,4.088800464e-04,7.915795996e-05,4.880380064e-04,4.347572217e-04,1.678333460e-05,4.515405563e-04,5.245657386e-04,1.300232665e-04,6.545890051e-04,6.601029516e-04,4.300800492e-05,7.031109565e-04,2.297612818e-03,-9.043094226e-04,1.393303395e-03,1.108537443e-03,-1.335635041e-04,9.749739384e-04,1.543704352e-03,-2.862086955e-04,1.257495657e-03,1.917623811e-04,3.883139827e-04,5.800763639e-04,-2.382219314e-04,8.196674288e-04,5.814454975e-04,3.431517931e-04,-1.358195315e-04,2.073322615e-04,2.585365950e-04,-2.252372189e-04,3.329937607e-05,9.522579267e-04,1.172713396e-04,1.069529266e-03,3.382398790e-04,-2.216271882e-05,3.160771601e-04,8.690323049e-04,1.731692680e-04,1.042201573e-03,2.972462609e-04,9.159355019e-05,3.888398110e-04,4.496806223e-04,1.848581384e-04,6.345387608e-04,1.171337317e-03,-1.017340487e-04,1.069603268e-03,6.283450125e-04,-8.164836113e-05,5.466966514e-04,1.290870525e-03,1.406932164e-05,1.304939847e-03,5.746539065e-04,1.472321276e-04,7.218860341e-04,1.035142228e-03,-1.134554359e-04,9.216867917e-04,6.998960961e-04,-2.575728832e-04,4.423232129e-04,1.169380813e-03,-5.053092139e-05,1.118849892e-03,9.321974066e-04,5.713865013e-06,9.379112716e-04,1.239921442e-03,-2.040839946e-05,1.219513043e-03,7.765255255e-04,-6.410339199e-05,7.124221335e-04,7.285318991e-04,-4.022916364e-04,3.262402628e-04,-9.987776627e-05,8.465489661e-04,7.466711998e-04
-8.8,-6.697619012e-04,3.366710891e-05,-6.360947922e-04,7.697507678e-04,2.329818724e-04,1.002732640e-03,5.698313779e-04,3.211489836e-04,8.909803616e-04,9.238712277e-04,4.816161095e-05,9.720328386e-04,6.258394682e-04,-1.951617863e-05,6.063232896e-04,9.194560943e-04,2.122585885e-04,1.131714683e-03,3.033856027e-04,2.380598698e-05,3.271915897e-04,9.862644600e-04,1.111146693e-04,1.097379129e-03,4.230452524e-04,8.226781137e-05,5.053130638e-04,4.396563934e-04,2.431856220e-05,4.639749556e-04,5.329021477e-04,1.226232975e-04,6.555254452e-04,6.352783238e-04,4.661702549e-05,6.818953493e-04,2.231924799e-03,-8.837948458e-04,1.348129953e-03,1.099736085e-03,-1.283153594e-04,9.714207260e-04,1.535681701e-03,-2.969818326e-04,1.238699868e-03,1.430435403e-04,3.959179579e-04,5.389614981e-04,-1.781775992e-04,7.541717580e-04,5.759941589e-04,3.053758168e-04,-1.269491045e-04,1.784267123e-04,2.404366187e-04,-2.320894299e-04,8.347188806e-06,9.342794790e-04,1.252609887e-04,1.059540468e-03,3.584006470e-04,-2.197674679e-05,3.364239002e-04,8.669140971e-04,1.712212555e-04,1.038135353e-03,3.009468010e-04,9.163187438e-05,3.925786754e-04,4.470485088e-04,1.866638932e-04,6.337124020e-04,1.171577482e-03,-9.711758565e-05,1.074459897e-03,6.323718581e-04,-7.824250431e-05,5.541293538e-04,1.306560373e-03,1.414183199e-05,1.320702205e-03,5.193996893e-04,1.658735508e-04,6.852732401e-04,1.019043973e-03,-1.182699731e-04,9.007740003e-04,6.520847059e-04,-2.449519691e-04,4.071327368e-04,1.147666397e-03,-6.130775414e-05,1.086358643e-03,8.849442275e-04,-4.372533227e-06,8.805716943e-04,1.294135230e-03,-1.322812215e-04,1.161854008e-03,7.935840386e-04,-1.220741217e-04,6.715099169e-04,7.432878222e-04,-4.403398227e-04,3.029479995e-04,-1.849332404e-04,8.728985035e-04,6.879652631e-04
-8.7,-6.295805153e-04,4.954555342e-05,-5.800349618e-04,7.646455675e-04,2.308320118e-04,9.954775793e-04,6.463940334e-04,3.240154552e-04,9.704094886e-04,9.276209828e-04,3.987969814e-05,9.675006809e-04,6.284821171e-04,-2.713896593e-05,6.013431512e-04,9.130133341e-04,2.100989041e-04,1.123112238e-03,3.216845712e-04,3.630996009e-05,3.579945313e-04,9.874712151e-04,1.157054803e-04,1.103176695e-03,4.339134350e-04,8.497083578e-05,5.188842708e-04,4.454468407e-04,3.224363083e-05,4.776904716e-04,5.359960140e-04,1.149663529e-04,6.509623669e-04,6.060938424e-04,4.804487406e-05,6.541387164e-04,2.156568322e-03,-8.594660452e-04,1.297102276e-03,1.086409820e-03,-1.235479061e-04,9.628619143e-04,1.524015980e-03,-3.080455442e-04,1.215970435e-03,9.741786566e-05,3.998183234e-04,4.972361891e-04,-1.145900739e-04,6.821087709e-04,5.675186970e-04,2.665899702e-04,-1.183270657e-04,1.482629045e-04,2.220114728e-04,-2.379030389e-04,-1.589156613e-05,9.132758068e-04,1.327259373e-04,1.046001744e-03,3.757742965e-04,-2.138732129e-05,3.543869752e-04,8.611610099e-04,1.687853320e-04,1.029946342e-03,3.007514087e-04,9.108149725e-05,3.918329059e-04,4.439772953e-04,1.885355052e-04,6.325128004e-04,1.168155140e-03,-9.310612450e-05,1.075049016e-03,6.335557117e-04,-7.515823466e-05,5.583974770e-04,1.320318573e-03,1.272119380e-05,1.333039767e-03,4.600464940e-04,1.879569906e-04,6.480034846e-04,1.001053922e-03,-1.228218815e-04,8.782320402e-04,6.029734458e-04,-2.308172630e-04,3.721561828e-04,1.121439652e-03,-7.121339338e-05,1.050226259e-03,8.381879581e-04,-1.656901758e-05,8.216189406e-04,1.344711679e-03,-2.451946529e-04,1.099517026e-03,8.058697540e-04,-1.757676510e-04,6.301021031e-04,7.490766449e-04,-4.698222347e-04,2.792544102e-04,-2.667645266e-04,8.935325892e-04,6.267680626e-04
-8.6,-5.857727041e-04,6.672246651e-05,-5.190502376e-04,7.532975376e-04,2.271866258e-04,9.804841634e-04,7.154245473e-04,3.257530465e-04,1.041177594e-03,9.274740052e-04,3.151048888e-05,9.589844941e-04,6.270780876e-04,-3.453268903e-05,5.925453986e-04,9.001050293e-04,2.064620505e-04,1.106567080e-03,3.400191629e-04,4.916743433e-05,3.891865973e-04,9.842779779e-04,1.201291699e-04,1.104407148e-03,4.415412528e-04,8.725014618e-05,5.287913990e-04,4.519282180e-04,4.043202882e-05,4.923602468e-04,5.340023627e-04,1.070465428e-04,6.410489055e-04,5.730878152e-04,4.707103770e-05,6.201588529e-04,2.072789723e-03,-8.317809572e-04,1.241008766e-03,1.068577835e-03,-1.192699603e-04,9.493078742e-04,1.508488115e-03,-3.193008029e-04,1.189187312e-03,5.513922808e-05,3.998173657e-04,4.549565938e-04,-4.821398435e-05,6.041827264e-04,5.559687421e-04,2.268141271e-04,-1.099207041e-04,1.168934230e-04,2.032005049e-04,-2.426534239e-04,-3.945291902e-05,8.894050979e-04,1.396214218e-04,1.029026520e-03,3.901938539e-04,-2.048256763e-05,3.697112862e-04,8.518596281e-04,1.658802084e-04,1.017739837e-03,2.966756491e-04,8.990628603e-05,3.865819351e-04,4.404438622e-04,1.904058257e-04,6.308496879e-04,1.161111755e-03,-8.976017995e-05,1.071351575e-03,6.318851349e-04,-7.240360583e-05,5.594815290e-04,1.331900369e-03,9.725483619e-06,1.341625853e-03,3.974938042e-04,2.131025496e-04,6.105963538e-04,9.811882215e-04,-1.270867476e-04,8.541014739e-04,5.526648227e-04,-2.151238346e-04,3.375409880e-04,1.090977025e-03,-8.021551515e-05,1.010761510e-03,7.922114013e-04,-3.090241359e-05,7.613089877e-04,1.391153489e-03,-3.585261439e-04,1.032627345e-03,8.129761295e-04,-2.246357523e-04,5.883403772e-04,7.464722736e-04,-4.912950655e-04,2.551772081e-04,-3.447698706e-04,9.081625737e-04,5.633927031e-04
-8.5,-5.386515016e-04,8.506240313e-05,-4.535890985e-04,7.357883824e-04,2.220609468e-04,9.578493292e-04,7.764527231e-04,3.263482808e-04,1.102801004e-03,9.233694091e-04,2.302609923e-05,9.463955083e-04,6.216644492e-04,-4.168791898e-05,5.799765302e-04,8.809549088e-04,2.013871349e-04,1.082342044e-03,3.581021372e-04,6.221874216e-05,4.203208794e-04,9.768031979e-04,1.243514523e-04,1.101154650e-03,4.460137875e-04,8.909910418e-05,5.351128917e-04,4.588639100e-04,4.875633543e-05,5.076202455e-04,5.271250756e-04,9.887371749e-05,6.259987931e-04,5.368224475e-04,4.353756722e-05,5.803600147e-04,1.981836392e-03,-8.011967817e-04,1.180639610e-03,1.046291299e-03,-1.154793962e-04,9.308119025e-04,1.488871623e-03,-3.306339719e-04,1.158237651e-03,1.636090705e-05,3.957789109e-04,4.121398180e-04,2.015708968e-05,5.211703379e-04,5.413274276e-04,1.860404903e-04,-1.016927712e-04,8.434771909e-05,1.838972126e-04,-2.463228229e-04,-6.242561037e-05,8.628293388e-04,1.459086349e-04,1.008737974e-03,4.014995680e-04,-1.934985566e-05,3.821497123e-04,8.391052035e-04,1.625285827e-04,1.001633786e-03,2.887741085e-04,8.808600021e-05,3.768601087e-04,4.363980783e-04,1.922106529e-04,6.286087312e-04,1.150502308e-03,-8.711754101e-05,1.063384767e-03,6.273698731e-04,-6.997475237e-05,5.573951207e-04,1.341030227e-03,5.105058166e-06,1.346135285e-03,3.326839559e-04,2.408697797e-04,5.735537356e-04,9.594324753e-04,-1.310430750e-04,8.283894004e-04,5.012434451e-04,-1.978459134e-04,3.033975317e-04,1.056545628e-03,-8.830206560e-05,9.682435625e-04,7.472268184e-04,-4.734593776e-05,6.998808806e-04,1.432949872e-03,-4.716115110e-04,9.613383609e-04,8.145061629e-04,-2.681983873e-04,5.463077756e-04,7.360910183e-04,-5.053984067e-04,2.306926117e-04,-4.184269713e-04,9.165708062e-04,4.981438348e-04
-8.4,-4.886190293e-04,1.044106062e-04,-3.842084231e-04,7.122828525e-04,2.154962764e-04,9.277791289e-04,8.291550315e-04,3.258235728e-04,1.154978604e-03,9.152520986e-04,1.440273634e-05,9.296548349e-04,6.122836563e-04,-4.859143824e-05,5.636922181e-04,8.558264429e-04,1.949275059e-04,1.050753949e-03,3.756304045e-04,7.530729192e-05,4.509376964e-04,9.651903541e-04,1.283439087e-04,1.093534263e-03,4.474368437e-04,9.051990162e-05,5.379567453e-04,4.659870681e-04,5.709160920e-05,5.230786773e-04,5.156057578e-04,9.047195299e-05,6.060777108e-04,4.978612066e-04,3.735791696e-05,5.352191236e-04,1.884921328e-03,-7.681618624e-04,1.116759465e-03,1.019627179e-03,-1.121644916e-04,9.074626870e-04,1.464936196e-03,-3.419182745e-04,1.123017922e-03,-1.886925218e-05,3.876360140e-04,3.687667618e-04,8.969391625e-05,4.339133224e-04,5.236072386e-04,1.442376539e-04,-9.360548412e-05,5.063216976e-05,1.639498581e-04,-2.488991621e-04,-8.494930404e-05,8.337082972e-04,1.515547117e-04,9.852630089e-04,4.095425663e-04,-1.807312605e-05,3.914694402e-04,8.229989488e-04,1.587566088e-04,9.817555577e-04,2.771352496e-04,8.561555297e-05,3.627508026e-04,4.317662981e-04,1.938905460e-04,6.256568441e-04,1.136389722e-03,-8.519279898e-05,1.051196923e-03,6.200364951e-04,-6.785549688e-05,5.521809982e-04,1.347401139e-03,-1.155768309e-06,1.346245370e-03,2.665720872e-04,2.707672598e-04,5.373393470e-04,9.357411387e-04,-1.346706253e-04,8.010705134e-04,4.487788311e-04,-1.789801440e-04,2.697986871e-04,1.018394170e-03,-9.548081839e-05,9.229133518e-04,7.033672191e-04,-6.581295417e-05,6.375542650e-04,1.469565939e-03,-5.837165055e-04,8.858494337e-04,8.100967995e-04,-3.060604818e-04,5.040363177e-04,7.185705075e-04,-5.128322923e-04,2.057382153e-04,-4.872944195e-04,9.186121653e-04,4.313177457e-04
-8.3,-4.361472147e-04,1.245993816e-04,-3.115478332e-04,6.830184010e-04,2.075574096e-04,8.905758106e-04,8.733474069e-04,3.242330303e-04,1.197580437e-03,9.030710629e-04,5.622177368e-06,9.086932403e-04,5.989782362e-04,-5.522634664e-05,5.437518895e-04,8.250124244e-04,1.871483933e-04,1.012160818e-03,3.922916597e-04,8.828303777e-05,4.805746975e-04,9.496008009e-04,1.320834298e-04,1.081684231e-03,4.459301803e-04,9.152232201e-05,5.374525023e-04,4.730066329e-04,6.531852832e-05,5.383251613e-04,4.997133037e-04,8.187808527e-05,5.815913890e-04,4.567480276e-04,2.852207180e-05,4.852700994e-04,1.783184927e-03,-7.331055932e-04,1.050079334e-03,9.886813920e-04,-1.093059623e-04,8.793754298e-04,1.436451966e-03,-3.530155696e-04,1.083436397e-03,-5.061043840e-05,3.753953023e-04,3.247848639e-04,1.595338204e-04,3.433105419e-04,5.028443623e-04,1.013549514e-04,-8.562407959e-05,1.573087180e-05,1.431647141e-04,-2.503763147e-04,-1.072116006e-04,8.021943182e-04,1.565328554e-04,9.587271736e-04,4.141875494e-04,-1.673048150e-05,3.974570679e-04,8.036458059e-04,1.545936491e-04,9.582394550e-04,2.618756689e-04,8.250381838e-05,3.443794872e-04,4.264558373e-04,1.953923257e-04,6.218481630e-04,1.118838688e-03,-8.397780034e-05,1.034860887e-03,6.099236268e-04,-6.601731257e-05,5.439063142e-04,1.350676852e-03,-9.038865161e-06,1.341637987e-03,2.000943119e-04,3.022657353e-04,5.023600472e-04,9.100386008e-04,-1.379487058e-04,7.720898950e-04,3.953281888e-04,-1.585480964e-04,2.367800924e-04,9.767422153e-04,-1.017752722e-04,8.749669431e-04,6.606805356e-04,-8.615475538e-05,5.745257802e-04,1.500444265e-03,-6.940229797e-04,8.064212856e-04,7.994456413e-04,-3.379313918e-04,4.615142495e-04,6.945461406e-04,-5.143261139e-04,1.802200267e-04,-5.510158940e-04,9.142160630e-04,3.632001690e-04
-8.2,-3.817555267e-04,1.454545274e-04,-2.363009994e-04,6.482923445e-04,1.983291632e-04,8.466215077e-04,9.089740628e-04,3.216573360e-04,1.230631399e-03,8.867779680e-04,-3.327213409e-06,8.834507546e-04,5.817874407e-04,-6.157210053e-05,5.202153402e-04,7.888253402e-04,1.781246450e-04,9.669499852e-04,4.077708003e-04,1.010054630e-04,5.087762633e-04,9.302075679e-04,1.355516952e-04,1.065759263e-03,4.416222594e-04,9.212266357e-05,5.337449230e-04,4.796138813e-04,7.332618231e-05,5.529400636e-04,4.797349943e-04,7.314027231e-05,5.528752667e-04,4.139912573e-04,1.709766484e-05,4.310889221e-04,1.677663368e-03,-6.964299054e-04,9.812334629e-04,9.535638803e-04,-1.068791838e-04,8.466846965e-04,1.403195796e-03,-3.637786461e-04,1.039417150e-03,-7.902879954e-05,3.591400375e-04,2.801112380e-04,2.287851525e-04,2.503096145e-04,4.790947670e-04,5.732755047e-05,-7.771989925e-05,-2.039234878e-05,1.213116519e-04,-2.507551702e-04,-1.294435183e-04,7.684285816e-04,1.608224381e-04,9.292510197e-04,4.153151064e-04,-1.539222703e-05,3.999228794e-04,7.811527560e-04,1.500719437e-04,9.312246996e-04,2.431349306e-04,7.877223519e-05,3.219071658e-04,4.203602890e-04,1.966701208e-04,6.170304098e-04,1.097910810e-03,-8.344318510e-05,1.014467625e-03,5.970782603e-04,-6.441987639e-05,5.326583839e-04,1.350496066e-03,-1.849299778e-05,1.332003068e-03,1.341357240e-04,3.348164945e-04,4.689522186e-04,8.822226481e-04,-1.408551915e-04,7.413674566e-04,3.409402537e-04,-1.365980346e-04,2.043422191e-04,9.317704241e-04,-1.072184438e-04,8.245519803e-04,6.191265308e-04,-1.081621287e-04,5.109644021e-04,1.525011840e-03,-8.016255766e-04,7.233862632e-04,7.823359343e-04,-3.636436996e-04,4.186922348e-04,6.646251603e-04,-5.106045862e-04,1.540205742e-04,-6.093271788e-04,9.033890053e-04,2.940618265e-04
-8.1,-3.259886423e-04,1.668009656e-04,-1.591876767e-04,6.084488892e-04,1.879126853e-04,7.963615745e-04,9.360955085e-04,3.181985193e-04,1.254294028e-03,8.663271358e-04,-1.244980013e-05,8.538773356e-04,5.607466442e-04,-6.760451140e-05,4.931421328e-04,7.475891514e-04,1.679386849e-04,9.155278363e-04,4.217563937e-04,1.133460195e-04,5.351024132e-04,9.071900753e-04,1.387346091e-04,1.045924684e-03,4.346464835e-04,9.234269235e-05,5.269891758e-04,4.854895655e-04,8.101434454e-05,5.665039100e-04,4.559693054e-04,6.431643556e-05,5.202857409e-04,3.700520316e-04,3.228010584e-06,3.732800422e-04,1.569266395e-03,-6.585017872e-04,9.107646076e-04,9.143963980e-04,-1.048563224e-04,8.095400756e-04,1.364959776e-03,-3.740545413e-04,9.909052350e-04,-1.043970997e-04,3.390340815e-04,2.346369819e-04,2.965369393e-04,1.558975528e-04,4.524344922e-04,1.208292553e-05,-6.987314260e-05,-5.779021707e-05,9.813109613e-05,-2.500441474e-04,-1.519130512e-04,7.325390691e-04,1.644089217e-04,8.969479908e-04,4.128240496e-04,-1.411952980e-05,3.987045198e-04,7.556278415e-04,1.452259663e-04,9.008538077e-04,2.210712797e-04,7.445330879e-05,2.955245885e-04,4.133652044e-04,1.976859195e-04,6.110511239e-04,1.073662496e-03,-8.354089419e-05,9.901216014e-04,5.815539865e-04,-6.301211464e-05,5.185418719e-04,1.346478122e-03,-2.943497094e-05,1.317043151e-03,6.950109622e-05,3.678743899e-04,4.373754861e-04,8.521698161e-04,-1.433663572e-04,7.088034590e-04,2.856601469e-04,-1.132057732e-04,1.724543737e-04,8.836145398e-04,-1.118472464e-04,7.717672934e-04,5.785773114e-04,-1.315709856e-04,4.470063258e-04,1.542686339e-03,-9.055347510e-04,6.371515884e-04,7.586554215e-04,-3.831673969e-04,3.754880247e-04,6.293633417e-04,-5.023572106e-04,1.270061311e-04,-6.620631876e-04,8.862157117e-04,2.241525241e-04
-8,-2.693956066e-04,1.884674350e-04,-8.092817168e-05,5.638671861e-04,1.764219189e-04,7.402891050e-04,9.548765785e-04,3.139748717e-04,1.268851450e-03,8.416768922e-04,-2.174219781e-05,8.199346943e-04,5.358888166e-04,-7.329580351e-05,4.625930131e-04,7.016324755e-04,1.566787710e-04,8.583112464e-04,4.339468029e-04,1.251899651e-04,5.591367680e-04,8.807295018e-04,1.416216316e-04,1.022351133e-03,4.251382427e-04,9.220853617e-05,5.173467788e-04,4.903110340e-04,8.829511138e-05,5.786061454e-04,4.287198654e-04,5.547248254e-05,4.841923479e-04,3.253340804e-04,-1.287112202e-05,3.124629584e-04,1.458761881e-03,-6.196446399e-04,8.391172410e-04,8.713117985e-04,-1.032082498e-04,7.681035487e-04,1.321560406e-03,-3.836890640e-04,9.378713415e-04,-1.270932775e-04,3.153265702e-04,1.882332927e-04,3.618757445e-04,6.108741339e-05,4.229631579e-04,-3.445179096e-05,-6.207485350e-05,-9.652664446e-05,7.334180423e-05,-2.482586628e-04,-1.749168586e-04,6.946398104e-04,1.672836110e-04,8.619234213e-04,4.066335888e-04,-1.296364496e-05,3.936699438e-04,7.271796882e-04,1.400915676e-04,8.672712558e-04,1.958577820e-04,6.958907358e-05,2.654468556e-04,4.053533177e-04,1.984097258e-04,6.037630435e-04,1.046145049e-03,-8.420716621e-05,9.619378827e-04,5.634105318e-04,-6.173346376e-05,5.016770680e-04,1.338229747e-03,-4.175161872e-05,1.296478129e-03,6.891956323e-06,4.009217415e-04,4.078136978e-04,8.197412417e-04,-1.454570698e-04,6.742841719e-04,2.295335965e-04,-8.847418811e-05,1.410594084e-04,8.323640369e-04,-1.156992092e-04,7.166648278e-04,5.388209602e-04,-1.560707064e-04,3.827502539e-04,1.552880975e-03,-1.004686261e-03,5.481947132e-04,7.284068807e-04,-3.966169577e-04,3.317899230e-04,5.892511092e-04,-4.902188359e-04,9.903227325e-05,-7.091622681e-04,8.628574457e-04,1.536951776e-04
-7.9,-2.125117095e-04,2.102902854e-04,-2.221424145e-06,5.149506727e-04,1.639803175e-04,6.789309902e-04,9.655739063e-04,3.091159801e-04,1.274689886e-03,8.127913904e-04,-3.119297389e-05,7.815984165e-04,5.072464575e-04,-7.861483746e-05,4.286316200e-04,6.512828349e-04,1.444375294e-04,7.957203643e-04,4.440552248e-04,1.364376006e-04,5.804928254e-04,8.510045526e-04,1.442050484e-04,9.952096010e-04,4.132319772e-04,9.174958577e-05,5.049815629e-04,4.937584390e-04,9.509395176e-05,5.888523907e-04,3.982897646e-04,4.668039090e-05,4.449701555e-04,2.801726860e-04,-3.091487382e-05,2.492578122e-04,1.346765557e-03,-5.801301661e-04,7.666353905e-04,8.244528454e-04,-1.019061080e-04,7.225467374e-04,1.272846314e-03,-3.925321029e-04,8.803142114e-04,-1.475956756e-04,2.883546477e-04,1.407589721e-04,4.239076435e-04,-3.310175351e-05,3.908058900e-04,-8.234335869e-05,-5.432730902e-05,-1.366706677e-04,4.664947062e-05,-2.454205744e-04,-1.987711037e-04,6.548306318e-04,1.694433567e-04,8.242739885e-04,3.966848047e-04,-1.196550554e-05,3.847192992e-04,6.959169965e-04,1.347051812e-04,8.306221777e-04,1.676783444e-04,6.422955152e-05,2.319078959e-04,3.962085625e-04,1.988194290e-04,5.950279915e-04,1.015404833e-03,-8.536535052e-05,9.300394822e-04,5.427135657e-04,-6.051553660e-05,4.821980291e-04,1.325351653e-03,-5.530260176e-05,1.270049051e-03,-5.310740983e-05,4.334876113e-04,3.803802015e-04,7.847877065e-04,-1.471009426e-04,6.376867639e-04,1.726086755e-04,-6.253111230e-05,1.100775632e-04,7.780648166e-04,-1.188113507e-04,6.592534659e-04,4.995667376e-04,-1.813125415e-04,3.182541960e-04,1.555009012e-03,-1.097958750e-03,4.570502627e-04,6.917104668e-04,-4.042499834e-04,2.874604834e-04,5.447113784e-04,-4.747641579e-04,6.994722057e-05,-7.506672765e-04,8.335482194e-04,8.288094287e-05
-7.8,-1.558439939e-04,2.321163245e-04,7.627233054e-05,4.621176024e-04,1.507177749e-04,6.128353773e-04,9.685223242e-04,3.037578768e-04,1.272280201e-03,7.796420724e-04,-4.078257400e-05,7.388594984e-04,4.748527951e-04,-8.352750949e-05,3.913252856e-04,5.968617490e-04,1.313107095e-04,7.281724585e-04,4.518132266e-04,1.470050021e-04,5.988182288e-04,8.181875989e-04,1.464793257e-04,9.646669246e-04,3.990579754e-04,9.099755609e-05,4.900555315e-04,4.955195520e-04,1.013503147e-04,5.968698667e-04,3.649759087e-04,3.801635110e-05,4.029922598e-04,2.348237620e-04,-5.055330919e-05,1.842704529e-04,1.233736684e-03,-5.401752167e-04,6.935614671e-04,7.739695380e-04,-1.009223992e-04,6.730471388e-04,1.218703748e-03,-4.004432697e-04,8.182604785e-04,-1.664719442e-04,2.585407689e-04,9.206882468e-05,4.817788390e-04,-1.256699483e-04,3.561088907e-04,-1.316482313e-04,-4.664253141e-05,-1.782907627e-04,1.775624570e-05,-2.415592471e-04,-2.238030014e-04,6.131969157e-04,1.708902703e-04,7.840871860e-04,3.829411349e-04,-1.115556782e-05,3.717855671e-04,6.619477003e-04,1.291031987e-04,7.910508990e-04,1.367235342e-04,5.843121588e-05,1.951547500e-04,3.858186866e-04,1.989004122e-04,5.847190988e-04,9.814815598e-04,-8.692786717e-05,8.945536926e-04,5.195345760e-04,-5.928481746e-05,4.602497585e-04,1.307443348e-03,-6.992328888e-05,1.237520059e-03,-1.100345675e-04,4.651575859e-04,3.551230184e-04,7.471533083e-04,-1.482703138e-04,5.988829945e-04,1.149348065e-04,-3.552605492e-05,7.940875155e-05,7.207249955e-04,-1.212198661e-04,5.995051293e-04,4.604516035e-04,-2.069171232e-04,2.535344803e-04,1.548487185e-03,-1.184199013e-03,3.642881721e-04,6.487988436e-04,-4.064573112e-04,2.423415324e-04,4.961053367e-04,-4.565126593e-04,3.959267739e-05,-7.867245332e-04,7.985911619e-04,1.186662874e-05
-7.7,-9.986061218e-05,2.538046597e-04,1.539440475e-04,4.057926640e-04,1.367677581e-04,5.425604222e-04,9.641205273e-04,2.980384703e-04,1.262158998e-03,7.422086128e-04,-5.048351461e-05,6.917250982e-04,4.387422762e-04,-8.799722521e-05,3.507450509e-04,5.386807207e-04,1.173961532e-04,6.560768739e-04,4.569730126e-04,1.568243678e-04,6.137973805e-04,7.824413928e-04,1.484406972e-04,9.308820900e-04,3.827393028e-04,8.998578662e-05,4.727250894e-04,4.952934419e-04,1.070179039e-04,6.023113458e-04,3.290638423e-04,2.955910984e-05,3.586229522e-04,1.894558898e-04,-7.137738410e-05,1.180785057e-04,1.119980822e-03,-4.999455705e-04,6.200352512e-04,7.200155884e-04,-1.002316069e-04,6.197839815e-04,1.159060430e-03,-4.072974089e-04,7.517630208e-04,-1.843593432e-04,2.263823122e-04,4.202296897e-05,5.346905727e-04,-2.156622347e-04,3.190283380e-04,-1.824101485e-04,-3.903963821e-05,-2.214497867e-04,-1.362892946e-05,-2.367150998e-04,-2.503440293e-04,5.698094665e-04,1.716314020e-04,7.414408686e-04,3.653881365e-04,-1.055396373e-05,3.548341728e-04,6.253780148e-04,1.233213558e-04,7.486993705e-04,1.031866350e-04,5.225548475e-05,1.554421197e-04,3.740768771e-04,1.986448903e-04,5.727217674e-04,9.444044024e-04,-8.879706204e-05,8.556073404e-04,4.939510202e-04,-5.796654646e-05,4.359844737e-04,1.284105265e-03,-8.542649469e-05,1.198678771e-03,-1.635465883e-04,4.955728586e-04,3.320262703e-04,7.066781649e-04,-1.489360567e-04,5.577421082e-04,5.656023504e-05,-7.626457686e-06,4.893377736e-05,6.603227196e-04,-1.229595045e-04,5.373632151e-04,4.210493091e-04,-2.324820704e-04,1.885672387e-04,1.532736471e-03,-1.262251845e-03,2.704846260e-04,6.000062698e-04,-4.037469604e-04,1.962593095e-04,4.437392310e-04,-4.359376684e-04,7.801562621e-06,-8.175810288e-04,7.583570538e-04,-5.922397505e-05
-7.6,-4.498350107e-05,2.752275984e-04,2.302440974e-04,3.463997185e-04,1.222647071e-04,4.686644256e-04,9.528170598e-04,2.920934919e-04,1.244910552e-03,7.004798322e-04,-6.026085750e-05,6.402189747e-04,3.989513352e-04,-9.198533344e-05,3.069660017e-04,4.770383553e-04,1.027929903e-04,5.798313455e-04,4.593091085e-04,1.658440329e-04,6.251531415e-04,7.439166550e-04,1.500869996e-04,8.940036546e-04,3.643896252e-04,8.874872783e-05,4.531383531e-04,4.927937836e-04,1.120646266e-04,6.048584101e-04,2.908238670e-04,2.138851254e-05,3.122123795e-04,1.441473044e-04,-9.292744002e-05,5.121986437e-05,1.005659478e-03,-4.595629162e-04,5.460965616e-04,6.627459040e-04,-9.981047240e-05,5.629354316e-04,1.093888320e-03,-4.129889550e-04,6.808993652e-04,-2.019381775e-04,1.924342566e-04,-9.503920910e-06,5.819096243e-04,-3.021929718e-04,2.797166525e-04,-2.346581684e-04,-3.154210287e-05,-2.662002713e-04,-4.777972240e-05,-2.309445453e-04,-2.787242677e-04,5.247250296e-04,1.716783553e-04,6.964033850e-04,3.440331477e-04,-1.017099114e-05,3.338621566e-04,5.863118910e-04,1.173939759e-04,7.037058669e-04,6.726065048e-05,4.576731013e-05,1.130279606e-04,3.608831203e-04,1.980510154e-04,5.589341357e-04,9.041874135e-04,-9.086546815e-05,8.133219454e-04,4.660466048e-04,-5.648893749e-05,4.095576673e-04,1.254938817e-03,-1.016018722e-04,1.153336945e-03,-2.134157628e-04,5.244226579e-04,3.110068951e-04,6.632014149e-04,-1.490673476e-04,5.141340673e-04,-2.470145552e-06,2.098613410e-05,1.851598854e-05,5.968152194e-04,-1.240627088e-04,4.727525106e-04,3.808837000e-04,-2.575906565e-04,1.232930435e-04,1.507182285e-03,-1.330991149e-03,1.761911363e-04,5.457524890e-04,-3.967253265e-04,1.490271626e-04,3.878663943e-04,-4.134740807e-04,-2.560768641e-05,-8.435776876e-04,7.132834987e-04,-1.302941889e-04
-7.5,8.416633997e-06,2.962707835e-04,3.046874175e-04,2.843558584e-04,1.073417733e-04,3.916976316e-04,9.350979458e-04,2.860531009e-04,1.221151047e-03,6.544554244e-04,-7.007297277e-05,5.843824516e-04,3.555207532e-04,-9.545148908e-05,2.600692641e-04,4.122188950e-04,8.760103951e-05,4.998199345e-04,4.586202916e-04,1.740281224e-04,6.326484140e-04,7.027508023e-04,1.514176365e-04,8.541684388e-04,3.441126322e-04,8.732150788e-05,4.314341401e-04,4.877526543e-04,1.164721724e-04,6.042248267e-04,2.505091994e-04,1.358415181e-05,2.640933512e-04,9.888844735e-05,-1.147037768e-04,-1.581532942e-05,8.908056896e-04,-4.191088178e-04,4.716968718e-04,6.023170488e-04,-9.963803185e-05,5.026790170e-04,1.023205325e-03,-4.174338483e-04,6.057714764e-04,-2.199036800e-04,1.572884648e-04,-6.261521523e-05,6.227768194e-04,-3.844659488e-04,2.383108706e-04,-2.884043332e-04,-2.417558734e-05,-3.125799206e-04,-8.494230863e-05,-2.243237958e-04,-3.092661044e-04,4.779881181e-04,1.710469175e-04,6.490350356e-04,3.189054621e-04,-1.000782218e-05,3.088976399e-04,5.448513566e-04,1.113531340e-04,6.562044905e-04,2.913693658e-05,3.903391614e-05,6.817085272e-05,3.461459971e-04,1.971218327e-04,5.432678298e-04,8.608269684e-04,-9.301639932e-05,7.678105690e-04,4.359117537e-04,-5.478649202e-05,3.811252617e-04,1.219547231e-03,-1.182135161e-04,1.101333714e-03,-2.595271312e-04,5.514360635e-04,2.919089323e-04,6.165660277e-04,-1.486316952e-04,4.679343325e-04,-6.211460549e-05,5.011987989e-05,-1.199472560e-05,5.301494612e-04,-1.245596968e-04,4.055897644e-04,3.394472326e-04,-2.818218026e-04,5.762542998e-05,1.471258817e-03,-1.389350403e-03,8.190841312e-05,4.865214032e-04,-3.860759943e-04,1.004454090e-04,3.286849165e-04,-3.895224026e-04,-6.083748610e-05,-8.651356138e-04,6.638694990e-04,-2.012661147e-04
-7.4,6.002415136e-05,3.168327550e-04,3.768569063e-04,2.200671519e-04,9.212887991e-05,3.121960318e-04,9.114769515e-04,2.800391144e-04,1.191516066e-03,6.041493163e-04,-7.987257843e-05,5.242767379e-04,3.085004823e-04,-9.835401693e-05,2.101464654e-04,3.444923599e-04,7.192038144e-05,4.164127414e-04,4.547323295e-04,1.813557876e-04,6.360881171e-04,6.590679548e-04,1.524334947e-04,8.115014495e-04,3.220032382e-04,8.573950184e-05,4.077427400e-04,4.799252492e-04,1.202352030e-04,6.001604522e-04,2.083563820e-04,6.224021247e-06,2.145804032e-04,5.359009735e-05,-1.361786977e-04,-8.258860038e-05,7.753455566e-04,-3.786239713e-04,3.967215853e-04,5.388913187e-04,-9.969540150e-05,4.391959172e-04,9.470756831e-04,-4.205681777e-04,5.265075054e-04,-2.389404413e-04,1.215530500e-04,-1.173873913e-04,6.567136111e-04,-4.617879917e-04,1.949256195e-04,-3.436406453e-04,-1.696653185e-05,-3.606071771e-04,-1.253260810e-04,-2.169496539e-04,-3.422757349e-04,4.296344848e-04,1.697567753e-04,5.993912602e-04,2.900573214e-04,-1.005728129e-05,2.800000401e-04,5.010979645e-04,1.052278701e-04,6.063258346e-04,-1.099432549e-05,3.212365684e-05,2.112933135e-05,3.297852183e-04,1.958641410e-04,5.256493593e-04,8.143037921e-04,-9.512559860e-05,7.191781935e-04,4.036450580e-04,-5.280184642e-05,3.508432116e-04,1.177541696e-03,-1.349987282e-04,1.042542968e-03,-3.018771098e-04,5.763764652e-04,2.744993554e-04,5.666261577e-04,-1.475955880e-04,4.190305697e-04,-1.223312792e-04,7.957643119e-05,-4.275484801e-05,4.602749605e-04,-1.244802872e-04,3.357946733e-04,2.962234971e-04,-3.047606371e-04,-8.537140002e-06,1.424418458e-03,-1.436349477e-03,-1.193101911e-05,4.228339302e-04,-3.725324562e-04,5.030147399e-05,2.663377778e-04,-3.644503050e-04,-9.811252713e-05,-8.827349432e-04,6.106616432e-04,-2.720733000e-04
-7.3,1.095817558e-04,3.368240690e-04,4.464058249e-04,1.539263000e-04,7.675101748e-05,2.306773175e-04,8.824884338e-04,2.741626792e-04,1.156651113e-03,5.495948205e-04,-8.960798648e-05,4.599868341e-04,2.579565971e-04,-1.006504015e-04,1.573061956e-04,2.741161736e-04,5.585106291e-05,3.299672365e-04,4.475013757e-04,1.878200248e-04,6.353214005e-04,6.129800796e-04,1.531366858e-04,7.661167654e-04,2.981499088e-04,8.403785397e-05,3.821877628e-04,4.690951215e-04,1.233601581e-04,5.924552797e-04,1.645873088e-04,-6.169051177e-07,1.639704037e-04,8.096573774e-06,-1.568098332e-04,-1.487132594e-04,6.591242064e-04,-3.381062875e-04,3.210179188e-04,4.726428439e-04,-9.996527065e-05,3.726775733e-04,8.656082679e-04,-4.223435279e-04,4.432647399e-04,-2.597001001e-04,8.583293269e-05,-1.738671674e-04,6.832261451e-04,-5.335757275e-04,1.496504176e-04,-4.003353676e-04,-9.941361635e-06,-4.102767293e-04,-1.690951580e-04,-2.089371524e-04,-3.780323104e-04,3.796959161e-04,1.678312036e-04,5.475271197e-04,2.575655421e-04,-1.030470728e-05,2.472608348e-04,4.551551639e-04,9.904347449e-05,5.541986384e-04,-5.294240128e-05,2.510489700e-05,-2.783750428e-05,3.117345279e-04,1.942872732e-04,5.060218010e-04,7.645901267e-04,-9.706418567e-05,6.675259411e-04,3.693561009e-04,-5.048647919e-05,3.188696217e-04,1.128555646e-03,-1.516709766e-04,9.768846695e-04,-3.405700755e-04,5.990384340e-04,2.584683586e-04,5.132563943e-04,-1.459258665e-04,3.673305278e-04,-1.830732792e-04,1.091548199e-04,-7.391845932e-05,3.871576736e-04,-1.238568251e-04,2.633008485e-04,2.507104829e-04,-3.260079651e-04,-7.529748219e-05,1.366142803e-03,-1.471113767e-03,-1.049709642e-04,3.552164179e-04,-3.568422136e-04,-1.625795697e-06,2.009202513e-04,-3.385929577e-04,-1.376727063e-04,-8.968886899e-04,5.542335784e-04,-3.426551115e-04
-7.2,1.568928358e-04,3.561660573e-04,5.130588931e-04,8.631194841e-05,6.132671829e-05,1.476386667e-04,8.486815114e-04,2.685221826e-04,1.117203694e-03,4.908506833e-04,-9.922443138e-05,3.916262520e-04,2.039787028e-04,-1.022979987e-04,1.016807041e-04,2.013377743e-04,3.949286638e-05,2.408306407e-04,4.368171617e-04,1.934261438e-04,6.302433055e-04,5.645887999e-04,1.535301145e-04,7.181189144e-04,2.726369670e-04,8.225091874e-05,3.548878858e-04,4.550788983e-04,1.258637040e-04,5.809426023e-04,1.194116580e-04,-6.868210537e-06,1.125434475e-04,-3.779724288e-05,-1.760548330e-04,-2.138520759e-04,5.419293433e-04,-2.975106950e-04,2.444186483e-04,4.037627986e-04,-1.004311399e-04,3.033316587e-04,7.789522404e-04,-4.227202049e-04,3.562320356e-04,-2.827815952e-04,5.071147664e-05,-2.320701185e-04,7.019068400e-04,-5.993572364e-04,1.025496036e-04,-4.584293766e-04,-3.125872434e-06,-4.615552490e-04,-2.163609153e-04,-2.004149769e-04,-4.167758922e-04,3.282054468e-04,1.652965124e-04,4.935019592e-04,2.215331904e-04,-1.072903546e-05,2.108041549e-04,4.071310120e-04,9.282079874e-05,4.999518107e-04,-9.651411750e-05,1.804485657e-05,-7.846926093e-05,2.919441632e-04,1.924018143e-04,4.843459775e-04,7.116597628e-04,-9.870247497e-05,6.129572878e-04,3.331685333e-04,-4.780088860e-05,2.853676447e-04,1.072265636e-03,-1.679279637e-04,9.043376721e-04,-3.758106185e-04,6.192448129e-04,2.434341944e-04,4.563613336e-04,-1.435915932e-04,3.127697404e-04,-2.442844937e-04,1.386552861e-04,-1.056292075e-04,3.107925174e-04,-1.227268721e-04,1.880656453e-04,2.024416467e-04,-3.451874759e-04,-1.427458292e-04,1.295952651e-03,-1.492884923e-03,-1.969322724e-04,2.841701905e-04,-3.397263932e-04,-5.555620277e-05,1.324907705e-04,-3.122506473e-04,-1.797598768e-04,-9.081145265e-04,4.951636735e-04,-4.129508530e-04
-7.1,2.018217777e-04,3.747893332e-04,5.766111109e-04,1.758896413e-05,4.596674826e-05,6.355571239e-05,8.106139924e-04,2.632012993e-04,1.073815292e-03,4.280065937e-04,-1.086653781e-04,3.193412156e-04,1.466858344e-04,-1.032549784e-04,4.343085603e-05,1.263976010e-04,2.294506385e-05,1.493426649e-04,4.226050450e-04,1.981899968e-04,6.207950418e-04,5.139873538e-04,1.536169867e-04,6.676043404e-04,2.455460469e-04,8.041163837e-05,3.259576853e-04,4.377295182e-04,1.277708964e-04,5.655004146e-04,7.302875282e-05,-1.246564438e-05,6.056310844e-05,-8.432708780e-05,-1.933872188e-04,-2.777143066e-04,4.235054381e-04,-2.567505698e-04,1.667548683e-04,3.324615124e-04,-1.010763848e-04,2.313851276e-04,6.872908955e-04,-4.216604526e-04,2.656304429e-04,-3.087137312e-04,1.673393757e-05,-2.919797936e-04,7.124336961e-04,-6.587703235e-04,5.366337265e-05,-5.178334342e-04,3.455657854e-06,-5.143777764e-04,-2.671754866e-04,-1.915201750e-04,-4.586956616e-04,2.752020282e-04,1.621812178e-04,4.373832460e-04,1.820906665e-04,-1.130411391e-05,1.707865526e-04,3.571405361e-04,8.657566067e-05,4.437161968e-04,-1.415126649e-04,1.100846263e-05,-1.305042023e-04,2.703822727e-04,1.902182900e-04,4.606005627e-04,6.554972759e-04,-9.991359048e-05,5.555836854e-04,2.952216384e-04,-4.471461122e-05,2.505070272e-04,1.008414258e-03,-1.834636309e-04,8.249506269e-04,-4.078904877e-04,6.368412302e-04,2.289507424e-04,3.958839870e-04,-1.405661996e-04,2.553177874e-04,-3.058967206e-04,1.678821117e-04,-1.380146089e-04,2.312122670e-04,-1.211345314e-04,1.100777356e-04,1.510033951e-04,-3.619507925e-04,-2.109473974e-04,1.213417823e-03,-1.501027387e-03,-2.876095640e-04,2.101481706e-04,-3.218426188e-04,-1.116944482e-04,6.107893813e-05,-2.856835038e-04,-2.246045657e-04,-9.169087177e-04,4.340154807e-04,-4.828932370e-04
-7,2.442915578e-04,3.926321839e-04,6.369237417e-04,-5.189102012e-05,3.077311774e-05,-2.111790238e-05,7.688453314e-04,2.582671968e-04,1.027112528e-03,3.611871687e-04,-1.178737901e-04,2.433133785e-04,8.622984898e-05,-1.034814256e-04,-1.725157659e-05,4.953205206e-05,6.306115769e-06,5.583816783e-05,4.048265484e-04,2.021360845e-04,6.069626329e-04,4.612624860e-04,1.534004004e-04,6.146628864e-04,2.169566474e-04,7.855096455e-05,2.955076120e-04,4.169377498e-04,1.291132220e-04,5.460509718e-04,2.562867339e-05,-1.735263342e-05,8.276039965e-06,-1.317409486e-04,-2.083125133e-04,-3.400534620e-04,3.035618050e-04,-2.157016795e-04,8.786012550e-05,2.589672515e-04,-1.018832291e-04,1.570840224e-04,5.908351270e-04,-4.191230389e-04,1.717120881e-04,-3.379408701e-04,-1.560592114e-05,-3.535467913e-04,7.145685954e-04,-7.115591386e-04,3.009456768e-06,-5.784266537e-04,9.781796043e-06,-5.686448577e-04,-3.215253520e-04,-1.823940280e-04,-5.039193799e-04,2.207341063e-04,1.585151577e-04,3.792492640e-04,1.393958426e-04,-1.200004470e-05,1.273957979e-04,3.053072848e-04,8.031853359e-05,3.856258184e-04,-1.877372377e-04,4.057305129e-06,-1.836799326e-04,2.470352376e-04,1.877458958e-04,4.347811334e-04,5.961039962e-04,-1.005758691e-04,4.955281271e-04,2.556695166e-04,-4.120623006e-05,2.144632866e-04,9.368303478e-04,-1.979815379e-04,7.388488100e-04,-4.371705844e-04,6.516869715e-04,2.145163871e-04,3.318121717e-04,-1.368298067e-04,1.949823650e-04,-3.678269788e-04,1.966443477e-04,-1.711826311e-04,1.484918055e-04,-1.191296053e-04,2.936220021e-05,9.604819864e-05,-3.759810164e-04,-2.799328178e-04,1.118169532e-03,-1.495037156e-03,-3.768676232e-04,1.335394145e-04,-3.037556637e-04,-1.702162493e-04,-1.330867002e-05,-2.591088618e-04,-2.724175318e-04,-9.237281702e-04,3.713245547e-04,-5.524036155e-04
-6.9,2.842788997e-04,4.096389147e-04,6.939178144e-04,-1.217891307e-04,1.583844086e-05,-1.059506898e-04,7.239290221e-04,2.537690014e-04,9.776980235e-04,2.905542923e-04,-1.267933812e-04,1.637609111e-04,2.279662504e-05,-1.029404964e-04,-8.014387139e-05,-2.902367013e-05,-1.032667975e-05,-3.935034987e-05,3.834786993e-04,2.052956487e-04,5.887743480e-04,4.064964000e-04,1.528831097e-04,5.593795097e-04,1.869463459e-04,7.669746552e-05,2.636438114e-04,3.926324540e-04,1.299267237e-04,5.225591776e-04,-2.260689101e-05,-2.148147456e-05,-4.408836557e-05,-1.802822671e-04,-2.203836036e-04,-4.006658707e-04,1.817875653e-04,-1.742135072e-04,7.574058078e-06,1.835230220e-04,-1.028316786e-04,8.069134337e-05,4.898176840e-04,-4.150591557e-04,7.475852828e-05,-3.708131950e-04,-4.587518377e-05,-4.166883788e-04,7.081573001e-04,-7.575706296e-04,-4.941332955e-05,-6.400561233e-04,1.583556848e-05,-6.242205548e-04,-3.793244660e-04,-1.731799412e-04,-5.525044072e-04,1.648621719e-04,1.543287816e-04,3.191909535e-04,9.363333913e-05,-1.278433047e-05,8.084900866e-05,2.517640492e-04,7.405463716e-05,3.258186864e-04,-2.349830665e-04,-2.751248702e-06,-2.377343152e-04,2.219072859e-04,1.849913637e-04,4.068986497e-04,5.335005659e-04,-1.005737814e-04,4.329267845e-04,2.146782852e-04,-3.726354145e-05,1.774147437e-04,8.574433679e-04,-2.112066650e-04,6.462367030e-04,-4.640596731e-04,6.636441695e-04,1.995844964e-04,2.641826137e-04,-1.323713553e-04,1.318112583e-04,-4.299737378e-04,2.247544584e-04,-2.052192794e-04,6.274869556e-05,-1.167648820e-04,-5.401618646e-05,3.730217594e-05,-3.869947564e-04,-3.496925804e-04,1.009917430e-03,-1.474556585e-03,-4.646391544e-04,5.465932648e-05,-2.859166291e-04,-2.312573027e-04,-9.067868275e-05,-2.327077419e-04,-3.233864247e-04,-9.289831416e-04,3.075927828e-04,-6.213903588e-04
-6.8,3.218079941e-04,4.257581105e-04,7.475661046e-04,-1.917787586e-04,1.245525178e-06,-1.905332334e-04,6.764054793e-04,2.497366905e-04,9.261421699e-04,2.163083377e-04,-1.353698459e-04,8.093849180e-05,-4.339375870e-05,-1.015995120e-04,-1.449932707e-04,-1.090326759e-04,-2.685758029e-05,-1.358902562e-04,3.585928856e-04,2.077048254e-04,5.662977109e-04,3.497690456e-04,1.520674675e-04,5.018365131e-04,1.555914575e-04,7.487716768e-05,2.304686252e-04,3.647804092e-04,1.302503268e-04,4.950307359e-04,-7.150331492e-05,-2.481409415e-05,-9.631740907e-05,-2.301739209e-04,-2.292146570e-04,-4.593885780e-04,5.788387027e-05,-1.321326160e-04,-7.424874578e-05,1.063833345e-04,-1.038984085e-04,2.484925998e-06,3.844898904e-04,-4.094096655e-04,-2.491977513e-05,-4.075810516e-04,-7.370742230e-05,-4.812884739e-04,6.931324339e-04,-7.967501816e-04,-1.036177477e-04,-7.025374965e-04,2.160594879e-05,-6.809315477e-04,-4.404078157e-04,-1.640221197e-04,-6.044299354e-04,1.076608534e-04,1.496526294e-04,2.573134827e-04,4.501347215e-05,-1.362284471e-05,3.139062744e-05,1.966532033e-04,6.778431542e-05,2.644375188e-04,-2.830411182e-04,-9.364784311e-06,-2.924059025e-04,1.950200181e-04,1.819580321e-04,3.769780503e-04,4.677274498e-04,-9.979775964e-05,3.679296902e-04,1.724224528e-04,-3.288399597e-05,1.395384568e-04,7.702916097e-04,-2.228939687e-04,5.473976409e-04,-4.889913377e-04,6.725685619e-04,1.835772242e-04,1.930831678e-04,-1.271899482e-04,6.589321969e-05,-4.922119303e-04,2.520262643e-04,-2.401856660e-04,-2.585732873e-05,-1.140934693e-04,-1.399507980e-04,-2.543296041e-05,-3.947421520e-04,-4.201751124e-04,8.884709141e-04,-1.439393497e-03,-5.509225834e-04,-2.625456470e-05,-2.686506791e-04,-2.949052438e-04,-1.710338628e-04,-2.066396266e-04,-3.776734894e-04,-9.330361151e-04,2.432879188e-04,-6.897481963e-04
-6.7,3.569439397e-04,4.409407967e-04,7.978847364e-04,-2.615447311e-04,-1.293295147e-05,-2.744776826e-04,6.267965913e-04,2.461805922e-04,8.729771836e-04,1.386891451e-04,-1.435520252e-04,-4.862880123e-06,-1.120863747e-04,-9.943088612e-05,-2.115172608e-04,-1.902531955e-04,-4.319286156e-05,-2.334460571e-04,3.302340392e-04,2.094028714e-04,5.396369106e-04,2.911610070e-04,1.509554686e-04,4.421164756e-04,1.229688612e-04,7.311352531e-05,1.960823866e-04,3.333865578e-04,1.301243187e-04,4.635108765e-04,-1.208905465e-04,-2.732247019e-05,-1.482130167e-04,-2.816016223e-04,-2.344930523e-04,-5.160946747e-04,-6.838885338e-05,-8.933510281e-05,-1.577239562e-04,2.781290086e-05,-1.050556636e-04,-7.724276273e-05,2.751230124e-04,-4.021045299e-04,-1.269815174e-04,-4.483899478e-04,-9.880588362e-05,-5.471958314e-04,6.695173305e-04,-8.291342355e-04,-1.596169051e-04,-7.656559082e-04,2.708875269e-05,-7.385671555e-04,-5.045267295e-04,-1.550633142e-04,-6.595900438e-04,4.922134974e-05,1.445168738e-04,1.937382235e-04,-6.228370076e-06,-1.448081653e-05,-2.070918661e-05,1.401273796e-04,6.150345703e-05,2.016308366e-04,-3.316967729e-04,-1.573642145e-05,-3.474331943e-04,1.664125187e-04,1.786451033e-04,3.450576220e-04,3.988453629e-04,-9.814369597e-05,3.007016669e-04,1.290819970e-04,-2.807528278e-05,1.010067142e-04,6.755266741e-04,-2.328339675e-04,4.426927066e-04,-5.123992583e-04,6.783040553e-04,1.659047971e-04,1.186543133e-04,-1.212951597e-04,-2.640846374e-06,-5.543873125e-04,2.782735589e-04,-2.761137536e-04,-1.171235028e-04,-1.111682138e-04,-2.282917166e-04,-9.228025814e-05,-3.990058018e-04,-4.912860599e-04,7.537619645e-04,-1.389539278e-03,-6.357773139e-04,-1.090389709e-04,-2.521537689e-04,-3.611927398e-04,-2.543524221e-04,-1.810566697e-04,-4.354090918e-04,-9.362006438e-04,1.788453851e-04,-7.573552587e-04
-6.6,3.897867913e-04,4.551386237e-04,8.449254150e-04,-3.307818806e-04,-2.663468462e-05,-3.574165652e-04,5.756027400e-04,2.430915797e-04,8.186943197e-04,5.797754478e-05,-1.512929450e-04,-9.331540018e-05,-1.829891910e-04,-9.641286336e-05,-2.794020543e-04,-2.724348424e-04,-5.924140175e-05,-3.316762441e-04,2.985007140e-04,2.104304052e-04,5.089311191e-04,2.307571029e-04,1.495487547e-04,3.803058576e-04,8.915930403e-05,7.142733284e-05,1.605866369e-04,2.984951943e-04,1.295888546e-04,4.280840489e-04,-1.705991258e-04,-2.898895331e-05,-1.995880791e-04,-3.346962709e-04,-2.359888041e-04,-5.706850749e-04,-1.971613285e-04,-4.575764829e-05,-2.429189768e-04,-5.191142501e-05,-1.062703728e-04,-1.581817978e-04,1.620153111e-04,-3.930649700e-04,-2.310496589e-04,-4.932736842e-04,-1.209449823e-04,-6.142186665e-04,6.374278377e-04,-8.548393772e-04,-2.174115394e-04,-8.291663536e-04,3.228665329e-05,-7.968797003e-04,-5.713463449e-04,-1.464415105e-04,-7.177878555e-04,-1.034526010e-05,1.389508766e-04,1.286056165e-04,-5.983142133e-05,-1.532390647e-05,-7.515532780e-05,8.235102746e-05,5.520383362e-05,1.375548611e-04,-3.807272402e-04,-2.182523687e-05,-4.025524771e-04,1.361424255e-04,1.750470270e-04,3.111894525e-04,3.269376838e-04,-9.551303554e-05,2.314246483e-04,8.484176005e-05,-2.285592067e-05,6.198583938e-05,5.734171066e-04,-2.408563144e-04,3.325607922e-04,-5.346901919e-04,6.806816447e-04,1.459914529e-04,4.109112292e-05,-1.147066302e-04,-7.361550733e-05,-6.163106428e-04,3.033095536e-04,-3.130010892e-04,-2.108006045e-04,-1.080436942e-04,-3.188442987e-04,-1.632850127e-04,-3.996014785e-04,-5.628864912e-04,6.058661261e-04,-1.325180942e-03,-7.193148161e-04,-1.935917224e-04,-2.364985853e-04,-4.300903077e-04,-3.405707239e-04,-1.561077196e-04,-4.966784434e-04,-9.387386323e-04,1.146713676e-04,-8.240672647e-04
-6.5,4.204664702e-04,4.683022538e-04,8.887687240e-04,-3.991929731e-04,-3.980781737e-05,-4.390007905e-04,5.233020611e-04,2.404418205e-04,7.637438816e-04,-2.550247944e-05,-1.585506514e-04,-1.840531309e-04,-2.557693231e-04,-9.253017021e-05,-3.482994933e-04,-3.553143605e-04,-7.491540842e-05,-4.302297689e-04,2.635259479e-04,2.108275882e-04,4.743535361e-04,1.686505097e-04,1.478484462e-04,3.164989559e-04,5.425168469e-05,6.983646193e-05,1.240881466e-04,2.601918426e-04,1.286824235e-04,3.888742661e-04,-2.204551714e-04,-2.980667186e-05,-2.502618433e-04,-3.895160830e-04,-2.335611903e-04,-6.230772733e-04,-3.284168028e-04,-1.417929681e-06,-3.298347325e-04,-1.324959737e-04,-1.075036651e-04,-2.399996388e-04,4.550356026e-05,-3.822082374e-04,-3.367046772e-04,-5.421468245e-04,-1.399700606e-04,-6.821168851e-04,5.970713330e-04,-8.740504177e-04,-2.769790848e-04,-8.927929958e-04,3.720820575e-05,-8.555847900e-04,-6.404452430e-04,-1.382861892e-04,-7.787314322e-04,-7.090404704e-05,1.329828183e-04,6.207877123e-05,-1.155085179e-04,-1.611923393e-05,-1.316277519e-04,2.350279010e-05,4.887343268e-05,7.237622278e-05,-4.298982345e-04,-2.759654325e-05,-4.574947777e-04,1.042876682e-04,1.711529582e-04,2.754406263e-04,2.521159851e-04,-9.181420433e-05,1.603017807e-04,3.989405787e-05,-1.725606091e-05,2.263799696e-05,4.643517081e-04,-2.468318708e-04,2.175198373e-04,-5.562163632e-04,6.795224386e-04,1.233060754e-04,-3.935410268e-05,-1.074535090e-04,-1.468076117e-04,-6.777522842e-04,3.269465704e-04,-3.508057138e-04,-3.065873150e-04,-1.047797165e-04,-4.113670314e-04,-2.384068260e-04,-3.963835088e-04,-6.347903347e-04,4.450203212e-04,-1.246704749e-03,-8.016844281e-04,-2.798516547e-04,-2.216477432e-04,-5.014993979e-04,-4.295742913e-04,-1.319289140e-04,-5.615032053e-04,-9.408584003e-04,5.114740221e-05,-8.897109981e-04
-6.4,4.491378992e-04,4.803800147e-04,9.295179139e-04,-4.664862638e-04,-5.241079909e-05,-5.188970628e-04,4.703505431e-04,2.381857959e-04,7.085363390e-04,-1.113818160e-04,-1.652887867e-04,-2.766706027e-04,-3.300493770e-04,-8.777472458e-05,-4.178241016e-04,-4.386112411e-04,-9.013123106e-05,-5.287424721e-04,2.254780730e-04,2.106322527e-04,4.361103257e-04,1.049469482e-04,1.458547677e-04,2.508017159e-04,1.834712579e-05,6.835544868e-05,8.670257447e-05,2.186047992e-04,1.274403226e-04,3.460451218e-04,-2.702755603e-04,-2.978002876e-05,-3.000555891e-04,-4.460304755e-04,-2.271626120e-04,-6.731930875e-04,-4.619712642e-04,4.357746678e-05,-4.183937974e-04,-2.136253020e-04,-1.087108132e-04,-3.223361153e-04,-7.402389025e-05,-3.694548244e-04,-4.434787147e-04,-5.947992926e-04,-1.557960741e-04,-7.505953667e-04,5.487435112e-04,-8.870104096e-04,-3.382668984e-04,-9.562276769e-04,4.186606883e-05,-9.143616080e-04,-7.113179802e-04,-1.307136980e-04,-8.420316782e-04,-1.322925202e-04,1.266394302e-04,-5.653090090e-06,-1.729451627e-04,-1.683622528e-05,-1.897813880e-04,-3.622197513e-05,4.249689516e-05,6.274920030e-06,-4.789609581e-04,-3.302208472e-05,-5.119830428e-04,7.094803422e-05,1.669462714e-04,2.378943056e-04,1.745278759e-04,-8.696562772e-05,8.756224814e-05,-5.556406472e-06,-1.131878169e-05,-1.687518816e-05,3.488410178e-04,-2.506734634e-04,9.816755441e-05,-5.772522756e-04,6.746444409e-04,9.739216531e-05,-1.223695962e-04,-9.957416893e-05,-2.219437651e-04,-7.384384796e-04,3.489958464e-04,-3.894426331e-04,-4.041244750e-04,-1.014444499e-04,-5.055689249e-04,-3.175081881e-04,-3.892550712e-04,-7.067632592e-04,2.716385183e-04,-1.154691838e-03,-8.830533201e-04,-3.677783681e-04,-2.074699116e-04,-5.752482796e-04,-5.211981400e-04,-1.086242361e-04,-6.298223762e-04,-9.427159170e-04,-1.136329878e-05,-9.540792158e-04
-6.3,4.759751236e-04,4.913167296e-04,9.672918531e-04,-5.323731804e-04,-6.441204395e-05,-5.967852244e-04,4.171812682e-04,2.362614161e-04,6.534426843e-04,-1.992456528e-04,-1.714768961e-04,-3.707225489e-04,-4.054058317e-04,-8.214643825e-05,-4.875522700e-04,-5.220237586e-04,-1.048101564e-04,-6.268339150e-04,1.845604914e-04,2.098781088e-04,3.944386001e-04,3.976847124e-05,1.435665890e-04,1.833350603e-04,-1.843823052e-05,6.699504271e-05,4.855681219e-05,1.739052770e-04,1.258932511e-04,2.997985281e-04,-3.198644817e-04,-2.892515841e-05,-3.487896401e-04,-5.041079666e-04,-2.168402275e-04,-7.209481941e-04,-5.974742175e-04,8.903367860e-05,-5.084405389e-04,-2.949595521e-04,-1.098415415e-04,-4.048010936e-04,-1.961156515e-04,-3.547376431e-04,-5.508532946e-04,-6.508950612e-04,-1.684062368e-04,-8.193012981e-04,4.928233686e-04,-8.940130280e-04,-4.011896594e-04,-1.019128893e-03,4.627517045e-05,-9.728537230e-04,-7.833816457e-04,-1.238208730e-04,-9.072025187e-04,-1.943181376e-04,1.199457457e-04,-7.437239193e-05,-2.317993985e-04,-1.744735606e-05,-2.492467546e-04,-9.660930539e-05,3.605604423e-05,-6.055326117e-05,-5.276502985e-04,-3.808019003e-05,-5.657304886e-04,3.624574984e-05,1.624041673e-04,1.986499171e-04,9.436496822e-05,-8.090006673e-05,1.346490150e-05,-5.128787439e-05,-5.101528559e-06,-5.638940294e-05,2.275154905e-04,-2.523352994e-04,-2.481980893e-05,-5.979798694e-04,6.658718047e-04,6.789193534e-05,-2.075836859e-04,-9.111624715e-05,-2.986999330e-04,-7.980507845e-04,3.692679226e-04,-4.287828619e-04,-5.029918718e-04,-9.811553956e-05,-6.011074114e-04,-4.003442407e-04,-3.781804153e-04,-7.785246560e-04,8.632442082e-05,-1.049908154e-03,-9.635837335e-04,-4.573368144e-04,-1.937561288e-04,-6.510929432e-04,-6.152338829e-04,-8.624233482e-05,-7.014762177e-04,-9.444205466e-04,-7.250730047e-05,-1.016927847e-03
-6.2,5.011634222e-04,5.010526457e-04,1.002216068e-03,-5.965666272e-04,-7.578938744e-05,-6.723560147e-04,3.642018985e-04,2.345912956e-04,5.987931941e-04,-2.886351085e-04,-1.770905040e-04,-4.657256125e-04,-4.813704393e-04,-7.565400150e-05,-5.570244408e-04,-6.052259074e-04,-1.188790932e-04,-7.241050006e-04,1.410099662e-04,2.085932081e-04,3.496031742e-04,-2.674337566e-05,1.409810873e-04,1.142377116e-04,-5.597195086e-05,6.576181963e-05,9.789868765e-06,1.263057978e-04,1.240661271e-04,2.503719249e-04,-3.690117298e-04,-2.727018770e-05,-3.962819175e-04,-5.635094253e-04,-2.027362281e-04,-7.662456534e-04,-7.344241462e-04,1.346702495e-04,-5.997538967e-04,-3.761350501e-04,-1.108406846e-04,-4.869757347e-04,-3.202494634e-04,-3.380118499e-04,-6.582613133e-04,-7.099762730e-04,-1.778500900e-04,-8.878263630e-04,4.297678675e-04,-8.953963911e-04,-4.656285235e-04,-1.081122757e-03,5.045188706e-05,-1.030670870e-03,-8.559866823e-04,-1.176776498e-04,-9.736643322e-04,-2.567574687e-04,1.129248191e-04,-1.438326497e-04,-2.917027248e-04,-1.792892010e-05,-3.096316448e-04,-1.574257612e-04,2.953043343e-05,-1.278953278e-04,-5.756845126e-04,-4.275583453e-05,-6.184403471e-04,3.247892857e-07,1.574974681e-04,1.578222574e-04,1.186887911e-05,-7.356961945e-05,-6.170074033e-05,-9.705959370e-05,1.323332884e-06,-9.573626082e-05,1.011196791e-04,-2.518110319e-04,-1.506913528e-04,-6.184818889e-04,6.530446765e-04,3.456278760e-05,-2.945666981e-04,-8.213694925e-05,-3.767036473e-04,-8.562293716e-04,3.875741644e-04,-4.686552072e-04,-6.027087263e-04,-9.487877753e-05,-6.975875039e-04,-4.865573539e-04,-3.631950662e-04,-8.497524202e-04,-1.101225211e-04,-9.332913663e-04,-1.043413887e-03,-5.484842005e-04,-1.802377506e-04,-7.287219511e-04,-7.114369970e-04,-6.475741923e-05,-7.761944162e-04,-9.460462174e-04,-1.319297448e-04,-1.077975962e-03
-6.1,5.248892912e-04,5.095225044e-04,1.034411796e-03,-6.587801255e-04,-8.652931923e-05,-7.453094448e-04,3.117906022e-04,2.330843508e-04,5.448749530e-04,-3.790511218e-04,-1.821110204e-04,-5.611621422e-04,-5.574343633e-04,-6.831550641e-05,-6.257498697e-04,-6.878655239e-04,-1.322710854e-04,-8.201366094e-04,9.509362168e-05,2.067987831e-04,3.018924048e-04,-9.442502182e-05,1.380936746e-04,4.366865280e-05,-9.410509101e-05,6.465792689e-05,-2.944716412e-05,7.605724817e-05,1.219772038e-04,1.980344520e-04,-4.174922928e-04,-2.485518513e-05,-4.423474779e-04,-6.238868143e-04,-1.850869382e-04,-8.089737525e-04,-8.721879242e-04,1.801208648e-04,-6.920670594e-04,-4.567672211e-04,-1.116492395e-04,-5.684164606e-04,-4.458283717e-04,-3.192639855e-04,-7.650923572e-04,-7.714736431e-04,-1.842394492e-04,-9.557130923e-04,3.601087986e-04,-8.915381050e-04,-5.314293064e-04,-1.141806588e-03,5.441483182e-05,-1.087391756e-03,-9.284306374e-04,-1.123210492e-04,-1.040751687e-03,-3.193568819e-04,1.055975213e-04,-2.137593606e-04,-3.522619179e-04,-1.826176778e-05,-3.705236857e-04,-2.184185472e-04,2.289794817e-05,-1.955205990e-04,-6.227660705e-04,-4.704050381e-05,-6.698065744e-04,-3.665081370e-05,1.521907222e-04,1.155399085e-04,-7.266577771e-05,-6.495060728e-05,-1.376163850e-04,-1.426133647e-04,7.869650374e-06,-1.347437143e-04,-2.949742154e-05,-2.491311139e-04,-2.786285354e-04,-6.387420358e-04,6.360291328e-04,-2.712903065e-06,-3.828347628e-04,-7.270353513e-05,-4.555382979e-04,-9.125798232e-04,4.037298652e-04,-5.088499580e-04,-7.027373070e-04,-9.182532054e-05,-7.945626276e-04,-5.756771139e-04,-3.444116055e-04,-9.200887194e-04,-3.167093856e-04,-8.059366671e-04,-1.122646053e-03,-6.411538650e-04,-1.666083805e-04,-8.077622455e-04,-8.095263960e-04,-4.406156845e-05,-8.535879645e-04,-9.476477614e-04,-1.892616935e-04,-1.136909455e-03
-6,5.473291198e-04,5.166548362e-04,1.063983956e-03,-7.187276852e-04,-9.662601843e-05,-8.153537036e-04,2.602913545e-04,2.316378154e-04,4.919291700e-04,-4.699599902e-04,-1.865255709e-04,-6.564855611e-04,-6.330539767e-04,-6.015882365e-05,-6.932128004e-04,-7.695635988e-04,-1.449256109e-04,-9.144892097e-04,4.710526113e-05,2.045084931e-04,2.516137542e-04,-1.630888146e-04,1.348982061e-04,-2.819060855e-05,-1.326722975e-04,6.368102327e-05,-6.899127422e-05,2.344537315e-05,1.196375565e-04,1.430829297e-04,-4.650664707e-04,-2.173172885e-05,-4.867981995e-04,-6.847867244e-04,-1.642198235e-04,-8.490065478e-04,-1.010017185e-03,2.249314203e-04,-7.850857643e-04,-5.364540694e-04,-1.122057076e-04,-6.486597769e-04,-5.721800988e-04,-2.985199357e-04,-8.707000345e-04,-8.347225666e-04,-1.877418537e-04,-1.022464420e-03,2.844525014e-04,-8.828507835e-04,-5.983982821e-04,-1.200754570e-03,5.818666864e-05,-1.142567901e-03,-9.999724687e-04,-1.077526731e-04,-1.107725142e-03,-3.818342687e-04,9.798259880e-05,-2.838516699e-04,-4.130614503e-04,-1.843180385e-05,-4.314932541e-04,-2.793163337e-04,1.613559594e-05,-2.631807377e-04,-6.685830014e-04,-5.093180168e-05,-7.195148031e-04,-7.449904657e-05,1.464426820e-04,7.194363543e-05,-1.588912625e-04,-5.504758322e-05,-2.139388457e-04,-1.876775469e-04,1.444021150e-05,-1.732373354e-04,-1.633947559e-04,-2.443603327e-04,-4.077550886e-04,-6.586505448e-04,6.147272235e-04,-4.392332131e-05,-4.718548356e-04,-6.289352195e-05,-5.347483576e-04,-9.666823662e-04,4.175590759e-04,-5.491232903e-04,-8.024883898e-04,-8.904879849e-05,-8.915371883e-04,-6.671245571e-04,-3.220205646e-04,-9.891451217e-04,-5.322576621e-04,-6.690813327e-04,-1.201338995e-03,-7.352363308e-04,-1.525485585e-04,-8.877848893e-04,-9.091733367e-04,-2.397080496e-05,-9.331441417e-04,-9.492798951e-04,-2.441091911e-04,-1.193389086e-03
-5.9,5.686380502e-04,5.223715122e-04,1.091009562e-03,-7.761240925e-04,-1.060802810e-04,-8.822043735e-04,2.100099050e-04,2.301396818e-04,4.401495868e-04,-5.607995230e-04,-1.903268337e-04,-7.511263567e-04,-7.076568961e-04,-5.122169836e-05,-7.588785945e-04,-8.499144981e-04,-1.567886181e-04,-1.006703116e-03,-2.638219650e-06,2.017280611e-04,1.990898414e-04,-2.325211737e-04,1.313873841e-04,-1.011337896e-04,-1.714915523e-04,6.282443529e-05,-1.086671170e-04,-3.121248946e-05,1.170509561e-04,8.583846665e-05,-5.114798003e-04,-1.796209622e-05,-5.294418965e-04,-7.456573563e-04,-1.405472700e-04,-8.862046263e-04,-1.147061710e-03,2.685629571e-04,-8.784987533e-04,-6.147785423e-04,-1.124474525e-04,-7.272259948e-04,-6.985586003e-04,-2.758512687e-04,-9.744098690e-04,-8.989825859e-04,-1.885728133e-04,-1.087555399e-03,2.034811501e-04,-8.697762365e-04,-6.662950864e-04,-1.257523849e-03,6.179540637e-05,-1.195728442e-03,-1.069845451e-03,-1.039401808e-04,-1.173785632e-03,-4.438811008e-04,9.009704191e-05,-3.537840589e-04,-4.736660470e-04,-1.843015673e-05,-4.920962037e-04,-3.398302985e-04,9.220523374e-06,-3.306097751e-04,-7.128100085e-04,-5.443284869e-05,-7.672428572e-04,-1.130216783e-04,1.402071061e-04,2.718542783e-05,-2.464082740e-04,-4.389578697e-05,-2.903040610e-04,-2.319718720e-04,2.093050417e-05,-2.110413678e-04,-2.995528865e-04,-2.375955512e-04,-5.371484377e-04,-6.780127315e-04,5.890859460e-04,-8.892678548e-05,-5.610500715e-04,-5.279401331e-05,-6.138440848e-04,-1.018102104e-03,4.289006321e-04,-5.892014723e-04,-9.013274073e-04,-8.664288563e-05,-9.879702929e-04,-7.602194390e-04,-2.962872488e-04,-1.056506688e-03,-7.554132355e-04,-5.240861765e-04,-1.279499412e-03,-8.305619602e-04,-1.377493272e-04,-9.683112874e-04,-1.009983592e-03,-4.241656692e-06,-1.014225249e-03,-9.510143634e-04,-2.960473895e-04,-1.247061753e-03
-5.8,5.889407106e-04,5.265875862e-04,1.115528297e-03,-8.306852481e-04,-1.148984122e-04,-9.455836603e-04,1.612116439e-04,2.284715202e-04,3.896831641e-04,-6.509846686e-04,-1.935128767e-04,-8.444975453e-04,-7.806469493e-04,-4.155156031e-05,-8.221985097e-04,-9.284867071e-04,-1.678122588e-04,-1.096298966e-03,-5.379966979e-05,1.984552525e-04,1.446555827e-04,-3.024807284e-04,1.275532319e-04,-1.749274965e-04,-2.103632015e-04,6.207745122e-05,-1.482857503e-04,-8.756987300e-05,1.142140420e-04,2.664416898e-05,-5.564623749e-04,-1.361819254e-05,-5.700805674e-04,-8.058576704e-04,-1.145564515e-04,-9.204141219e-04,-1.282383189e-03,3.104056663e-04,-9.719775224e-04,-6.913087872e-04,-1.123118671e-04,-8.036206542e-04,-8.241473429e-04,-2.513788563e-04,-1.075526199e-03,-9.634569281e-04,-1.869889773e-04,-1.150445905e-03,1.179555670e-04,-8.527780575e-04,-7.348224904e-04,-1.311659147e-03,6.527400824e-05,-1.246385139e-03,-1.137268305e-03,-1.008216474e-04,-1.238089952e-03,-5.051641565e-04,8.195660570e-05,-4.232075508e-04,-5.336228960e-04,-1.825316354e-05,-5.518760595e-04,-3.996548671e-04,2.131102555e-06,-3.975237646e-04,-7.551089273e-04,-5.755156519e-05,-8.126604925e-04,-1.520051993e-04,1.334337974e-04,-1.857140191e-05,-3.347675393e-04,-3.156176470e-05,-3.663293040e-04,-2.752116262e-04,2.723307804e-05,-2.479785481e-04,-4.368881658e-04,-2.289627490e-04,-6.658509149e-04,-6.965586976e-04,5.591044480e-04,-1.374542495e-04,-6.498046539e-04,-4.250003791e-05,-6.923046918e-04,-1.066398639e-03,4.376143914e-04,-6.287842479e-04,-9.985807350e-04,-8.469915924e-05,-1.083279894e-03,-8.541903069e-04,-2.675452468e-04,-1.121735554e-03,-9.846563404e-04,-3.724127867e-04,-1.357069127e-03,-9.268864961e-04,-1.219328404e-04,-1.048819337e-03,-1.111480046e-03,1.540690279e-05,-1.096073144e-03,-9.529503231e-04,-3.446215741e-04,-1.297571897e-03
-5.7,6.083249303e-04,5.292115276e-04,1.137536458e-03,-8.821283211e-04,-1.230910712e-04,-1.005219392e-03,1.141218477e-04,2.265115359e-04,3.406333837e-04,-7.399119787e-04,-1.960869085e-04,-9.359988872e-04,-8.514076615e-04,-3.120510188e-05,-8.826127634e-04,-1.004823872e-03,-1.779543747e-04,-1.182778246e-03,-1.060236577e-04,1.946801111e-04,8.865645339e-05,-3.726964892e-04,1.233874994e-04,-2.493089898e-04,-2.490685487e-04,6.142558703e-05,-1.876429617e-04,-1.452528783e-04,1.111166366e-04,-3.413624166e-05,-5.997277823e-04,-8.780418257e-06,-6.085082005e-04,-8.646689005e-04,-8.679469586e-05,-9.514635964e-04,-1.414973305e-03,3.498069151e-04,-1.065166390e-03,-7.655966981e-04,-1.117373657e-04,-8.773340638e-04,-9.480649961e-04,-2.252725350e-04,-1.173337531e-03,-1.027309415e-03,-1.832837408e-04,-1.210593156e-03,2.872075585e-05,-8.323346787e-04,-8.036139228e-04,-1.362694918e-03,6.865855835e-05,-1.294036359e-03,-1.201455502e-03,-9.831108263e-05,-1.299766585e-03,-5.653267712e-04,7.357630133e-05,-4.917504699e-04,-5.924634089e-04,-1.790234381e-05,-6.103657527e-04,-4.584679904e-04,-5.152071360e-06,-4.636200618e-04,-7.951287872e-04,-6.029990521e-05,-8.554286924e-04,-1.912210285e-04,1.260698632e-04,-6.515116529e-05,-4.234703155e-04,-1.814251988e-05,-4.416128354e-04,-3.171103845e-04,3.324223176e-05,-2.838681527e-04,-5.742673149e-04,-2.186126497e-04,-7.928799645e-04,-7.139541504e-04,5.248395195e-04,-1.891146309e-04,-7.374683921e-04,-3.211198829e-05,-7.695803804e-04,-1.111134067e-03,4.435867922e-04,-6.675472751e-04,-1.093542287e-03,-8.330513602e-05,-1.176847424e-03,-9.481883958e-04,-2.361866853e-04,-1.184375081e-03,-1.218309709e-03,-2.155984388e-04,-1.433908148e-03,-1.023877595e-03,-1.048709407e-04,-1.128748536e-03,-1.213091101e-03,3.527047112e-05,-1.177820630e-03,-9.552150373e-04,-3.893548002e-04,-1.344569838e-03
-5.6,6.268382900e-04,5.301459728e-04,1.156984263e-03,-9.301717824e-04,-1.306720393e-04,-1.060843822e-03,6.892753890e-05,2.241375926e-04,2.930651315e-04,-8.269633335e-04,-1.980568587e-04,-1.025020192e-03,-9.193052681e-04,-2.024775117e-05,-9.395530193e-04,-1.078446234e-03,-1.871779240e-04,-1.265624158e-03,-1.589381662e-04,1.903853657e-04,3.144719958e-05,-4.428664436e-04,1.188819139e-04,-3.239845297e-04,-2.873688956e-04,6.085070938e-05,-2.265181862e-04,-2.038618221e-04,1.077421064e-04,-9.611971566e-05,-6.409725317e-04,-3.536618714e-06,-6.445091504e-04,-9.213102967e-04,-5.785001239e-05,-9.791603090e-04,-1.543779028e-03,3.861114658e-04,-1.157667563e-03,-8.371766203e-04,-1.106643218e-04,-9.478409421e-04,-1.069375345e-03,-1.977461187e-04,-1.267121463e-03,-1.089678052e-03,-1.777848657e-04,-1.267462918e-03,-6.328717149e-05,-8.089345468e-04,-8.722217183e-04,-1.410155869e-03,7.198598654e-05,-1.338169882e-03,-1.261627764e-03,-9.630378581e-05,-1.357931550e-03,-6.239901780e-04,6.497083701e-05,-5.590193410e-04,-6.497050336e-04,-1.738433783e-05,-6.670893714e-04,-5.159313795e-04,-1.264521394e-05,-5.285765935e-04,-8.325063404e-04,-6.269306900e-05,-8.951994094e-04,-2.304256551e-04,1.180612619e-04,-1.123643933e-04,-5.119683105e-04,-3.763874074e-06,-5.157321846e-04,-3.573815773e-04,3.885876369e-05,-3.185228136e-04,-7.105226127e-04,-2.067151954e-04,-9.172378080e-04,-7.298120223e-04,4.864081128e-04,-2.434039096e-04,-8.233628445e-04,-2.173209755e-05,-8.450949420e-04,-1.151879236e-03,4.467350519e-04,-7.051441842e-04,-1.185480896e-03,-8.254270650e-05,-1.268023603e-03,-1.041305769e-03,-2.026499561e-04,-1.243955725e-03,-1.454544960e-03,-5.523237467e-05,-1.509777334e-03,-1.121102536e-03,-8.640156666e-05,-1.207504103e-03,-1.314145503e-03,5.563773664e-05,-1.258507766e-03,-9.579553039e-04,-4.297606955e-04,-1.387715999e-03
-5.5,6.444863903e-04,5.292890188e-04,1.173775409e-03,-9.745356372e-04,-1.376570006e-04,-1.112192638e-03,2.577947827e-05,2.212299155e-04,2.470093938e-04,-9.115101177e-04,-1.994347815e-04,-1.110944899e-03,-9.836930399e-04,-8.753166184e-06,-9.924462061e-04,-1.148852787e-03,-1.954505210e-04,-1.344303308e-03,-2.121568493e-04,1.855469960e-04,-2.660985330e-05,-5.126570520e-04,1.140283162e-04,-3.986287358e-04,-3.250059249e-04,6.033106725e-05,-2.646748577e-04,-2.629737495e-04,1.040678151e-04,-1.589059344e-04,-6.798769234e-04,2.018909697e-06,-6.778580137e-04,-9.749605247e-04,-2.832796541e-05,-1.003288490e-03,-1.667732779e-03,4.187058343e-04,-1.249026945e-03,-9.055663353e-04,-1.090360733e-04,-1.014602409e-03,-1.187102566e-03,-1.690482509e-04,-1.356150817e-03,-1.149686647e-03,-1.708523996e-04,-1.320539047e-03,-1.570378294e-04,-7.830721757e-04,-9.401100051e-04,-1.453557632e-03,7.529192102e-05,-1.378265711e-03,-1.317022876e-03,-9.468131651e-05,-1.411704193e-03,-6.807557664e-04,5.615511394e-05,-6.246006525e-04,-7.048538433e-04,-1.671064909e-05,-7.215644924e-04,-5.716913838e-04,-2.036024591e-05,-5.920516297e-04,-8.668678737e-04,-6.474871491e-05,-9.316165886e-04,-2.693614727e-04,1.093546653e-04,-1.600068074e-04,-5.996649621e-04,1.142148082e-05,-5.882434812e-04,-3.957401366e-04,4.399445470e-05,-3.517456819e-04,-8.444679550e-04,-1.934536706e-04,-1.037921626e-03,-7.437042928e-04,4.439856862e-04,-2.997186065e-04,-9.067904299e-04,-1.146007941e-05,-9.182505093e-04,-1.188218591e-03,4.470094983e-04,-7.412090931e-04,-1.273648822e-03,-8.248709613e-05,-1.356135918e-03,-1.132595829e-03,-1.674069255e-04,-1.300002754e-03,-1.691390998e-03,1.070640858e-04,-1.584326912e-03,-1.218020012e-03,-6.644043261e-05,-1.284460444e-03,-1.413870393e-03,7.677033382e-05,-1.337100059e-03,-9.613218380e-04,-4.653606005e-04,-1.426682439e-03
-5.4,6.612317569e-04,5.265359354e-04,1.187767692e-03,-1.014942213e-03,-1.440625156e-04,-1.159004728e-03,-1.520674031e-05,2.176733651e-04,2.024666248e-04,-9.929187612e-04,-2.002361386e-04,-1.193154900e-03,-1.043918070e-03,3.197235985e-06,-1.040720834e-03,-1.215524443e-03,-2.027441109e-04,-1.418268554e-03,-2.652822945e-04,1.801350349e-04,-8.514725957e-05,-5.817038717e-04,1.088188411e-04,-4.728850306e-04,-3.617037383e-04,5.984139446e-05,-3.018623438e-04,-3.221462572e-04,1.000657973e-04,-2.220804599e-04,-7.161077317e-04,7.786505786e-06,-7.083212260e-04,-1.024783570e-03,1.172188036e-06,-1.023611382e-03,-1.785781065e-03,4.470567060e-04,-1.338724359e-03,-9.702713024e-04,-1.068000835e-04,-1.077071386e-03,-1.300250668e-03,-1.394510198e-04,-1.439701688e-03,-1.206456393e-03,-1.628754541e-04,-1.369331847e-03,-2.514125734e-04,-7.552421320e-04,-1.006654705e-03,-1.492408930e-03,7.860865470e-05,-1.413800276e-03,-1.366906696e-03,-9.331639061e-05,-1.460223086e-03,-7.352086947e-04,4.714480173e-05,-6.880638930e-04,-7.574082692e-04,-1.589713333e-05,-7.733054025e-04,-6.253809248e-04,-2.830353946e-05,-6.536844643e-04,-8.978325337e-04,-6.648619257e-05,-9.643187263e-04,-3.077586641e-04,9.989959505e-05,-2.078590691e-04,-6.859198891e-04,2.723611192e-05,-6.586837772e-04,-4.319052958e-04,4.857581247e-05,-3.833294833e-04,-9.749159957e-04,-1.790191976e-04,-1.153935193e-03,-7.551747667e-04,3.978013224e-04,-3.573734443e-04,-9.870464331e-04,-1.388523407e-06,-9.884349566e-04,-1.219754286e-03,4.443940737e-04,-7.753602128e-04,-1.357291457e-03,-8.320620933e-05,-1.440497667e-03,-1.221093121e-03,-1.309516520e-04,-1.352044773e-03,-1.926747683e-03,2.696529578e-04,-1.657094726e-03,-1.313978498e-03,-4.498575698e-05,-1.358964255e-03,-1.511389755e-03,9.888208129e-05,-1.412507674e-03,-9.654492696e-04,-4.957042896e-04,-1.461153559e-03
-5.3,6.769930039e-04,5.217811423e-04,1.198774146e-03,-1.051117685e-03,-1.499052733e-04,-1.201022959e-03,-5.395050103e-05,2.133593796e-04,1.594088785e-04,-1.070557683e-03,-2.004790429e-04,-1.271036726e-03,-1.099330362e-03,1.551482106e-05,-1.083815541e-03,-1.277928326e-03,-2.090346909e-04,-1.486963017e-03,-3.179101212e-04,1.741147024e-04,-1.437954188e-04,-6.496132226e-04,1.032462982e-04,-5.463669243e-04,-3.971722037e-04,5.935319649e-05,-3.378190072e-04,-3.809223930e-04,9.570372888e-05,-2.852186641e-04,-7.493223390e-04,1.366243982e-05,-7.356598992e-04,-1.069955490e-03,3.007897010e-05,-1.039876519e-03,-1.896908764e-03,4.707386146e-04,-1.426170149e-03,-1.030791622e-03,-1.039092101e-04,-1.134700832e-03,-1.407824424e-03,-1.092387971e-04,-1.517063221e-03,-1.259118211e-03,-1.542673829e-04,-1.413385594e-03,-3.452210606e-04,-7.259300599e-04,-1.071151120e-03,-1.526215600e-03,8.196317273e-05,-1.444252428e-03,-1.410585062e-03,-9.207711569e-05,-1.502662177e-03,-7.869226656e-04,3.795687740e-05,-7.489657882e-04,-8.068637892e-04,-1.496334542e-05,-8.218271346e-04,-6.766224168e-04,-3.647472509e-05,-7.130971419e-04,-9.250168069e-04,-6.792579191e-05,-9.929425989e-04,-3.453379627e-04,8.965074873e-05,-2.556872140e-04,-7.700570773e-04,4.348045107e-05,-7.265766262e-04,-4.656045903e-04,5.254660592e-05,-4.130579844e-04,-1.100696349e-03,-1.636060569e-04,-1.264302406e-03,-7.637538087e-04,3.481315341e-04,-4.156222746e-04,-1.063432650e-03,8.401092240e-06,-1.055031557e-03,-1.246110243e-03,4.389057062e-04,-8.072045367e-04,-1.435657971e-03,-8.476002471e-05,-1.520417996e-03,-1.305829920e-03,-9.379197963e-05,-1.399621899e-03,-2.158404003e-03,4.308914349e-04,-1.727512568e-03,-1.408221577e-03,-2.211677928e-05,-1.430338356e-03,-1.605723866e-03,1.221170383e-04,-1.483606828e-03,-9.704351946e-04,-5.203918708e-04,-1.490827065e-03
-5.2,6.916445223e-04,5.149203807e-04,1.206564903e-03,-1.082794311e-03,-1.552015267e-04,-1.237995838e-03,-9.040615653e-05,2.081877663e-04,1.177816098e-04,-1.143805010e-03,-2.001835137e-04,-1.343988523e-03,-1.149293108e-03,2.810447293e-05,-1.121188635e-03,-1.335523113e-03,-2.143020276e-04,-1.549825141e-03,-3.696333612e-04,1.674478759e-04,-2.021854853e-04,-7.159646512e-04,9.730477287e-05,-6.186598783e-04,-4.311108885e-04,5.883521472e-05,-3.722756738e-04,-4.388359574e-04,9.094616740e-05,-3.478897900e-04,-7.791735451e-04,1.954042193e-05,-7.596331232e-04,-1.109687850e-03,5.786566494e-05,-1.051822185e-03,-2.000160184e-03,4.894514146e-04,-1.510708769e-03,-1.086630216e-03,-1.003228496e-04,-1.186953065e-03,-1.508849671e-03,-7.869881492e-05,-1.587548486e-03,-1.306825413e-03,-1.454596186e-04,-1.452285032e-03,-4.372258073e-04,-6.956027520e-04,-1.132828559e-03,-1.554486096e-03,8.537540902e-05,-1.469110687e-03,-1.447417154e-03,-9.082942901e-05,-1.538246583e-03,-8.354653220e-04,2.861005373e-05,-8.068552683e-04,-8.527180629e-04,-1.393184559e-05,-8.666499085e-04,-7.250312789e-04,-4.486575578e-05,-7.698970347e-04,-9.480394677e-04,-6.908796219e-05,-1.017127430e-03,-3.818137277e-04,7.857042639e-05,-3.032433013e-04,-8.513761720e-04,5.993649526e-05,-7.914396767e-04,-4.965784264e-04,5.586911554e-05,-4.407093109e-04,-1.220674177e-03,-1.474079123e-04,-1.368082090e-03,-7.689743078e-04,2.952946791e-04,-4.736796287e-04,-1.135271086e-03,1.784112915e-05,-1.117429957e-03,-1.266935830e-03,4.305931497e-04,-8.363426799e-04,-1.508012616e-03,-8.719931222e-05,-1.595211928e-03,-1.385848819e-03,-5.644445723e-05,-1.442293276e-03,-2.384060507e-03,5.891439033e-04,-1.794916604e-03,-1.499898716e-03,2.010618276e-06,-1.497888098e-03,-1.695792784e-03,1.465289977e-04,-1.549263786e-03,-9.763214580e-04,-5.390938510e-04,-1.515415309e-03
-5.1,7.050173514e-04,5.058530249e-04,1.210870376e-03,-1.109713131e-03,-1.599665595e-04,-1.269679691e-03,-1.245621939e-04,2.020684491e-04,7.750625520e-05,-1.212056168e-03,-1.993707598e-04,-1.411426927e-03,-1.193192706e-03,4.086556083e-05,-1.152327145e-03,-1.387765140e-03,-2.185294264e-04,-1.606294566e-03,-4.200464504e-04,1.600948051e-04,-2.599516454e-04,-7.803139514e-04,9.099031745e-05,-6.893236340e-04,-4.632128354e-04,5.825400016e-05,-4.049588352e-04,-4.954164335e-04,8.575598080e-05,-4.096604527e-04,-8.053142509e-04,2.531324695e-05,-7.800010039e-04,-1.143245406e-03,8.406206220e-05,-1.059183344e-03,-2.094654371e-03,5.030280397e-04,-1.591626332e-03,-1.137300555e-03,-9.600768473e-05,-1.233308240e-03,-1.602391754e-03,-4.811351414e-05,-1.650505268e-03,-1.348766504e-03,-1.368937542e-04,-1.485660258e-03,-5.261715336e-04,-6.646991206e-04,-1.190870654e-03,-1.576737875e-03,8.885705912e-05,-1.487880816e-03,-1.476828748e-03,-8.943802712e-05,-1.566266776e-03,-8.804037123e-04,1.912519110e-05,-8.612785212e-04,-8.944759870e-04,-1.282741761e-05,-9.073034046e-04,-7.702196029e-04,-5.346022137e-05,-8.236798243e-04,-9.665262760e-04,-6.999246547e-05,-1.036518741e-03,-4.168966796e-04,6.663095652e-05,-3.502657231e-04,-9.291654305e-04,7.637298908e-05,-8.527924414e-04,-5.245846662e-04,5.852466809e-05,-4.660599981e-04,-1.333767924e-03,-1.306147696e-04,-1.464382694e-03,-7.703867173e-04,2.396473588e-04,-5.307393585e-04,-1.201916312e-03,2.687920125e-05,-1.175037110e-03,-1.281908049e-03,4.195353611e-04,-8.623726883e-04,-1.573646408e-03,-9.056280636e-05,-1.664209214e-03,-1.460212354e-03,-1.943141979e-05,-1.479643774e-03,-2.601359394e-03,7.427991939e-04,-1.858560200e-03,-1.588079423e-03,2.716884101e-05,-1.560910582e-03,-1.780426773e-03,1.720665323e-04,-1.608360240e-03,-9.830787697e-04,-5.515679591e-04,-1.534646729e-03
-5,7.169019988e-04,4.944844191e-04,1.211386418e-03,-1.131626830e-03,-1.642141506e-04,-1.295840980e-03,-1.564387032e-04,1.949231500e-04,3.848444672e-05,-1.274730476e-03,-1.980624981e-04,-1.472792974e-03,-1.230447278e-03,5.369307594e-05,-1.176754202e-03,-1.434114920e-03,-2.217036239e-04,-1.655818544e-03,-4.687483128e-04,1.520159396e-04,-3.167323732e-04,-8.421965967e-04,8.430153091e-05,-7.578950658e-04,-4.931677994e-04,5.757453146e-05,-4.355932680e-04,-5.501930324e-04,8.009588797e-05,-4.700971444e-04,-8.274015546e-04,3.087448620e-05,-7.965270684e-04,-1.169958115e-03,1.082614520e-04,-1.061696663e-03,-2.179589097e-03,5.114321153e-04,-1.668156982e-03,-1.182332892e-03,-9.093795556e-05,-1.273270848e-03,-1.687571280e-03,-1.775379816e-05,-1.705325078e-03,-1.384178853e-03,-1.290103365e-04,-1.513189190e-03,-6.108161478e-04,-6.336226140e-04,-1.244438762e-03,-1.592504195e-03,9.241127704e-05,-1.500092918e-03,-1.498322457e-03,-8.776761028e-05,-1.586090067e-03,-9.213094995e-04,9.525800337e-06,-9.117836992e-04,-9.316543441e-04,-1.167611721e-05,-9.433304613e-04,-8.117997354e-04,-6.223280033e-05,-8.740325357e-04,-9.801140673e-04,-7.065750951e-05,-1.050771577e-03,-4.502959100e-04,5.381697291e-05,-3.964789371e-04,-1.002714573e-03,9.255184895e-05,-9.101627245e-04,-5.494027749e-04,6.051418840e-05,-4.888885865e-04,-1.438965145e-03,-1.134103825e-04,-1.552375527e-03,-7.675708631e-04,1.815818131e-04,-5.859890499e-04,-1.262765617e-03,3.547849484e-05,-1.227287122e-03,-1.290731995e-03,4.058394355e-04,-8.848925599e-04,-1.631888350e-03,-9.487284393e-05,-1.726761194e-03,-1.528011495e-03,1.672217557e-05,-1.511289320e-03,-2.807923900e-03,8.902943602e-04,-1.917629540e-03,-1.671768985e-03,5.306501346e-05,-1.618703971e-03,-1.858384620e-03,1.985664464e-04,-1.659818174e-03,-9.905945482e-04,-5.576726386e-04,-1.548267187e-03
-4.9,7.270535939e-04,4.807281507e-04,1.207781745e-03,-1.148302513e-03,-1.679561158e-04,-1.316258629e-03,-1.860830175e-04,1.866868755e-04,6.038579434e-07,-1.331276378e-03,-1.962803021e-04,-1.527556680e-03,-1.260513400e-03,6.647881752e-05,-1.194034582e-03,-1.474043867e-03,-2.238148186e-04,-1.697858685e-03,-5.153445261e-04,1.431737614e-04,-3.721707648e-04,-9.011316758e-04,7.723987834e-05,-8.238917975e-04,-5.206652236e-04,5.676081020e-05,-4.639044134e-04,-6.026979537e-04,7.393004823e-05,-5.287679055e-04,-8.451004687e-04,3.612013738e-05,-8.089803313e-04,-1.189229102e-03,1.301237933e-04,-1.059105309e-03,-2.254233741e-03,5.147469578e-04,-1.739486783e-03,-1.221279284e-03,-8.509541107e-05,-1.306374695e-03,-1.763577306e-03,1.212759011e-05,-1.751449716e-03,-1.412363118e-03,-1.222339680e-04,-1.534597086e-03,-6.899592156e-04,-6.027362939e-04,-1.292695509e-03,-1.601341089e-03,9.603316766e-05,-1.505307922e-03,-1.511483576e-03,-8.568564424e-05,-1.597169221e-03,-9.577639703e-04,-1.614516287e-07,-9.579254220e-04,-9.637860634e-04,-1.050424246e-05,-9.742903058e-04,-8.493878435e-04,-7.114886116e-05,-9.205367047e-04,-9.884545357e-04,-7.109897637e-05,-1.059553512e-03,-4.817203403e-04,4.012736381e-05,-4.415929765e-04,-1.071326359e-03,1.082351000e-04,-9.630912594e-04,-5.708369242e-04,6.185873058e-05,-5.089781936e-04,-1.535335532e-03,-9.597011955e-05,-1.631305651e-03,-7.601431530e-04,1.215212776e-04,-6.386218754e-04,-1.317267063e-03,4.361703104e-05,-1.273650032e-03,-1.293141014e-03,3.896384185e-04,-9.035025951e-04,-1.682115056e-03,-1.001306698e-04,-1.782245726e-03,-1.588374809e-03,5.149454390e-05,-1.536880265e-03,-3.001402181e-03,1.030141194e-03,-1.971260987e-03,-1.749924691e-03,7.935035668e-05,-1.670574334e-03,-1.928378710e-03,2.257563295e-04,-1.702622380e-03,-9.986647452e-04,-5.573771213e-04,-1.556041867e-03
-4.8,7.351989111e-04,4.645083177e-04,1.199707229e-03,-1.159524490e-03,-1.712019754e-04,-1.330726465e-03,-2.135645015e-04,1.773090331e-04,-3.625546835e-05,-1.381175809e-03,-1.940449173e-04,-1.575220726e-03,-1.282892146e-03,7.911251892e-05,-1.203779628e-03,-1.507041281e-03,-2.248568537e-04,-1.731898135e-03,-5.594492117e-04,1.335345609e-04,-4.259146508e-04,-9.566267006e-04,6.980972547e-05,-8.868169751e-04,-5.453977439e-04,5.577635927e-05,-4.896213847e-04,-6.524695807e-04,6.722563111e-05,-5.852439496e-04,-8.580880585e-04,4.095014349e-05,-8.171379150e-04,-1.200540307e-03,1.493755992e-04,-1.051164708e-03,-2.317919722e-03,5.131605016e-04,-1.804759221e-03,-1.253718877e-03,-7.846920256e-05,-1.332188079e-03,-1.829678982e-03,4.130237893e-05,-1.788376603e-03,-1.432696915e-03,-1.169566785e-04,-1.549653594e-03,-7.624642670e-04,-5.723624132e-04,-1.334826680e-03,-1.602834348e-03,9.971042993e-05,-1.503123918e-03,-1.515982439e-03,-8.306620378e-05,-1.599048642e-03,-9.893632711e-04,-9.906459052e-06,-9.992697302e-04,-9.904244474e-04,-9.337455258e-06,-9.997619027e-04,-8.826078242e-04,-8.016435476e-05,-9.627721790e-04,-9.912184717e-04,-7.132983880e-05,-1.062548310e-03,-5.108802953e-04,2.557677658e-05,-4.853035187e-04,-1.134326813e-03,1.231913103e-04,-1.011135502e-03,-5.887178428e-04,6.259913088e-05,-5.261187119e-04,-1.622040086e-03,-7.845987443e-05,-1.700499961e-03,-7.477601906e-04,5.991162316e-05,-6.878485674e-04,-1.364926173e-03,5.128579740e-05,-1.313640376e-03,-1.288898617e-03,3.710893097e-04,-9.178093072e-04,-1.723758360e-03,-1.063129592e-04,-1.830071319e-03,-1.640479844e-03,8.437660541e-05,-1.556103239e-03,-3.179507806e-03,1.160950734e-03,-2.018557072e-03,-1.821472813e-03,1.056320710e-04,-1.715840742e-03,-1.989105258e-03,2.532654940e-04,-1.735839764e-03,-1.006990874e-03,-5.507680419e-04,-1.557758915e-03
-4.7,7.410441356e-04,4.457619183e-04,1.186806054e-03,-1.165097381e-03,-1.739586798e-04,-1.339056060e-03,-2.389699354e-04,1.667540450e-04,-7.221589033e-05,-1.423948724e-03,-1.913754730e-04,-1.615324197e-03,-1.297136020e-03,9.148287157e-05,-1.205653149e-03,-1.532621790e-03,-2.248275788e-04,-1.757449369e-03,-6.006874640e-04,1.230701341e-04,-4.776173299e-04,-1.008183668e-03,6.201816825e-05,-9.461655000e-04,-5.670658950e-04,5.458459711e-05,-5.124812979e-04,-6.990564026e-04,5.995431855e-05,-6.391020840e-04,-8.660587830e-04,4.526973101e-05,-8.207890520e-04,-1.203457385e-03,1.658072152e-04,-1.037650169e-03,-2.370038774e-03,5.069515923e-04,-1.863087181e-03,-1.279264946e-03,-7.105591388e-05,-1.350320860e-03,-1.885236393e-03,6.957179504e-05,-1.815664597e-03,-1.444646315e-03,-1.135221541e-04,-1.558168470e-03,-8.272745096e-04,-5.427860226e-04,-1.370060532e-03,-1.596606263e-03,1.034236060e-04,-1.493182657e-03,-1.511574357e-03,-7.979410764e-05,-1.591368464e-03,-1.015724398e-03,-1.967572487e-05,-1.035400123e-03,-1.011147867e-03,-8.200151022e-06,-1.019348018e-03,-9.110960262e-04,-8.922604799e-05,-1.000322074e-03,-9.881010699e-04,-7.135976744e-05,-1.059460837e-03,-5.374898701e-04,1.019667823e-05,-5.272931919e-04,-1.191074782e-03,1.372005664e-04,-1.053874216e-03,-6.029040902e-04,6.279410181e-05,-5.401099884e-04,-1.698336976e-03,-6.103590455e-05,-1.759372881e-03,-7.301222885e-04,-2.788751739e-06,-7.329110403e-04,-1.405311791e-03,5.848578421e-05,-1.346826006e-03,-1.277802973e-03,3.503711221e-04,-9.274318505e-04,-1.756311620e-03,-1.133703601e-04,-1.869681980e-03,-1.683567092e-03,1.148842582e-04,-1.568682834e-03,-3.340052654e-03,1.281452860e-03,-2.058599794e-03,-1.885328718e-03,1.314880216e-04,-1.753840696e-03,-2.039278943e-03,2.806427008e-04,-1.758636242e-03,-1.015182736e-03,-5.380526694e-04,-1.553235406e-03
-4.6,7.442823713e-04,4.244413573e-04,1.168723729e-03,-1.164849908e-03,-1.762302904e-04,-1.341080198e-03,-2.624003156e-04,1.550014390e-04,-1.073988766e-04,-1.459158391e-03,-1.882886198e-04,-1.647447011e-03,-1.302857526e-03,1.034784749e-04,-1.199379051e-03,-1.550333386e-03,-2.237293259e-04,-1.774062712e-03,-6.386986671e-04,1.117594134e-04,-5.269392538e-04,-1.055306440e-03,5.387477583e-05,-1.001431664e-03,-5.853840546e-04,5.314916301e-05,-5.322348916e-04,-7.420219323e-04,5.209375504e-05,-6.899281772e-04,-8.687311923e-04,4.899061260e-05,-8.197405797e-04,-1.197635672e-03,1.792692177e-04,-1.018366454e-03,-2.410053123e-03,4.964801588e-04,-1.913572964e-03,-1.297574027e-03,-6.285974701e-05,-1.360433774e-03,-1.929710528e-03,9.676965067e-05,-1.832940877e-03,-1.447774422e-03,-1.122129401e-04,-1.559987362e-03,-8.834251611e-04,-5.142584855e-04,-1.397683647e-03,-1.582321754e-03,1.071458977e-04,-1.475175857e-03,-1.498097549e-03,-7.576906351e-05,-1.573866612e-03,-1.036492198e-03,-2.943263062e-05,-1.065924829e-03,-1.025565269e-03,-7.114920097e-06,-1.032680189e-03,-9.345070672e-04,-9.827197999e-05,-1.032779047e-03,-9.788283766e-04,-7.119488920e-05,-1.050023266e-03,-5.612703691e-04,-5.963973268e-06,-5.672343423e-04,-1.240971602e-03,1.500577163e-04,-1.090913886e-03,-6.132836054e-04,6.251678223e-05,-5.507668232e-04,-1.763587002e-03,-4.384401863e-05,-1.807431020e-03,-7.069799954e-04,-6.611701790e-05,-7.730970133e-04,-1.438060703e-03,6.522413657e-05,-1.372836567e-03,-1.259693090e-03,3.276824659e-04,-9.320106239e-04,-1.779335797e-03,-1.212277845e-04,-1.900563582e-03,-1.716955529e-03,1.425713449e-04,-1.574384184e-03,-3.480973911e-03,1.390509505e-03,-2.090464406e-03,-1.940422752e-03,1.564861665e-04,-1.783936585e-03,-2.077671481e-03,3.073783878e-04,-1.770293093e-03,-1.022766343e-03,-5.195582466e-04,-1.542324590e-03
-4.5,7.446006302e-04,4.005169058e-04,1.145117536e-03,-1.158639371e-03,-1.780176377e-04,-1.336657008e-03,-2.839688641e-04,1.420455023e-04,-1.419233618e-04,-1.486417318e-03,-1.847976937e-04,-1.671215012e-03,-1.299738870e-03,1.149887739e-04,-1.184750096e-03,-1.559766007e-03,-2.215693669e-04,-1.781335374e-03,-6.731404002e-04,9.959006332e-05,-5.735503368e-04,-1.097509103e-03,4.539135207e-05,-1.052117751e-03,-6.000870596e-04,5.143432959e-05,-5.486527300e-04,-7.809502418e-04,4.362900450e-05,-7.373212373e-04,-8.658554653e-04,5.203216184e-05,-8.138233035e-04,-1.182828413e-03,1.896700415e-04,-9.931583712e-04,-2.437513071e-03,4.821789110e-04,-1.955334160e-03,-1.308356054e-03,-5.389276878e-05,-1.362248822e-03,-1.962671408e-03,1.227631534e-04,-1.839908254e-03,-1.441746377e-03,-1.132422651e-04,-1.554988642e-03,-9.300568578e-04,-4.869957432e-04,-1.417052601e-03,-1.559693643e-03,1.108426476e-04,-1.448850995e-03,-1.475469816e-03,-7.090933946e-05,-1.546379156e-03,-1.051347158e-03,-3.913778070e-05,-1.090484938e-03,-1.033322470e-03,-6.101914679e-06,-1.039424385e-03,-9.525206407e-04,-1.072320546e-04,-1.059752695e-03,-9.631644367e-04,-7.083769332e-05,-1.034002130e-03,-5.819545673e-04,-2.283846127e-05,-6.047930285e-04,-1.283471218e-03,1.615744750e-04,-1.121896743e-03,-6.197755788e-04,6.185005641e-05,-5.579255224e-04,-1.817260904e-03,-2.701708664e-05,-1.844277991e-03,-6.781440002e-04,-1.296099441e-04,-8.077539443e-04,-1.462880375e-03,7.150994840e-05,-1.391370426e-03,-1.234455583e-03,3.032384981e-04,-9.312170849e-04,-1.792465443e-03,-1.297857527e-04,-1.922251195e-03,-1.740058062e-03,1.670422334e-04,-1.573015828e-03,-3.600361263e-03,1.487123463e-03,-2.113237800e-03,-1.985731230e-03,1.802080692e-04,-1.805523161e-03,-2.103152008e-03,3.329283887e-04,-1.770223619e-03,-1.029194435e-03,-4.957266004e-04,-1.524921036e-03
-4.4,7.416867793e-04,3.739789470e-04,1.115665726e-03,-1.146356385e-03,-1.793181128e-04,-1.325674498e-03,-3.037993820e-04,1.278946574e-04,-1.759047246e-04,-1.505393114e-03,-1.809119730e-04,-1.686305087e-03,-1.287541481e-03,1.259050534e-04,-1.161636427e-03,-1.560560287e-03,-2.183602793e-04,-1.778920567e-03,-7.036922738e-04,8.656005505e-05,-6.171322187e-04,-1.134324783e-03,3.658176641e-05,-1.097743017e-03,-6.109366507e-04,4.940557127e-05,-5.615310795e-04,-8.154513841e-04,3.455402471e-05,-7.808973594e-04,-8.572209261e-04,5.432260133e-05,-8.028983248e-04,-1.158896585e-03,1.969756351e-04,-9.619209497e-04,-2.452072100e-03,4.645418273e-04,-1.987530273e-03,-1.311383517e-03,-4.417513948e-05,-1.355558656e-03,-1.983802535e-03,1.474507997e-04,-1.836351735e-03,-1.426330618e-03,-1.167504316e-04,-1.543081049e-03,-9.664324517e-04,-4.611691882e-04,-1.427601640e-03,-1.528487146e-03,1.144706753e-04,-1.414016471e-03,-1.443684828e-03,-6.515433832e-05,-1.508839166e-03,-1.060013322e-03,-4.874942381e-05,-1.108762745e-03,-1.034108781e-03,-5.178162119e-06,-1.039286943e-03,-9.648488149e-04,-1.160288953e-04,-1.080877710e-03,-9.409184116e-04,-7.028712332e-05,-1.011205535e-03,-5.992912083e-04,-4.034256316e-05,-6.396337715e-04,-1.318090374e-03,1.715812274e-04,-1.146509147e-03,-6.223318574e-04,6.088097229e-05,-5.614508851e-04,-1.858947525e-03,-1.067192845e-05,-1.869619454e-03,-6.434972696e-04,-1.928039895e-04,-8.363012591e-04,-1.479549545e-03,7.735048109e-05,-1.402199064e-03,-1.202031480e-03,2.772679521e-04,-9.247635279e-04,-1.795413542e-03,-1.389222788e-04,-1.934335821e-03,-1.752394943e-03,1.879642248e-04,-1.564430718e-03,-3.696491345e-03,1.570449619e-03,-2.126041726e-03,-2.020307484e-03,2.022715995e-04,-1.818035884e-03,-2.114723639e-03,3.567355876e-04,-1.757988052e-03,-1.033855315e-03,-4.671045316e-04,-1.500959846e-03
-4.3,7.352373047e-04,3.448399599e-04,1.080077265e-03,-1.127929266e-03,-1.801257239e-04,-1.308054990e-03,-3.220239937e-04,1.125707060e-04,-2.094532877e-04,-1.515813400e-03,-1.766360005e-04,-1.692449400e-03,-1.266113933e-03,1.361215335e-04,-1.129992400e-03,-1.552415989e-03,-2.141202358e-04,-1.766536224e-03,-7.300590873e-04,7.267916348e-05,-6.573799238e-04,-1.165314454e-03,2.746181330e-05,-1.137852641e-03,-6.177270267e-04,4.703020898e-05,-5.706968177e-04,-8.451660171e-04,2.487305832e-05,-8.202929587e-04,-8.426627602e-04,5.580009752e-05,-7.868626626e-04,-1.125817743e-03,2.012099396e-04,-9.246078036e-04,-2.453491306e-03,4.441067331e-04,-2.009384573e-03,-1.306497926e-03,-3.373529447e-05,-1.340233220e-03,-1.992900300e-03,1.707572936e-04,-1.822143006e-03,-1.401397325e-03,-1.228035527e-04,-1.524200878e-03,-9.919560916e-04,-4.368915793e-04,-1.428847671e-03,-1.488524024e-03,1.179781191e-04,-1.370545905e-03,-1.402807377e-03,-5.846637132e-05,-1.461273748e-03,-1.062265561e-03,-5.822406050e-05,-1.120489622e-03,-1.027663326e-03,-4.357025362e-06,-1.032020351e-03,-9.712432196e-04,-1.245791806e-04,-1.095822400e-03,-9.119510152e-04,-6.953887736e-05,-9.814898925e-04,-6.130492258e-04,-5.837543126e-05,-6.714246570e-04,-1.344417766e-03,1.799289606e-04,-1.164488806e-03,-6.209369439e-04,5.969479089e-05,-5.612421530e-04,-1.888360048e-03,5.092655024e-06,-1.883267393e-03,-6.030083768e-04,-2.552324182e-04,-8.582407949e-04,-1.487916947e-03,8.274850498e-05,-1.405168442e-03,-1.162422067e-03,2.500108540e-04,-9.124112132e-04,-1.787974358e-03,-1.484949459e-04,-1.936469304e-03,-1.753603658e-03,2.050801182e-04,-1.548523539e-03,-3.767870119e-03,1.639812869e-03,-2.128057250e-03,-2.043307087e-03,2.223477038e-04,-1.820959384e-03,-2.111550114e-03,3.782472315e-04,-1.733302882e-03,-1.036077107e-03,-4.343330055e-04,-1.470410112e-03
-4.2,7.249665938e-04,3.131363081e-04,1.038102902e-03,-1.103327653e-03,-1.804314208e-04,-1.283759073e-03,-3.387798279e-04,9.610794823e-05,-2.426718796e-04,-1.517469274e-03,-1.719689021e-04,-1.689438177e-03,-1.235397553e-03,1.455365175e-04,-1.089861036e-03,-1.535099737e-03,-2.088732873e-04,-1.743973025e-03,-7.519731428e-04,5.797025640e-05,-6.940028864e-04,-1.190075533e-03,1.804898556e-05,-1.172026547e-03,-6.202893633e-04,4.427797580e-05,-5.760113875e-04,-8.697690432e-04,1.460178209e-05,-8.551672611e-04,-8.220677088e-04,5.641358467e-05,-7.656541241e-04,-1.083690879e-03,2.024539714e-04,-8.812369073e-04,-2.441633187e-03,4.214334044e-04,-2.020199783e-03,-1.293613356e-03,-2.261009033e-05,-1.316223446e-03,-1.989869711e-03,1.926272168e-04,-1.797242494e-03,-1.366915378e-03,-1.313921814e-04,-1.498307560e-03,-1.006192415e-03,-4.142022258e-04,-1.420394641e-03,-1.439686814e-03,1.213055382e-04,-1.318381276e-03,-1.352966641e-03,-5.083227944e-05,-1.403798921e-03,-1.057935838e-03,-6.751725358e-05,-1.125453091e-03,-1.013780775e-03,-3.647891065e-06,-1.017428666e-03,-9.715018709e-04,-1.327954962e-04,-1.104297367e-03,-8.761801427e-04,-6.858590740e-05,-9.447660501e-04,-6.230216712e-04,-7.682110222e-05,-6.998427734e-04,-1.362121380e-03,1.864915082e-04,-1.175629871e-03,-6.156063696e-04,5.836945522e-05,-5.572369144e-04,-1.905338029e-03,2.019550263e-05,-1.885142527e-03,-5.567442501e-04,-3.164214494e-04,-8.731656994e-04,-1.487898747e-03,8.770111409e-05,-1.400197632e-03,-1.115692261e-03,2.217162784e-04,-8.939759826e-04,-1.770024825e-03,-1.583428957e-04,-1.928367720e-03,-1.743444640e-03,2.182196984e-04,-1.525224941e-03,-3.813273608e-03,1.694726385e-03,-2.118547223e-03,-2.054004295e-03,2.401691674e-04,-1.813835128e-03,-2.092972146e-03,3.969289997e-04,-1.696043146e-03,-1.035127808e-03,-3.981385916e-04,-1.433266399e-03
-4.1,7.106176466e-04,2.789299144e-04,9.895475610e-04,-1.072565338e-03,-1.802236114e-04,-1.252788949e-03,-3.542050413e-04,7.855204801e-05,-2.756529933e-04,-1.510217566e-03,-1.669037027e-04,-1.677121269e-03,-1.195430192e-03,1.540534447e-04,-1.041376747e-03,-1.508452048e-03,-2.026497083e-04,-1.711101756e-03,-7.691961493e-04,4.247024587e-05,-7.267259034e-04,-1.208250332e-03,8.362081167e-06,-1.199888251e-03,-6.184958292e-04,4.112142747e-05,-5.773744017e-04,-8.889727646e-04,3.768127432e-06,-8.852046372e-04,-7.953792485e-04,5.612323139e-05,-7.392560171e-04,-1.032736109e-03,2.008420108e-04,-8.318940986e-04,-2.416452715e-03,3.970817475e-04,-2.019370968e-03,-1.272718593e-03,-1.084496527e-05,-1.283563558e-03,-1.974720524e-03,2.130203480e-04,-1.761700176e-03,-1.322949054e-03,-1.424284936e-04,-1.465377548e-03,-1.008885105e-03,-3.930539450e-04,-1.401939050e-03,-1.381923048e-03,1.243881306e-04,-1.257534917e-03,-1.294348846e-03,-4.226420201e-05,-1.336613048e-03,-1.046918781e-03,-7.658450325e-05,-1.123503284e-03,-9.923167867e-04,-3.055962184e-06,-9.953727489e-04,-9.654759192e-04,-1.405885103e-04,-1.106064429e-03,-8.335862111e-04,-6.741911952e-05,-9.010053306e-04,-6.290298192e-04,-9.555056072e-05,-7.245803799e-04,-1.370954504e-03,1.911683657e-04,-1.179786138e-03,-6.063843947e-04,5.697113462e-05,-5.494132600e-04,-1.909844172e-03,3.456966114e-05,-1.875274510e-03,-5.048793750e-04,-3.758886524e-04,-8.807680274e-04,-1.479475703e-03,9.219990668e-05,-1.387275796e-03,-1.061971574e-03,1.926390116e-04,-8.693325625e-04,-1.741526098e-03,-1.682885023e-04,-1.909814601e-03,-1.721802349e-03,2.273065884e-04,-1.494495761e-03,-3.831776783e-03,1.734900099e-03,-2.096876684e-03,-2.051799661e-03,2.555318087e-04,-1.796267852e-03,-2.058518751e-03,4.122790820e-04,-1.646239669e-03,-1.030214130e-03,-3.593270558e-04,-1.389541186e-03
-4,6.919731913e-04,2.423098168e-04,9.342830081e-04,-1.035702590e-03,-1.794888192e-04,-1.215191409e-03,-3.684351174e-04,5.995857138e-05,-3.084765460e-04,-1.493982688e-03,-1.614267536e-04,-1.655409442e-03,-1.146349415e-03,1.615817224e-04,-9.847676929e-04,-1.472393801e-03,-1.954864337e-04,-1.667880234e-03,-7.815213783e-04,2.623067467e-05,-7.552907036e-04,-1.219534452e-03,-1.579282757e-06,-1.221113735e-03,-6.122637572e-04,3.753625913e-05,-5.747274981e-04,-9.025303179e-04,-7.587192318e-06,-9.101175102e-04,-7.626029989e-04,5.490062117e-05,-7.077023777e-04,-9.732907860e-04,1.965552156e-04,-7.767355703e-04,-2.377993330e-03,3.715946363e-04,-2.006398694e-03,-1.243879743e-03,1.505810664e-06,-1.242373933e-03,-1.947567316e-03,2.319106733e-04,-1.715656642e-03,-1.269655609e-03,-1.557418635e-04,-1.425397473e-03,-9.999741081e-04,-3.733035270e-04,-1.373277635e-03,-1.315248738e-03,1.271578725e-04,-1.188090866e-03,-1.227192427e-03,-3.279793001e-05,-1.259990357e-03,-1.029177119e-03,-8.538205842e-05,-1.114559178e-03,-9.631936886e-04,-2.582043628e-06,-9.657757323e-04,-9.530767034e-04,-1.478692642e-04,-1.100945968e-03,-7.842178389e-04,-6.602829774e-05,-8.502461367e-04,-6.309279131e-04,-1.144242430e-04,-7.453521561e-04,-1.370761629e-03,1.938880505e-04,-1.176873579e-03,-5.933427113e-04,5.555103550e-05,-5.377916758e-04,-1.901956988e-03,4.815684659e-05,-1.853800142e-03,-4.476996950e-04,-4.331458834e-04,-8.808455784e-04,-1.462691281e-03,9.623216335e-05,-1.366459118e-03,-1.001454837e-03,1.630350935e-04,-8.384197434e-04,-1.702526397e-03,-1.781384504e-04,-1.880664847e-03,-1.688681546e-03,2.323572923e-04,-1.456324254e-03,-3.822770214e-03,1.760237686e-03,-2.062532528e-03,-2.036220198e-03,2.682898334e-04,-1.767930364e-03,-2.007917826e-03,4.238434645e-04,-1.584074362e-03,-1.020484031e-03,-3.187752387e-04,-1.339259270e-03
-3.9,6.688659771e-04,2.033935233e-04,8.722595004e-04,-9.928482230e-04,-1.782124478e-04,-1.171060671e-03,-3.816000703e-04,4.039133782e-05,-3.412087324e-04,-1.468758786e-03,-1.555173985e-04,-1.624276184e-03,-1.088395972e-03,1.680373681e-04,-9.203586036e-04,-1.426932265e-03,-1.874275148e-04,-1.614359780e-03,-7.887763973e-04,9.318021347e-06,-7.794583760e-04,-1.223684971e-03,-1.175504286e-05,-1.235440013e-03,-6.015600859e-04,3.350163388e-05,-5.680584520e-04,-9.102397501e-04,-1.941037485e-05,-9.296501249e-04,-7.238125819e-04,5.272879208e-05,-6.710837898e-04,-9.058047087e-04,1.898142856e-04,-7.159904231e-04,-2.326387572e-03,3.454863021e-04,-1.980901270e-03,-1.207243929e-03,1.437873816e-05,-1.192865190e-03,-1.908633448e-03,2.492885827e-04,-1.659344865e-03,-1.207283352e-03,-1.710745066e-04,-1.378357858e-03,-9.796079916e-04,-3.547094464e-04,-1.334317438e-03,-1.239750841e-03,1.295445573e-04,-1.110206283e-03,-1.151787185e-03,-2.248882168e-05,-1.174276007e-03,-1.004747049e-03,-9.386768461e-05,-1.098614733e-03,-9.264065536e-04,-2.222397996e-06,-9.286289516e-04,-9.342830019e-04,-1.545515074e-04,-1.088834509e-03,-7.281979284e-04,-6.440322337e-05,-7.926011517e-04,-6.286085277e-04,-1.332947798e-04,-7.619033074e-04,-1.361484915e-03,1.946114317e-04,-1.166873483e-03,-5.765813753e-04,5.414343768e-05,-5.224379376e-04,-1.881863520e-03,6.090336612e-05,-1.820960154e-03,-3.856024610e-04,-4.877063730e-04,-8.733088340e-04,-1.437651397e-03,9.978276986e-05,-1.337868627e-03,-9.344044679e-04,1.331571743e-04,-8.012472936e-04,-1.653164816e-03,-1.876841985e-04,-1.840849015e-03,-1.644200365e-03,2.334734596e-04,-1.410726905e-03,-3.785969665e-03,1.770827259e-03,-2.015142406e-03,-2.006915119e-03,2.783480542e-04,-1.728567065e-03,-1.941106163e-03,4.312302177e-04,-1.509875945e-03,-1.005037974e-03,-2.774173891e-04,-1.282455363e-03
-3.8,6.411876303e-04,1.623280926e-04,8.035157229e-04,-9.441615052e-04,-1.763795951e-04,-1.120541100e-03,-3.938224275e-04,1.992084757e-05,-3.739015799e-04,-1.434612252e-03,-1.491479071e-04,-1.583760159e-03,-1.021917282e-03,1.733436067e-04,-8.485736754e-04,-1.372166527e-03,-1.785244680e-04,-1.550690995e-03,-7.908261631e-04,-8.186178862e-06,-7.990123420e-04,-1.220528023e-03,-2.214478003e-05,-1.242672804e-03,-5.864055182e-04,2.900056358e-05,-5.574049546e-04,-9.119484234e-04,-3.163442799e-05,-9.435828513e-04,-6.791553740e-04,4.960223286e-05,-6.295531412e-04,-8.308361587e-04,1.808726644e-04,-6.499634943e-04,-2.261856558e-03,3.192337128e-04,-1.942622845e-03,-1.163043197e-03,2.770057592e-05,-1.135342621e-03,-1.858255492e-03,2.651635622e-04,-1.593091930e-03,-1.136167955e-03,-1.880808972e-04,-1.324248852e-03,-9.481457333e-04,-3.369412491e-04,-1.285086982e-03,-1.155589339e-03,1.314759250e-04,-1.024113414e-03,-1.068475914e-03,-1.140711270e-05,-1.079883026e-03,-9.737430440e-04,-1.020014506e-04,-1.075744495e-03,-8.820292567e-04,-1.968815204e-06,-8.839980719e-04,-9.091478082e-04,-1.605540366e-04,-1.069701845e-03,-6.657295050e-04,-6.253486390e-05,-7.282643689e-04,-6.220079529e-04,-1.520097053e-04,-7.740176582e-04,-1.343170846e-03,1.933343351e-04,-1.149836511e-03,-5.562319957e-04,5.276508511e-05,-5.034669106e-04,-1.849856415e-03,7.276083756e-05,-1.777095577e-03,-3.190939793e-04,-5.390942344e-04,-8.581882137e-04,-1.404525297e-03,1.028367599e-04,-1.301688537e-03,-8.611538438e-04,1.032503533e-04,-7.579034905e-04,-1.593674675e-03,-1.967025490e-04,-1.790377225e-03,-1.588583753e-03,2.308319922e-04,-1.357751761e-03,-3.721420310e-03,1.766928309e-03,-1.954492001e-03,-1.963651862e-03,2.856534673e-04,-1.677998394e-03,-1.858237108e-03,4.341210598e-04,-1.424116048e-03,-9.829515172e-04,-2.362248285e-04,-1.219176346e-03
-3.7,6.088962075e-04,1.192908980e-04,7.281871054e-04,-8.898537580e-04,-1.739758619e-04,-1.063829620e-03,-4.052152850e-04,-1.377024386e-06,-4.065923093e-04,-1.391684029e-03,-1.422836782e-04,-1.533967707e-03,-9.473697255e-04,1.774315447e-04,-7.699381808e-04,-1.308291934e-03,-1.688364411e-04,-1.477128375e-03,-7.875758776e-04,-2.618538475e-05,-8.137612624e-04,-1.209965253e-03,-3.272752248e-05,-1.242692776e-03,-5.668775298e-04,2.402031715e-05,-5.428572127e-04,-9.075569962e-04,-4.417931351e-05,-9.517363097e-04,-6.288571167e-04,4.552684584e-05,-5.833302709e-04,-7.490485472e-04,1.700106833e-04,-5.790378639e-04,-2.184705885e-03,2.932689893e-04,-1.891436896e-03,-1.111596978e-03,4.138787252e-05,-1.070209105e-03,-1.796884057e-03,2.795647258e-04,-1.517319331e-03,-1.056725114e-03,-2.063345307e-04,-1.263059644e-03,-9.061445914e-04,-3.196014945e-04,-1.225746086e-03,-1.062999798e-03,1.328779248e-04,-9.301218728e-04,-9.776559845e-04,3.661504745e-07,-9.772898340e-04,-9.363613428e-04,-1.097464565e-04,-1.046107799e-03,-8.302198103e-04,-1.808884638e-06,-8.320286949e-04,-8.778037821e-04,-1.658028999e-04,-1.043606682e-03,-5.971003049e-04,-6.041646995e-05,-6.575167748e-04,-6.111106812e-04,-1.704139081e-04,-7.815245893e-04,-1.315975723e-03,1.900889787e-04,-1.125886744e-03,-5.324621919e-04,5.141613885e-05,-4.810460531e-04,-1.806335272e-03,8.369118770e-05,-1.722644085e-03,-2.487846999e-04,-5.868557023e-04,-8.356404022e-04,-1.363546187e-03,1.053822222e-04,-1.258163965e-03,-7.821097598e-04,7.354846867e-05,-7.085612912e-04,-1.524384712e-03,-2.049574070e-04,-1.729342119e-03,-1.522160354e-03,2.246770260e-04,-1.297483328e-03,-3.629494002e-03,1.748954555e-03,-1.880539448e-03,-1.906315509e-03,2.901867668e-04,-1.616128742e-03,-1.759683352e-03,4.322811428e-04,-1.327402209e-03,-9.533071414e-04,-1.961808970e-04,-1.149488038e-03
-3.6,5.720229796e-04,7.448997085e-05,6.465129504e-04,-8.301893090e-04,-1.709881602e-04,-1.001177469e-03,-4.158795945e-04,-2.342204001e-05,-4.393016346e-04,-1.340190708e-03,-1.348837902e-04,-1.475074498e-03,-8.653181882e-04,1.802409214e-04,-6.850772668e-04,-1.235603056e-03,-1.584302282e-04,-1.394033284e-03,-7.789729501e-04,-4.456835099e-05,-8.235413011e-04,-1.191978688e-03,-4.348138565e-05,-1.235460073e-03,-5.431115258e-04,1.855282776e-05,-5.245586981e-04,-8.970222411e-04,-5.695237155e-05,-9.539746126e-04,-5.732244293e-04,4.051983912e-05,-5.327045902e-04,-6.612056206e-04,1.575298336e-04,-5.036757870e-04,-2.095321612e-03,2.679729952e-04,-1.827348617e-03,-1.053311578e-03,5.534677321e-05,-9.979648053e-04,-1.725078820e-03,2.925382747e-04,-1.432540545e-03,-9.694396642e-04,-2.253425801e-04,-1.194782244e-03,-8.543367122e-04,-3.022553023e-04,-1.156592015e-03,-9.622962743e-04,1.336759131e-04,-8.286203612e-04,-8.797797886e-04,1.274327570e-05,-8.670365129e-04,-8.928814776e-04,-1.170693370e-04,-1.009950815e-03,-7.712243279e-04,-1.726319115e-06,-7.729506470e-04,-8.404666998e-04,-1.702332673e-04,-1.010699967e-03,-5.226852503e-04,-5.804450222e-05,-5.807297525e-04,-5.959521798e-04,-1.883517638e-04,-7.843039436e-04,-1.280168071e-03,1.849438930e-04,-1.095224178e-03,-5.054797725e-04,5.008259979e-05,-4.553971727e-04,-1.751807702e-03,9.367232632e-05,-1.658135376e-03,-1.753789513e-04,-6.305723380e-04,-8.059512894e-04,-1.315010303e-03,1.074131028e-04,-1.207597200e-03,-6.977520712e-04,4.427045356e-05,-6.534816177e-04,-1.445717211e-03,-2.122032036e-04,-1.657920415e-03,-1.445363190e-03,2.153147316e-04,-1.230048458e-03,-3.510878804e-03,1.717454785e-03,-1.793424019e-03,-1.834911376e-03,2.919539971e-04,-1.542957379e-03,-1.646030935e-03,4.255675902e-04,-1.220463345e-03,-9.152290414e-04,-1.582545322e-04,-1.073483574e-03
-3.5,5.306788670e-04,2.816378140e-05,5.588426484e-04,-7.654854552e-04,-1.674055550e-04,-9.328910102e-04,-4.259002827e-04,-4.613041115e-05,-4.720306939e-04,-1.280423680e-03,-1.269019765e-04,-1.407325656e-03,-7.764319513e-04,1.817208512e-04,-5.947111001e-04,-1.154494748e-03,-1.473801427e-04,-1.301874891e-03,-7.650077951e-04,-6.320978352e-05,-8.282175786e-04,-1.166633836e-03,-5.438317998e-05,-1.221017016e-03,-5.153000580e-04,1.259507578e-05,-5.027049822e-04,-8.803584579e-04,-6.984905433e-05,-9.502075123e-04,-5.126449086e-04,3.460949797e-05,-4.780354106e-04,-5.681623192e-04,1.437455285e-04,-4.244167907e-04,-1.994171031e-03,2.436715065e-04,-1.750499525e-03,-9.886763944e-04,6.947324962e-05,-9.192031448e-04,-1.643498594e-03,3.041427309e-04,-1.339355863e-03,-8.748527646e-04,-2.445657995e-04,-1.119418564e-03,-7.936013464e-04,-2.844590441e-04,-1.078060390e-03,-8.538733392e-04,1.337966666e-04,-7.200766726e-04,-7.753544367e-04,2.563527215e-05,-7.497191645e-04,-8.436656088e-04,-1.239405153e-04,-9.676061241e-04,-7.053792735e-04,-1.701273693e-06,-7.070805472e-04,-7.974366073e-04,-1.737908651e-04,-9.712274724e-04,-4.429466034e-04,-5.541942951e-05,-4.983660329e-04,-5.766197387e-04,-2.056690178e-04,-7.822887565e-04,-1.236126722e-03,1.780020531e-04,-1.058124669e-03,-4.755351996e-04,4.873973444e-05,-4.267954651e-04,-1.686885768e-03,1.027012555e-04,-1.584184513e-03,-9.965807330e-05,-6.698753487e-04,-7.695334220e-04,-1.259273922e-03,1.089313815e-04,-1.150342541e-03,-6.086300324e-04,1.561648365e-05,-5.930135487e-04,-1.358183333e-03,-2.181896598e-04,-1.576372993e-03,-1.358731635e-03,2.031092400e-04,-1.155622395e-03,-3.366561697e-03,1.673095026e-03,-1.693466671e-03,-1.749570384e-03,2.909812274e-04,-1.458589157e-03,-1.518061726e-03,4.139347732e-04,-1.104126953e-03,-8.679156094e-04,-1.233739332e-04,-9.912895426e-04
