Time,S1D1HbO,S1D1HbR,S1D1HbT,S2D2HbO,S2D2HbR,S2D2HbT,S3D3HbO,S3D3HbR,S3D3HbT,S4D4HbO,S4D4HbR,S4D4HbT,S5D5HbO,S5D5HbR,S5D5HbT,S6D6HbO,S6D6HbR,S6D6HbT,S7D7HbO,S7D7HbR,S7D7HbT,S8D8HbO,S8D8HbR,S8D8HbT,S9D9HbO,S9D9HbR,S9D9HbT,S10D10HbO,S10D10HbR,S10D10HbT,S11D11HbO,S11D11HbR,S11D11HbT,S12D12HbO,S12D12HbR,S12D12HbT,S13D13HbO,S13D13HbR,S13D13HbT,S14D14HbO,S14D14HbR,S14D14HbT,S15D15HbO,S15D15HbR,S15D15HbT,S16D16HbO,S16D16HbR,S16D16HbT,S17D17HbO,S17D17HbR,S17D17HbT,S18D18HbO,S18D18HbR,S18D18HbT,S19D19HbO,S19D19HbR,S19D19HbT,S20D20HbO,S20D20HbR,S20D20HbT,S21D21HbO,S21D21HbR,S21D21HbT,S22D22HbO,S22D22HbR,S22D22HbT,S23D23HbO,S23D23HbR,S23D23HbT,S24D24HbO,S24D24HbR,S24D24HbT,S25D25HbO,S25D25HbR,S25D25HbT,S26D26HbO,S26D26HbR,S26D26HbT,S27D27HbO,S27D27HbR,S27D27HbT,S28D28HbO,S28D28HbR,S28D28HbT,S29D29HbO,S29D29HbR,S29D29HbT,S30D30HbO,S30D30HbR,S30D30HbT,S31D31HbO,S31D31HbR,S31D31HbT,S32D32HbO,S32D32HbR,S32D32HbT,S33D33HbO,S33D33HbR,S33D33HbT,S34D34HbO,S34D34HbR,S34D34HbT,S35D35HbO,S35D35HbR,S35D35HbT,S36D36HbO,S36D36HbR,S36D36HbT,
-10,4.339551666e-04,4.690373995e-04,9.029925661e-04,-7.970372586e-04,5.878605106e-05,-7.382512075e-04,-4.212056713e-04,2.696333272e-04,-1.515723441e-04,-5.645479591e-05,-1.416838026e-04,-1.981385986e-04,2.957172798e-04,-1.909287503e-04,1.047885295e-04,-6.604002765e-04,-2.262721035e-04,-8.866723799e-04,-4.075696615e-04,-3.709857049e-05,-4.446682320e-04,-6.373016193e-04,-1.786165672e-05,-6.551632760e-04,-3.132393008e-04,-2.715602267e-05,-3.403953235e-04,-1.951750212e-04,-3.191626584e-05,-2.270912870e-04,9.053323929e-05,-7.432589141e-05,1.620734788e-05,-1.690080015e-03,4.324671132e-04,-1.257612902e-03,-1.666536957e-03,-7.315682249e-06,-1.673852640e-03,-2.183077500e-03,1.031805709e-03,-1.151271791e-03,-1.679013348e-03,3.934831377e-04,-1.285530211e-03,-1.209225040e-03,1.892031540e-04,-1.020021886e-03,-1.369726772e-03,-2.966045707e-04,-1.666331342e-03,-6.013838538e-04,1.737802938e-04,-4.276035600e-04,-1.247984410e-03,-5.265161235e-05,-1.300636022e-03,-2.785272568e-05,-9.502574908e-06,-3.735530059e-05,8.188543162e-05,-4.317506253e-05,3.871036910e-05,-3.967959913e-05,1.538282065e-04,1.141486074e-04,-4.746022341e-04,8.604473703e-05,-3.885574971e-04,-1.917519488e-04,3.544589633e-04,1.627070145e-04,-1.650768399e-03,5.302000268e-04,-1.120568372e-03,-1.388768017e-03,6.606992964e-04,-7.280687208e-04,-2.120792241e-03,3.879768896e-04,-1.732815351e-03,-9.322563264e-04,-1.355392465e-04,-1.067795573e-03,-1.644685140e-03,8.934767614e-05,-1.555337463e-03,-4.427836996e-04,2.348281564e-04,-2.079555432e-04,-1.609043094e-03,-4.072463477e-05,-1.649767729e-03,-1.089804432e-03,3.016843195e-05,-1.059636000e-03,-2.226201827e-03,-2.057719687e-04,-2.431973795e-03,-1.170343527e-03,3.431994525e-04,-8.271440742e-04,-2.013406176e-03,1.694822205e-04,-1.843923955e-03,-6.117371126e-05,2.682578411e-04,2.070841298e-04
-9.9,4.022587658e-04,4.679802822e-04,8.702390479e-04,-8.419450424e-04,6.284584206e-05,-7.790992003e-04,-4.176960644e-04,2.889671359e-04,-1.287289285e-04,-9.565795935e-05,-1.244445767e-04,-2.201025361e-04,2.546895887e-04,-1.711710885e-04,8.351850024e-05,-6.798411133e-04,-2.204632278e-04,-9.003043412e-04,-4.110641885e-04,-3.319133252e-05,-4.442555210e-04,-6.486078109e-04,-1.152016419e-06,-6.497598273e-04,-3.110730595e-04,-2.200244481e-05,-3.330755043e-04,-2.029389668e-04,-2.777554848e-05,-2.307145153e-04,6.654963613e-05,-5.860179458e-05,7.947841550e-06,-1.686055760e-03,4.172528426e-04,-1.268802918e-03,-1.668687676e-03,2.396665347e-06,-1.666291011e-03,-2.189289484e-03,1.019283278e-03,-1.170006206e-03,-1.704118414e-03,4.042053859e-04,-1.299913029e-03,-1.209089337e-03,1.900771357e-04,-1.019012201e-03,-1.384400031e-03,-2.859402762e-04,-1.670340307e-03,-5.891079758e-04,1.703241226e-04,-4.187838532e-04,-1.198773440e-03,-4.976054560e-05,-1.248533986e-03,-3.352061916e-05,-3.562529908e-06,-3.708314907e-05,5.104847119e-05,-3.279989686e-05,1.824857432e-05,-2.874049616e-05,1.630843936e-04,1.343438974e-04,-5.012648136e-04,9.530912150e-05,-4.059556921e-04,-1.928743805e-04,3.622412662e-04,1.693668857e-04,-1.653540123e-03,5.265857468e-04,-1.126954376e-03,-1.411499425e-03,6.662263522e-04,-7.452730729e-04,-2.127467839e-03,3.856438673e-04,-1.741823971e-03,-9.783031136e-04,-1.154627075e-04,-1.093765821e-03,-1.644248815e-03,8.631894605e-05,-1.557929869e-03,-4.414409067e-04,2.255328080e-04,-2.159080987e-04,-1.613860749e-03,-2.690710046e-05,-1.640767850e-03,-1.102810347e-03,3.910319645e-05,-1.063707151e-03,-2.224795463e-03,-1.709543095e-04,-2.395749773e-03,-1.174767281e-03,3.276785271e-04,-8.470887544e-04,-2.008794976e-03,1.504272967e-04,-1.858367679e-03,-1.101404100e-04,2.624439508e-04,1.523035409e-04
-9.8,3.709840141e-04,4.666181032e-04,8.376021173e-04,-8.856859294e-04,6.693840282e-05,-8.187475266e-04,-4.118611405e-04,3.075894174e-04,-1.042717231e-04,-1.334049518e-04,-1.072978160e-04,-2.407027678e-04,2.144102324e-04,-1.512952813e-04,6.311495109e-05,-6.989884941e-04,-2.143345570e-04,-9.133230511e-04,-4.152773647e-04,-2.883187402e-05,-4.441092387e-04,-6.599289659e-04,1.590485052e-05,-6.440241154e-04,-3.105036329e-04,-1.684430350e-05,-3.273479364e-04,-2.113678986e-04,-2.341131089e-05,-2.347792095e-04,4.206786791e-05,-4.330405337e-05,-1.236185458e-06,-1.679997728e-03,4.028731217e-04,-1.277124606e-03,-1.672379308e-03,1.383868818e-05,-1.658540620e-03,-2.193303543e-03,1.006673727e-03,-1.186629816e-03,-1.728358111e-03,4.150382146e-04,-1.313319896e-03,-1.208432238e-03,1.901391684e-04,-1.018293070e-03,-1.395663179e-03,-2.745008773e-04,-1.670164057e-03,-5.776293004e-04,1.677392522e-04,-4.098900482e-04,-1.147178990e-03,-4.689005238e-05,-1.194069043e-03,-3.877290762e-05,2.088899609e-06,-3.668400801e-05,2.098875051e-05,-2.263933188e-05,-1.650581363e-06,-1.993018130e-05,1.709856663e-04,1.510554850e-04,-5.251159947e-04,1.039479521e-04,-4.211680426e-04,-1.940801833e-04,3.684578261e-04,1.743776429e-04,-1.653330018e-03,5.225146084e-04,-1.130815410e-03,-1.432195185e-03,6.714764607e-04,-7.607187242e-04,-2.133931375e-03,3.850862904e-04,-1.748845085e-03,-1.023620217e-03,-9.397104134e-05,-1.117591258e-03,-1.643337019e-03,8.427574495e-05,-1.559061274e-03,-4.398865370e-04,2.157651018e-04,-2.241214352e-04,-1.618805169e-03,-1.303957836e-05,-1.631844748e-03,-1.115370770e-03,4.726746347e-05,-1.068103307e-03,-2.225868246e-03,-1.330334453e-04,-2.358901692e-03,-1.179104483e-03,3.114861606e-04,-8.676183219e-04,-2.003407423e-03,1.302837287e-04,-1.873123694e-03,-1.584291453e-04,2.541378823e-04,9.570873698e-05
-9.7,3.403509904e-04,4.649171989e-04,8.052681894e-04,-9.277782000e-04,7.102123069e-05,-8.567569693e-04,-4.038165883e-04,3.253520844e-04,-7.846450380e-05,-1.694050251e-04,-9.031991818e-05,-2.597249433e-04,1.751511901e-04,-1.313961592e-04,4.375503096e-05,-7.175540242e-04,-2.078977510e-04,-9.254517752e-04,-4.200447619e-04,-2.404280229e-05,-4.440875642e-04,-6.709827345e-04,3.311388927e-05,-6.378688453e-04,-3.114334809e-04,-1.170021068e-05,-3.231336916e-04,-2.202704501e-04,-1.885084217e-05,-2.391212923e-04,1.729088187e-05,-2.850295854e-05,-1.121207667e-05,-1.671842070e-03,3.894332382e-04,-1.282408832e-03,-1.677495131e-03,2.709058916e-05,-1.650404542e-03,-2.194799361e-03,9.939152778e-04,-1.200884083e-03,-1.751368467e-03,4.259089861e-04,-1.325459481e-03,-1.207235903e-03,1.894191064e-04,-1.017816797e-03,-1.403088982e-03,-2.625376538e-04,-1.665626636e-03,-5.667842752e-04,1.659738528e-04,-4.008104224e-04,-1.093610531e-03,-4.397110429e-05,-1.137581635e-03,-4.340065201e-05,7.395692618e-06,-3.600495939e-05,-8.037660572e-06,-1.274724100e-05,-2.078490157e-05,-1.332738346e-05,1.773909975e-04,1.640636141e-04,-5.459259554e-04,1.119068788e-04,-4.340190765e-04,-1.954328321e-04,3.730273638e-04,1.775945317e-04,-1.649971220e-03,5.180418971e-04,-1.131929323e-03,-1.450585882e-03,6.764166123e-04,-7.741692699e-04,-2.139994758e-03,3.866048702e-04,-1.753389888e-03,-1.067716041e-03,-7.114475314e-05,-1.138860794e-03,-1.641651655e-03,8.317077808e-05,-1.558480876e-03,-4.378910877e-04,2.054974027e-04,-2.323936851e-04,-1.623705874e-03,7.837700634e-07,-1.622922104e-03,-1.127264849e-03,5.456342114e-05,-1.072701428e-03,-2.228738360e-03,-9.249959148e-05,-2.321237952e-03,-1.183063105e-03,2.947831560e-04,-8.882799485e-04,-1.997016031e-03,1.092465081e-04,-1.887769523e-03,-2.053059389e-04,2.433502284e-04,3.804428944e-05
-9.6,3.105863157e-04,4.628412234e-04,7.734275392e-04,-9.677370825e-04,7.505176320e-05,-8.926853193e-04,-3.936961448e-04,3.421078174e-04,-5.158832741e-05,-2.033697122e-04,-7.358685060e-05,-2.769565628e-04,1.371827285e-04,-1.115718742e-04,2.561085426e-05,-7.352438831e-04,-2.011669669e-04,-9.364108500e-04,-4.251892253e-04,-1.885119874e-05,-4.440404240e-04,-6.814772153e-04,5.027834317e-05,-6.311988721e-04,-3.137490503e-04,-6.590480480e-06,-3.203395307e-04,-2.294434060e-04,-1.412443693e-05,-2.435678430e-04,-7.562471745e-06,-1.426675226e-05,-2.182922401e-05,-1.661510466e-03,3.770239694e-04,-1.284486497e-03,-1.683874210e-03,4.221063836e-05,-1.641663572e-03,-2.193450779e-03,9.809443225e-04,-1.212506456e-03,-1.772778840e-03,4.367396823e-04,-1.336039157e-03,-1.205469894e-03,1.879578861e-04,-1.017512008e-03,-1.406244231e-03,-2.503523269e-04,-1.656596558e-03,-5.564000577e-04,1.649634422e-04,-3.914366155e-04,-1.038489069e-03,-4.092597457e-05,-1.079415044e-03,-4.719666356e-05,1.230587097e-05,-3.489079259e-05,-3.577781385e-05,-3.177647104e-06,-3.895546095e-05,-8.968878057e-06,1.821733650e-04,1.732044869e-04,-5.634794300e-04,1.191312526e-04,-4.443481774e-04,-1.969760215e-04,3.758788902e-04,1.789028688e-04,-1.643318515e-03,5.132294115e-04,-1.130089104e-03,-1.466398329e-03,6.810135757e-04,-7.853847535e-04,-2.145388388e-03,3.904255135e-04,-1.754962874e-03,-1.110068459e-03,-4.709298529e-05,-1.157161445e-03,-1.638869546e-03,8.293623986e-05,-1.555933306e-03,-4.352133046e-04,1.947078260e-04,-2.405054786e-04,-1.628370665e-03,1.446417542e-05,-1.613906489e-03,-1.138268468e-03,6.089740559e-05,-1.077371062e-03,-2.232719260e-03,-4.985027550e-05,-2.282569535e-03,-1.186314075e-03,2.777278591e-04,-9.085862155e-04,-1.989395872e-03,8.752562934e-05,-1.901870243e-03,-2.500434939e-04,2.301391090e-04,-1.990438493e-05
-9.5,2.819227160e-04,4.603516573e-04,7.422743733e-04,-1.005077757e-03,7.898781507e-05,-9.260899416e-04,-3.816471748e-04,3.577120790e-04,-2.393509580e-05,-2.350136379e-04,-5.717380254e-05,-2.921874404e-04,1.007738208e-04,-9.192320054e-05,8.850620273e-06,-7.517607098e-04,-1.941588355e-04,-9.459195453e-04,-4.305203331e-04,-1.328806798e-05,-4.438084011e-04,-6.911131946e-04,6.720466280e-05,-6.239085318e-04,-3.173209901e-04,-1.537191255e-06,-3.188581813e-04,-2.386717915e-04,-9.265165015e-06,-2.479369565e-04,-3.225677217e-05,-6.608653835e-07,-3.291763755e-05,-1.648902224e-03,3.657201877e-04,-1.283182036e-03,-1.691306921e-03,5.922817500e-05,-1.632078746e-03,-2.188926431e-03,9.676958567e-04,-1.221230574e-03,-1.792213511e-03,4.474475682e-04,-1.344765943e-03,-1.203087490e-03,1.858067109e-04,-1.017280780e-03,-1.404697370e-03,-2.382846445e-04,-1.642982015e-03,-5.462940867e-04,1.646321389e-04,-3.816619478e-04,-9.822251190e-04,-3.767365832e-05,-1.019898777e-03,-4.995610327e-05,1.677260408e-05,-3.318349919e-05,-6.198296694e-05,6.015767368e-06,-5.596719957e-05,-6.841093961e-06,1.852226935e-04,1.783815995e-04,-5.775780923e-04,1.255661893e-04,-4.520119030e-04,-1.987286757e-04,3.769532022e-04,1.782245264e-04,-1.633243564e-03,5.081413604e-04,-1.125102203e-03,-1.479351676e-03,6.852323101e-04,-7.941193656e-04,-2.149762817e-03,3.966927636e-04,-1.753070054e-03,-1.150128060e-03,-2.195123935e-05,-1.172079300e-03,-1.634645180e-03,8.348563258e-05,-1.551159547e-03,-4.316015272e-04,1.833810554e-04,-2.482204718e-04,-1.632585173e-03,2.789904772e-05,-1.604686126e-03,-1.148152883e-03,6.618088527e-05,-1.081971997e-03,-2.237128164e-03,-5.578100427e-06,-2.242706265e-03,-1.188488092e-03,2.604733730e-04,-9.280147187e-04,-1.980324133e-03,6.534318401e-05,-1.914980949e-03,-2.919300157e-04,2.146102609e-04,-7.731975482e-05
-9.4,2.545974190e-04,4.574084208e-04,7.120058398e-04,-1.039319555e-03,8.278784040e-05,-9.565317144e-04,-3.678268878e-04,3.720251127e-04,4.198224907e-06,-2.640563239e-04,-4.115482802e-05,-3.052111520e-04,6.619107070e-05,-7.255274647e-05,-6.361675768e-06,-7.668063926e-04,-1.868924237e-04,-9.536988163e-04,-4.358349384e-04,-7.387872299e-06,-4.432228107e-04,-6.995872858e-04,8.370735535e-05,-6.158799305e-04,-3.220052626e-04,3.435878960e-06,-3.185693836e-04,-2.477304583e-04,-4.308560243e-06,-2.520390185e-04,-5.654104686e-05,1.225276596e-05,-4.428828090e-05,-1.633891929e-03,3.555784773e-04,-1.278313452e-03,-1.699533644e-03,7.813717568e-05,-1.621396468e-03,-2.180893816e-03,9.541035944e-04,-1.226790221e-03,-1.809294836e-03,4.579458657e-04,-1.351348971e-03,-1.200023878e-03,1.830255910e-04,-1.016998287e-03,-1.398030462e-03,-2.266968869e-04,-1.624727349e-03,-5.362749299e-04,1.648939551e-04,-3.713809748e-04,-9.252035653e-04,-3.413089484e-05,-9.593344601e-04,-5.147883319e-05,2.075517266e-05,-3.072366053e-05,-8.641129131e-05,1.478011947e-05,-7.163117185e-05,-6.874440755e-06,1.864485998e-04,1.795741591e-04,-5.880443723e-04,1.311567102e-04,-4.568876621e-04,-2.006815150e-04,3.762042981e-04,1.755227831e-04,-1.619632710e-03,5.028407528e-04,-1.116791957e-03,-1.489157686e-03,6.890344351e-04,-8.001232505e-04,-2.152697019e-03,4.054660821e-04,-1.747230937e-03,-1.187325489e-03,4.121416389e-06,-1.183204072e-03,-1.628617357e-03,8.471602343e-05,-1.543901333e-03,-4.267979265e-04,1.715089045e-04,-2.552890219e-04,-1.636114815e-03,4.098349504e-05,-1.595131320e-03,-1.156685936e-03,7.033215859e-05,-1.086353778e-03,-2.241295307e-03,3.983976445e-05,-2.201455543e-03,-1.189175883e-03,2.431645173e-04,-9.460113658e-04,-1.969581000e-03,4.292970843e-05,-1.926651291e-03,-3.302786610e-04,1.969158839e-04,-1.333627771e-04
-9.3,2.288493133e-04,4.539705204e-04,6.828198337e-04,-1.069991485e-03,8.641101848e-05,-9.835804669e-04,-3.523992331e-04,3.849138923e-04,3.251465914e-05,-2.902251043e-04,-2.560247260e-05,-3.158275769e-04,3.369607804e-05,-5.356407663e-05,-1.986799859e-05,-7.800857995e-04,-1.793892508e-04,-9.594750503e-04,-4.409189402e-04,-1.188117948e-06,-4.421070582e-04,-7.065960148e-04,9.961348015e-05,-6.069825346e-04,-3.276448445e-04,8.303526384e-06,-3.193413182e-04,-2.563871077e-04,7.078662891e-07,-2.556792414e-04,-8.015137782e-05,2.441637559e-05,-5.573500223e-05,-1.616333203e-03,3.466346589e-04,-1.269698544e-03,-1.708246240e-03,9.889088898e-05,-1.609355351e-03,-2.169026137e-03,9.400999404e-04,-1.228926197e-03,-1.823647567e-03,4.681443749e-04,-1.355503192e-03,-1.196196180e-03,1.796813470e-04,-1.016514833e-03,-1.385854280e-03,-2.159582380e-04,-1.601812517e-03,-5.261447280e-04,1.656543290e-04,-3.604903990e-04,-8.677752022e-04,-3.021155014e-05,-8.979867523e-04,-5.157331059e-05,2.421976532e-05,-2.735354528e-05,-1.088319008e-04,2.306385979e-05,-8.576804099e-05,-8.940732693e-06,1.857829665e-04,1.768422338e-04,-5.947262899e-04,1.358480148e-04,-4.588782752e-04,-2.027952856e-04,3.736006754e-04,1.708053898e-04,-1.602387786e-03,4.973866518e-04,-1.105001134e-03,-1.495525216e-03,6.923769942e-04,-8.031482217e-04,-2.153711075e-03,4.167188261e-04,-1.736992249e-03,-1.221082808e-03,3.094557632e-05,-1.190137231e-03,-1.620418835e-03,8.651058537e-05,-1.533908250e-03,-4.205454774e-04,1.590909528e-04,-2.614545246e-04,-1.638709240e-03,5.361296223e-05,-1.585096278e-03,-1.163636360e-03,7.327923688e-05,-1.090357123e-03,-2.244574327e-03,8.594967726e-05,-2.158624649e-03,-1.187933967e-03,2.259359082e-04,-9.619980588e-04,-1.956951674e-03,2.051886158e-05,-1.936432813e-03,-3.644367163e-04,1.772508121e-04,-1.871859042e-04
-9.2,2.049151616e-04,4.499966801e-04,6.549118416e-04,-1.096638710e-03,8.981703365e-05,-1.006821676e-03,-3.355322482e-04,3.962540415e-04,6.072179336e-05,-3.132589216e-04,-1.058736246e-05,-3.238462840e-04,3.541664523e-06,-3.506074948e-05,-3.151908496e-05,-7.913112013e-04,-1.716733480e-04,-9.629845494e-04,-4.455501040e-04,5.271074197e-06,-4.402790299e-04,-7.118406362e-04,1.147662328e-04,-5.970744035e-04,-3.340716695e-04,1.303960893e-05,-3.210320605e-04,-2.644063164e-04,5.745298569e-06,-2.586610178e-04,-1.028147129e-04,3.577706727e-05,-6.703764562e-05,-1.596067003e-03,3.389020015e-04,-1.257165002e-03,-1.717091786e-03,1.213979597e-04,-1.595693826e-03,-2.153010623e-03,9.256160651e-04,-1.227394558e-03,-1.834903795e-03,4.779502244e-04,-1.356953570e-03,-1.191505034e-03,1.758454036e-04,-1.015659630e-03,-1.367824849e-03,-2.064304426e-04,-1.574255292e-03,-5.157029389e-04,1.668120697e-04,-3.488908692e-04,-8.102560630e-04,-2.582458429e-05,-8.360806473e-04,-5.006128811e-05,2.714002612e-05,-2.292126199e-05,-1.290294904e-04,3.081735104e-05,-9.821213934e-05,-1.285361536e-05,1.831821944e-04,1.703285791e-04,-5.975025196e-04,1.395859074e-04,-4.579166122e-04,-2.050005226e-04,3.691264277e-04,1.641259050e-04,-1.581429165e-03,4.918319436e-04,-1.089597222e-03,-1.498167585e-03,6.952114090e-04,-8.029561755e-04,-2.152283155e-03,4.303412707e-04,-1.721941885e-03,-1.250827907e-03,5.832501611e-05,-1.192502891e-03,-1.609687217e-03,8.874127800e-05,-1.520945939e-03,-4.125968434e-04,1.461356901e-04,-2.664611534e-04,-1.640108561e-03,6.568671697e-05,-1.574421844e-03,-1.168779991e-03,7.496353148e-05,-1.093816460e-03,-2.246351739e-03,1.323255962e-04,-2.114026143e-03,-1.184295800e-03,2.089112993e-04,-9.753845010e-04,-1.942228912e-03,-1.659594492e-06,-1.943888506e-03,-3.937941782e-04,1.558453970e-04,-2.379487812e-04
-9.1,1.830252895e-04,4.454460475e-04,6.284713370e-04,-1.118829349e-03,9.296555561e-05,-1.025863794e-03,-3.173954948e-04,4.059317680e-04,8.853627328e-05,-3.329125317e-04,3.822262554e-06,-3.290902691e-04,-2.403231101e-05,-1.714527808e-05,-4.117758909e-05,-8.002069895e-04,-1.637712856e-04,-9.639782751e-04,-4.495014854e-04,1.194743314e-05,-4.375540523e-04,-7.150323558e-04,1.290272775e-04,-5.860050783e-04,-3.411084640e-04,1.761765084e-05,-3.234908132e-04,-2.715538748e-04,1.076437003e-05,-2.607895048e-04,-1.242532793e-04,4.628748079e-05,-7.796579850e-05,-1.572931271e-03,3.323702353e-04,-1.240561036e-03,-1.725677834e-03,1.455205709e-04,-1.580157263e-03,-2.132556660e-03,9.105822315e-04,-1.221974428e-03,-1.842707843e-03,4.872688165e-04,-1.355439027e-03,-1.185837124e-03,1.715916030e-04,-1.014245521e-03,-1.343660891e-03,-1.984540076e-04,-1.542114898e-03,-5.047506838e-04,1.682618185e-04,-3.364888654e-04,-7.529344113e-04,-2.086932156e-05,-7.738037329e-04,-4.678225070e-05,2.949730533e-05,-1.728494537e-05,-1.468086707e-04,3.799342080e-05,-1.088152499e-04,-1.837137961e-05,1.786288846e-04,1.602575050e-04,-5.962867366e-04,1.423173988e-04,-4.539693378e-04,-2.071984835e-04,3.627820967e-04,1.555836131e-04,-1.556699613e-03,4.862208899e-04,-1.070478723e-03,-1.496810870e-03,6.974825213e-04,-7.993283485e-04,-2.147870899e-03,4.461480259e-04,-1.701722873e-03,-1.276010096e-03,8.605043185e-05,-1.189959664e-03,-1.596075054e-03,9.127150300e-05,-1.504803551e-03,-4.027233191e-04,1.326619821e-04,-2.700613369e-04,-1.640050134e-03,7.711140876e-05,-1.562938725e-03,-1.171905961e-03,7.534330091e-05,-1.096562660e-03,-2.246053112e-03,1.785682306e-04,-2.067484881e-03,-1.177785864e-03,1.922031853e-04,-9.855826789e-04,-1.925215407e-03,-2.338744268e-05,-1.948602849e-03,-4.177916830e-04,1.329553781e-04,-2.848363050e-04
-9,1.633993106e-04,4.402790514e-04,6.036783620e-04,-1.136160985e-03,9.581563744e-05,-1.040345348e-03,-2.981571599e-04,4.138458041e-04,1.156886442e-04,-3.489605134e-04,1.756104666e-05,-3.313994667e-04,-4.880266891e-05,8.195361057e-08,-4.872071530e-05,-8.065141785e-04,-1.557121183e-04,-9.622262968e-04,-4.525448357e-04,1.879700131e-05,-4.337478344e-04,-7.158971941e-04,1.422777420e-04,-5.736194521e-04,-3.485701548e-04,2.201142917e-05,-3.265587256e-04,-2.776006599e-04,1.572587325e-05,-2.618747866e-04,-1.441888621e-04,5.590632031e-05,-8.828254176e-05,-1.546768520e-03,3.270050777e-04,-1.219763442e-03,-1.733578697e-03,1.710754205e-04,-1.562503277e-03,-2.107402006e-03,8.949283855e-04,-1.212473620e-03,-1.846720350e-03,4.960047091e-04,-1.350715640e-03,-1.179067890e-03,1.669940648e-04,-1.012073825e-03,-1.313161646e-03,-1.923337354e-04,-1.505495381e-03,-4.930948731e-04,1.698970193e-04,-3.231978538e-04,-6.960803996e-04,-1.522880133e-05,-7.113092009e-04,-4.159650220e-05,3.128065560e-05,-1.031584660e-05,-1.619971005e-04,4.454792912e-05,-1.174491714e-04,-2.520118897e-05,1.721327582e-04,1.469315693e-04,-5.910303799e-04,1.439914962e-04,-4.470388837e-04,-2.092627458e-04,3.545852683e-04,1.453225225e-04,-1.528167334e-03,4.805862203e-04,-1.047581113e-03,-1.491201228e-03,6.991279594e-04,-7.920732681e-04,-2.139934418e-03,4.638878085e-04,-1.676046610e-03,-1.296114684e-03,1.139034972e-04,-1.182211186e-03,-1.579257382e-03,9.395858359e-05,-1.485298798e-03,-3.907216210e-04,1.187001336e-04,-2.720214874e-04,-1.638274581e-03,8.780408367e-05,-1.550470497e-03,-1.172821433e-03,7.439598949e-05,-1.098425444e-03,-2.243145614e-03,2.243009694e-04,-2.018844645e-03,-1.167933683e-03,1.759116893e-04,-9.920219935e-04,-1.905725470e-03,-4.446496946e-05,-1.950190440e-03,-4.359273317e-04,1.088498980e-04,-3.270774337e-04
-8.9,1.462425534e-04,4.344583040e-04,5.807008574e-04,-1.148266310e-03,9.832525497e-05,-1.049941055e-03,-2.779804893e-04,4.199092715e-04,1.419287823e-04,-3.612005115e-04,3.056699062e-05,-3.306335208e-04,-7.056539261e-05,1.652375061e-05,-5.404164200e-05,-8.099941614e-04,-1.475272731e-04,-9.575214345e-04,-4.544533968e-04,2.577456961e-05,-4.286788271e-04,-7.141795871e-04,1.544179480e-04,-5.597616392e-04,-3.562647018e-04,2.619545447e-05,-3.300692474e-04,-2.823254850e-04,2.059137807e-05,-2.617341069e-04,-1.623463624e-04,6.459869020e-05,-9.774767221e-05,-1.517429076e-03,3.227478156e-04,-1.194681260e-03,-1.740342711e-03,1.978382107e-04,-1.542504500e-03,-2.077316045e-03,8.785849279e-04,-1.198731117e-03,-1.846621227e-03,5.040622905e-04,-1.342558936e-03,-1.171063781e-03,1.621251340e-04,-1.008938647e-03,-1.276223334e-03,-1.883238982e-04,-1.464547232e-03,-4.805512237e-04,1.716130454e-04,-3.089381783e-04,-6.399503490e-04,-8.765884509e-06,-6.487162335e-04,-3.438634140e-05,3.248667781e-05,-1.899663587e-06,-1.744469119e-04,5.044045591e-05,-1.240064560e-04,-3.300392858e-05,1.637307434e-04,1.307268149e-04,-5.817234399e-04,1.445601427e-04,-4.371632972e-04,-2.110410964e-04,3.445708641e-04,1.335297678e-04,-1.495826845e-03,4.749460495e-04,-1.020880796e-03,-1.481109771e-03,7.000781865e-04,-7.810315847e-04,-2.127956787e-03,4.832536098e-04,-1.644703177e-03,-1.310674424e-03,1.416611042e-04,-1.169013320e-03,-1.558935917e-03,9.665608837e-05,-1.462279829e-03,-3.764173795e-04,1.042920935e-04,-2.721252860e-04,-1.634530007e-03,9.769447205e-05,-1.536835535e-03,-1.171354349e-03,7.211926925e-05,-1.099235080e-03,-2.237137927e-03,2.691657312e-04,-1.967972196e-03,-1.154286617e-03,1.601231132e-04,-9.941635035e-04,-1.883585682e-03,-6.471648195e-05,-1.948302164e-03,-4.477618171e-04,8.379973908e-05,-3.639620780e-04
-8.8,1.317435634e-04,4.279493825e-04,5.596929459e-04,-1.154817649e-03,1.004510517e-04,-1.054366597e-03,-2.570195917e-04,4.240513465e-04,1.670317548e-04,-3.694554650e-04,4.278187439e-05,-3.266735906e-04,-8.913667750e-05,3.208707771e-05,-5.704959979e-05,-8.104314411e-04,-1.392504138e-04,-9.496818549e-04,-4.550038663e-04,3.283410991e-05,-4.221697564e-04,-7.096447882e-04,1.653663135e-04,-5.442784747e-04,-3.639936268e-04,3.014533087e-05,-3.338482959e-04,-2.855169681e-04,2.532377923e-05,-2.601931889e-04,-1.784566244e-04,7.233625895e-05,-1.061203655e-04,-1.484769609e-03,3.195143653e-04,-1.165255243e-03,-1.745500147e-03,2.255509805e-04,-1.519949167e-03,-2.042100593e-03,8.614835592e-04,-1.180617034e-03,-1.842112074e-03,5.113464695e-04,-1.330765604e-03,-1.161683916e-03,1.570535699e-04,-1.004630346e-03,-1.232852074e-03,-1.866152965e-04,-1.419467370e-03,-4.669454460e-04,1.733097232e-04,-2.936357228e-04,-5.847820045e-04,-1.326286715e-06,-5.861082912e-04,-2.505566531e-05,3.311922195e-05,8.063556645e-06,-1.840347095e-04,5.563509007e-05,-1.283996194e-04,-4.139965643e-05,1.534862391e-04,1.120865827e-04,-5.683936778e-04,1.439792063e-04,-4.244144715e-04,-2.123578067e-04,3.327910062e-04,1.204331995e-04,-1.459696992e-03,4.693009376e-04,-9.903960543e-04,-1.466334609e-03,7.002573243e-04,-7.660772848e-04,-2.111460797e-03,5.038937348e-04,-1.607567062e-03,-1.319276753e-03,1.690993876e-04,-1.150177365e-03,-1.534840872e-03,9.921623639e-05,-1.435624635e-03,-3.596659004e-04,8.949074907e-05,-2.701751513e-04,-1.628574241e-03,1.067265484e-04,-1.521847693e-03,-1.167354454e-03,6.853105438e-05,-1.098823400e-03,-2.227578545e-03,3.128208156e-04,-1.914757730e-03,-1.136422185e-03,1.449095540e-04,-9.915126309e-04,-1.858634728e-03,-8.399432697e-05,-1.942629055e-03,-4.529221225e-04,5.806817250e-05,-3.948539500e-04
-8.7,1.200723889e-04,4.207214866e-04,5.407938755e-04,-1.155530574e-03,1.021482603e-04,-1.053382314e-03,-2.354152041e-04,4.262186107e-04,1.908034066e-04,-3.735750871e-04,5.415165939e-05,-3.194234277e-04,-1.043531578e-04,4.668392905e-05,-5.766922874e-05,-8.076355513e-04,-1.309172748e-04,-9.385528261e-04,-4.539779029e-04,3.992924480e-05,-4.140486581e-04,-7.020813938e-04,1.750582641e-04,-5.270231298e-04,-3.715528321e-04,3.383801438e-05,-3.377148177e-04,-2.869750448e-04,2.988777622e-05,-2.570872686e-04,-1.922591519e-04,7.909728839e-05,-1.131618635e-04,-1.448649179e-03,3.171937926e-04,-1.131455386e-03,-1.748570993e-03,2.539300432e-04,-1.494640950e-03,-2.001590111e-03,8.435581207e-04,-1.158031990e-03,-1.832918915e-03,5.177635421e-04,-1.315155373e-03,-1.150781480e-03,1.518431028e-04,-9.989383774e-04,-1.183171798e-03,-1.873275571e-04,-1.370499355e-03,-4.521128124e-04,1.748926705e-04,-2.772201419e-04,-5.307858185e-04,7.253432576e-06,-5.235323859e-04,-1.352897771e-05,3.318879417e-05,1.965981647e-05,-1.906610791e-04,6.010113024e-05,-1.305599489e-04,-4.997430314e-05,1.414875938e-04,9.151329064e-05,-5.511052216e-04,1.422094193e-04,-4.088958023e-04,-2.130167888e-04,3.193143651e-04,1.062975763e-04,-1.419816859e-03,4.636314911e-04,-9.561853674e-04,-1.446701182e-03,6.995845448e-04,-7.471166372e-04,-2.090023802e-03,5.254249909e-04,-1.564598811e-03,-1.321567880e-03,1.959973499e-04,-1.125570530e-03,-1.506732471e-03,1.014925995e-04,-1.405239871e-03,-3.403518994e-04,7.435835542e-05,-2.659935440e-04,-1.620175974e-03,1.148593112e-04,-1.505316663e-03,-1.160693393e-03,6.366871108e-05,-1.097024681e-03,-2.214053793e-03,3.549409729e-04,-1.859112820e-03,-1.113960146e-03,1.303296446e-04,-9.836305015e-04,-1.830723230e-03,-1.021815365e-04,-1.932904766e-03,-4.511052283e-04,3.190589301e-05,-4.191993353e-04
-8.6,1.113789763e-04,4.127481134e-04,5.241270897e-04,-1.150167118e-03,1.033708098e-04,-1.046796309e-03,-2.132912786e-04,4.263760018e-04,2.130847232e-04,-3.734371687e-04,6.462691132e-05,-3.088102574e-04,-1.160723240e-04,6.023213434e-05,-5.584018967e-05,-8.014426845e-04,-1.225654526e-04,-9.240081371e-04,-4.511638405e-04,4.701373539e-05,-4.041501051e-04,-6.913053528e-04,1.834458586e-04,-5.078594942e-04,-3.787342096e-04,3.725199164e-05,-3.414822180e-04,-2.865128589e-04,3.425024216e-05,-2.522626167e-04,-2.035054314e-04,8.486653996e-05,-1.186388914e-04,-1.408926652e-03,3.156475113e-04,-1.093279141e-03,-1.749072435e-03,2.826724386e-04,-1.466399996e-03,-1.955653090e-03,8.247453874e-04,-1.130907702e-03,-1.818795546e-03,5.232219722e-04,-1.295573574e-03,-1.138205484e-03,1.465513649e-04,-9.916541192e-04,-1.127426861e-03,-1.905083682e-04,-1.317935229e-03,-4.358975389e-04,1.762736946e-04,-2.596238442e-04,-4.781401741e-04,1.713831317e-05,-4.610018609e-04,2.491471491e-07,3.271163402e-05,3.296078117e-05,-1.942505450e-04,6.381352229e-05,-1.304370228e-04,-5.828816960e-05,1.278459168e-04,6.955774718e-05,-5.299573826e-04,1.392172269e-04,-3.907401558e-04,-2.128060581e-04,3.042250526e-04,9.141899453e-05,-1.376241816e-03,4.578973579e-04,-9.183444583e-04,-1.422062852e-03,6.979757102e-04,-7.240871422e-04,-2.063291305e-03,5.474469932e-04,-1.515844312e-03,-1.317256091e-03,2.221402489e-04,-1.095115842e-03,-1.474403807e-03,1.033431063e-04,-1.371060701e-03,-3.183899331e-04,5.896436075e-05,-2.594255724e-04,-1.609115973e-03,1.220666202e-04,-1.487049353e-03,-1.151264555e-03,5.758739395e-05,-1.093677161e-03,-2.196187175e-03,3.952189306e-04,-1.800968244e-03,-1.086573510e-03,1.164287739e-04,-9.701447360e-04,-1.799714574e-03,-1.191929207e-04,-1.918907494e-03,-4.420829412e-04,5.549228094e-06,-4.365337131e-04
-8.5,1.057911869e-04,4.040078407e-04,5.097990276e-04,-1.138538988e-03,1.040716779e-04,-1.034467310e-03,-1.907530056e-04,4.245073060e-04,2.337543004e-04,-3.689491526e-04,7.416325167e-05,-2.947859010e-04,-1.241738359e-04,7.265613802e-05,-5.151769784e-05,-7.917174557e-04,-1.142341620e-04,-9.059516177e-04,-4.463590817e-04,5.404192195e-05,-3.923171598e-04,-6.771655308e-04,1.904981740e-04,-4.866673568e-04,-3.853281201e-04,4.036741712e-05,-3.449607030e-04,-2.839594052e-04,3.838045941e-05,-2.455789458e-04,-2.119631106e-04,8.963508219e-05,-1.223280284e-04,-1.365462599e-03,3.147106680e-04,-1.050751931e-03,-1.746526862e-03,3.114603927e-04,-1.435066470e-03,-1.904195308e-03,8.049857870e-04,-1.099209521e-03,-1.799526997e-03,5.276325195e-04,-1.271894477e-03,-1.123803294e-03,1.412291039e-04,-9.825741901e-04,-1.065980910e-03,-1.961371275e-04,-1.262118037e-03,-4.181536836e-04,1.773711623e-04,-2.407825212e-04,-4.269921321e-04,2.848893747e-05,-3.985031946e-04,1.631343567e-05,3.170874002e-05,4.802217570e-05,-1.947524177e-04,6.675305183e-05,-1.279993658e-04,-6.588616165e-05,1.126925168e-04,4.680635510e-05,-5.050840706e-04,1.349755559e-04,-3.701085147e-04,-2.115035209e-04,2.876212618e-04,7.611774088e-05,-1.329041997e-03,4.520386117e-04,-8.770033851e-04,-1.392303065e-03,6.953449644e-04,-6.969581009e-04,-2.030987077e-03,5.695543008e-04,-1.461432776e-03,-1.306116042e-03,2.473229873e-04,-1.058793055e-03,-1.437685446e-03,1.046332242e-04,-1.333052222e-03,-2.937263399e-04,4.338310090e-05,-2.503432390e-04,-1.595188951e-03,1.283359003e-04,-1.466853051e-03,-1.138982931e-03,5.035742865e-05,-1.088625502e-03,-2.173640996e-03,4.333672996e-04,-1.740273697e-03,-1.053998216e-03,1.032382621e-04,-9.507599541e-04,-1.765487319e-03,-1.349742918e-04,-1.900461611e-03,-4.257074707e-04,-2.078082834e-05,-4.464882991e-04
-8.4,1.034123536e-04,3.944851696e-04,4.978975232e-04,-1.120510840e-03,1.042035382e-04,-1.016307301e-03,-1.678863707e-04,4.206151828e-04,2.527288121e-04,-3.600500773e-04,8.272181187e-05,-2.773282655e-04,-1.285618423e-04,8.388775591e-05,-4.467408635e-05,-7.783549490e-04,-1.059639473e-04,-8.843188963e-04,-4.393732350e-04,6.096910535e-05,-3.784041296e-04,-6.595495845e-04,1.962018638e-04,-4.633477207e-04,-3.911264678e-04,4.316627604e-05,-3.479601918e-04,-2.791628620e-04,4.225028488e-05,-2.369125771e-04,-2.174207585e-04,9.340007407e-05,-1.240206845e-04,-1.318126400e-03,3.141959504e-04,-1.003930450e-03,-1.740471101e-03,3.399643551e-04,-1.400506746e-03,-1.847164505e-03,7.842240357e-04,-1.062940469e-03,-1.774932477e-03,5.309073926e-04,-1.244025084e-03,-1.107424040e-03,1.359195797e-04,-9.715044606e-04,-9.993134979e-04,-2.041296372e-04,-1.203443135e-03,-3.987482415e-04,1.781109908e-04,-2.206372507e-04,-3.774591854e-04,4.145332700e-05,-3.360058584e-04,3.467601652e-05,3.020521324e-05,6.488122976e-05,-1.921424163e-04,6.890643756e-05,-1.232359788e-04,-7.230914456e-05,9.617633244e-05,2.386718788e-05,-4.766537322e-04,1.294645158e-04,-3.471892164e-04,-2.088836917e-04,2.696138462e-04,6.073015448e-05,-1.278303970e-03,4.459797001e-04,-8.323242698e-04,-1.357339270e-03,6.916061097e-04,-6.657331602e-04,-1.992918011e-03,5.913442319e-04,-1.401573779e-03,-1.287994740e-03,2.713536116e-04,-1.016641129e-03,-1.396451147e-03,1.052391177e-04,-1.291212030e-03,-2.663423077e-04,2.769174911e-05,-2.386505586e-04,-1.578206010e-03,1.336657944e-04,-1.444540215e-03,-1.123784974e-03,4.206105679e-05,-1.081723917e-03,-2.146120134e-03,4.691199582e-04,-1.677000175e-03,-1.016041789e-03,9.077536420e-05,-9.252664244e-04,-1.727939031e-03,-1.494998001e-04,-1.877438831e-03,-4.019170291e-04,-4.687988187e-05,-4.487969109e-04
-8.3,1.043186246e-04,3.841712989e-04,4.884899235e-04,-1.096003441e-03,1.037196884e-04,-9.922837528e-04,-1.447589177e-04,4.147207853e-04,2.699618676e-04,-3.467126764e-04,9.026965827e-05,-2.564430182e-04,-1.291679192e-04,9.386689395e-05,-3.530102525e-05,-7.612829009e-04,-9.779630866e-05,-8.590792096e-04,-4.300317185e-04,6.775193244e-05,-3.622797860e-04,-6.383886135e-04,2.005610980e-04,-4.378275155e-04,-3.959259271e-04,4.563262715e-05,-3.502933000e-04,-2.719942007e-04,4.583435154e-05,-2.261598491e-04,-2.196926460e-04,9.616460503e-05,-1.235280410e-04,-1.266806941e-03,3.138989290e-04,-9.529080119e-04,-1.730466719e-03,3.678453687e-04,-1.362621351e-03,-1.784555230e-03,7.624096974e-04,-1.022145532e-03,-1.744867614e-03,5.329588777e-04,-1.211908736e-03,-1.088922834e-03,1.306582609e-04,-9.582645728e-04,-9.280130255e-04,-2.143446943e-04,-1.142357720e-03,-3.775656107e-04,1.784279791e-04,-1.991376315e-04,-3.296289720e-04,5.615495723e-05,-2.734740148e-04,5.532384449e-05,2.823004686e-05,8.355389135e-05,-1.864244915e-04,7.026640239e-05,-1.161580891e-04,-7.710542172e-05,7.846151801e-05,1.356096292e-06,-4.448693396e-04,1.226720214e-04,-3.221973182e-04,-2.047246594e-04,2.503249118e-04,4.560025239e-05,-1.224134438e-03,4.396348661e-04,-7.844995715e-04,-1.317127905e-03,6.866737899e-04,-6.304541155e-04,-1.948974563e-03,6.124213713e-04,-1.336553192e-03,-1.262818517e-03,2.940565857e-04,-9.687619317e-04,-1.350623315e-03,1.050504121e-04,-1.245572903e-03,-2.362570298e-04,1.196876937e-05,-2.242882604e-04,-1.557997301e-03,1.380632578e-04,-1.419934043e-03,-1.105628462e-03,3.278909799e-05,-1.072839364e-03,-2.113377621e-03,5.022332205e-04,-1.611144401e-03,-9.725904218e-04,7.904574093e-05,-8.935446809e-04,-1.686990762e-03,-1.627679842e-04,-1.849758746e-03,-3.707413187e-04,-7.256062307e-05,-4.433019418e-04
-8.2,1.085565523e-04,3.730647274e-04,4.816212797e-04,-1.064996293e-03,1.025751892e-04,-9.624211039e-04,-1.214211359e-04,4.068630934e-04,2.854419575e-04,-3.289451820e-04,9.678017290e-05,-2.321650091e-04,-1.259538726e-04,1.025422137e-04,-2.341165881e-05,-7.404636401e-04,-8.977323043e-05,-8.302368705e-04,-4.181792882e-04,7.434882161e-05,-3.438304666e-04,-6.136597068e-04,2.035964526e-04,-4.100632542e-04,-3.995308401e-04,4.775289977e-05,-3.517779404e-04,-2.623504162e-04,4.911033962e-05,-2.132400766e-04,-2.186228631e-04,9.793759791e-05,-1.206852652e-04,-1.211423696e-03,3.136041527e-04,-8.978195430e-04,-1.716110735e-03,3.947575648e-04,-1.321353170e-03,-1.716412213e-03,7.394977152e-04,-9.769144976e-04,-1.709226235e-03,5.336983922e-04,-1.175527843e-03,-1.068165501e-03,1.254730770e-04,-9.426924242e-04,-8.527634269e-04,-2.265952839e-04,-1.079358711e-03,-3.545118049e-04,1.782667184e-04,-1.762450864e-04,-2.835567713e-04,7.267799920e-05,-2.108787721e-04,7.821653651e-05,2.581616120e-05,1.040326977e-04,-1.776319830e-04,7.083168864e-05,-1.068002944e-04,-7.984111383e-05,5.972508791e-05,-2.011602591e-05,-4.099676691e-04,1.145943262e-04,-2.953733429e-04,-1.988144809e-04,2.298864216e-04,3.107194070e-05,-1.166663902e-03,4.329135289e-04,-7.337503733e-04,-1.271668999e-03,6.804646420e-04,-5.912043574e-04,-1.899128362e-03,6.324015153e-04,-1.266726847e-03,-1.230598460e-03,3.152748353e-04,-9.153236242e-04,-1.300176421e-03,1.039721584e-04,-1.196204263e-03,-2.035296602e-04,-3.707100762e-06,-2.072367609e-04,-1.534414334e-03,1.415407548e-04,-1.392873579e-03,-1.084492113e-03,2.263789174e-05,-1.061854221e-03,-2.075221512e-03,5.324879125e-04,-1.542733600e-03,-9.236132839e-04,6.804746577e-05,-8.555658181e-04,-1.642591088e-03,-1.747976446e-04,-1.817388732e-03,-3.323066042e-04,-9.765167625e-05,-4.299582805e-04
-8.1,1.161414604e-04,3.611716607e-04,4.773131212e-04,-1.027529054e-03,1.007280721e-04,-9.268009823e-04,-9.790782846e-05,3.970980676e-04,2.991902391e-04,-3.067922745e-04,1.022333792e-04,-2.045588953e-04,-1.189135084e-04,1.098717236e-04,-9.041784876e-06,-7.158953013e-04,-8.193667589e-05,-7.978319772e-04,-4.036828231e-04,8.072037196e-05,-3.229624512e-04,-5.853862830e-04,2.053431252e-04,-3.800431578e-04,-4.017554056e-04,4.951614053e-05,-3.522392651e-04,-2.501566791e-04,5.205924449e-05,-1.980974346e-04,-2.140881208e-04,9.873369947e-05,-1.153544213e-04,-1.151934502e-03,3.130916742e-04,-8.388428276e-04,-1.697045585e-03,4.203513146e-04,-1.276694271e-03,-1.642830944e-03,7.154490131e-04,-9.273819307e-04,-1.667941753e-03,5.330365627e-04,-1.134905190e-03,-1.045033114e-03,1.203852494e-04,-9.246478649e-04,-7.743244679e-04,-2.406631627e-04,-1.014987631e-03,-3.295171726e-04,1.775818163e-04,-1.519353563e-04,-2.392602061e-04,9.105109743e-05,-1.482091087e-04,1.032857164e-04,2.300035081e-05,1.262860673e-04,-1.658273275e-04,7.060700765e-05,-9.522031984e-05,-8.010837739e-05,4.015451253e-05,-3.995386486e-05,-3.722171716e-04,1.052364581e-04,-2.669807134e-04,-1.909563124e-04,2.084388207e-04,1.748250835e-05,-1.106048666e-03,4.257249016e-04,-6.803237643e-04,-1.221008522e-03,6.728986134e-04,-5.481099086e-04,-1.843427802e-03,6.509172816e-04,-1.192510520e-03,-1.191430853e-03,3.348697967e-04,-8.565610563e-04,-1.245137015e-03,1.019259735e-04,-1.143211042e-03,-1.682587030e-04,-1.925770087e-05,-1.875164038e-04,-1.507331332e-03,1.441140708e-04,-1.363217261e-03,-1.060374451e-03,1.170663897e-05,-1.048667812e-03,-2.031520561e-03,5.596920253e-04,-1.471828536e-03,-8.691637495e-04,5.777468850e-05,-8.113890610e-04,-1.594718821e-03,-1.856242269e-04,-1.780343048e-03,-2.868394636e-04,-1.219955158e-04,-4.088349794e-04
-8,1.270569702e-04,3.485062811e-04,4.755632513e-04,-9.837011416e-04,9.814038666e-05,-8.855607550e-04,-7.423905527e-05,3.854976624e-04,3.112586072e-04,-2.803347752e-04,1.066161881e-04,-1.737185871e-04,-1.080727778e-04,1.158232510e-04,7.750473224e-06,-6.876119634e-04,-7.432814648e-05,-7.619401099e-04,-3.864328910e-04,8.682966308e-05,-2.996032280e-04,-5.536365349e-04,2.058493608e-04,-3.477871741e-04,-4.024251208e-04,5.091411559e-05,-3.515110052e-04,-2.353670563e-04,5.466555162e-05,-1.807015046e-04,-2.059989874e-04,9.857308561e-05,-1.074259018e-04,-1.088337689e-03,3.121436370e-04,-7.761940517e-04,-1.672967098e-03,4.442769607e-04,-1.228690137e-03,-1.563955298e-03,6.902311989e-04,-8.737240993e-04,-1.620987846e-03,5.308842190e-04,-1.090103627e-03,-1.019425420e-03,1.154104361e-04,-9.040149836e-04,-6.935079878e-04,-2.563120630e-04,-9.498200508e-04,-3.025372473e-04,1.763378351e-04,-1.261994122e-04,-1.967120518e-04,1.112323648e-04,-8.547968703e-05,1.304363105e-04,1.982293534e-05,1.502592458e-04,-1.511001290e-04,6.960300386e-05,-8.149712514e-05,-7.753121722e-05,1.994529482e-05,-5.758592239e-05,-3.319143363e-04,9.461254367e-05,-2.373017927e-04,-1.809721333e-04,1.861296799e-04,5.157546581e-06,-1.042470480e-03,4.179821941e-04,-6.244882862e-04,-1.165237308e-03,6.639005916e-04,-5.013367161e-04,-1.781991845e-03,6.676256978e-04,-1.114366148e-03,-1.145490999e-03,3.527201388e-04,-7.927708598e-04,-1.185580466e-03,9.885085694e-05,-1.086729609e-03,-1.305782579e-04,-3.460664100e-05,-1.651848989e-04,-1.476645395e-03,1.458008495e-04,-1.330844545e-03,-1.033291677e-03,9.521191805e-08,-1.033196465e-03,-1.982204770e-03,5.836816000e-04,-1.398523170e-03,-8.093782039e-04,4.822029850e-05,-7.611579054e-04,-1.543384065e-03,-1.952964091e-04,-1.738680474e-03,-2.346683594e-04,-1.454463420e-04,-3.801147014e-04
-7.9,1.412557118e-04,3.350909298e-04,4.763466416e-04,-9.336694167e-04,9.477885679e-05,-8.388905599e-04,-5.042076134e-05,3.721486553e-04,3.217278940e-04,-2.496881502e-04,1.099225491e-04,-1.397656012e-04,-9.348848020e-05,1.203747451e-04,2.688626492e-05,-6.556827446e-04,-6.698833276e-05,-7.226710774e-04,-3.663441810e-04,9.264241361e-05,-2.737017674e-04,-5.185205221e-04,2.051756528e-04,-3.133448692e-04,-4.013778969e-04,5.194126512e-05,-3.494366318e-04,-2.179641018e-04,5.691730074e-05,-1.610468010e-04,-1.943000329e-04,9.748117685e-05,-9.681885602e-05,-1.020669775e-03,3.105504795e-04,-7.101192960e-04,-1.643629959e-03,4.661889253e-04,-1.177441034e-03,-1.479973543e-03,6.638192800e-04,-8.161542629e-04,-1.568378204e-03,5.271538202e-04,-1.041224384e-03,-9.912629369e-04,1.105600213e-04,-8.807029156e-04,-6.111517388e-04,-2.732965421e-04,-8.844482809e-04,-2.735520099e-04,1.745093456e-04,-9.904266426e-05,-1.558350648e-04,1.331002003e-04,-2.273486457e-05,1.595492617e-04,1.632705294e-05,1.758763146e-04,-1.335642606e-04,6.783627874e-05,-6.572798184e-05,-7.176972817e-05,-7.014205925e-07,-7.247114876e-05,-2.893792744e-04,8.274596753e-05,-2.066333069e-04,-1.687055877e-04,1.631122759e-04,-5.593311816e-06,-9.761342324e-04,4.096069252e-04,-5.665273072e-04,-1.104487205e-03,6.534023481e-04,-4.510848568e-04,-1.715001668e-03,6.822160719e-04,-1.032785596e-03,-1.093022227e-03,3.687207389e-04,-7.243014884e-04,-1.121626390e-03,9.470423071e-05,-1.026922159e-03,-9.065224911e-05,-4.968101722e-05,-1.403332663e-04,-1.442275731e-03,1.466195359e-04,-1.295656195e-03,-1.003275168e-03,-1.209741751e-05,-1.015372585e-03,-1.927259143e-03,6.043181783e-04,-1.322940965e-03,-7.444724458e-04,3.937741049e-05,-7.050950353e-04,-1.488627609e-03,-2.038723646e-04,-1.692499974e-03,-1.762229753e-04,-1.678677447e-04,-3.440907200e-04
-7.8,1.586608236e-04,3.209561880e-04,4.796170115e-04,-8.776446462e-04,9.061508972e-05,-7.870295565e-04,-2.644569931e-05,3.571512390e-04,3.307055397e-04,-2.150004077e-04,1.121535361e-04,-1.028468715e-04,-7.524645580e-05,1.235143955e-04,4.826793968e-05,-6.202103092e-04,-5.995678665e-05,-6.801670959e-04,-3.433554631e-04,9.812705256e-05,-2.452284106e-04,-4.801865828e-04,2.033945931e-04,-2.767919898e-04,-3.984654566e-04,5.259458745e-05,-3.458708692e-04,-1.979581152e-04,5.880607555e-05,-1.391520396e-04,-1.789698397e-04,9.548830465e-05,-8.348153502e-05,-9.490028342e-04,3.081164944e-04,-6.408863398e-04,-1.608851229e-03,4.857503899e-04,-1.123100839e-03,-1.391114680e-03,6.361962671e-04,-7.549184133e-04,-1.510165764e-03,5.217610111e-04,-9.884047532e-04,-9.604883692e-04,1.058425811e-04,-8.546457881e-04,-5.280908496e-04,-2.913676167e-04,-8.194584663e-04,-2.425641969e-04,1.720810348e-04,-7.048316206e-05,-1.165008933e-04,1.564520924e-04,3.995119913e-05,1.904845581e-04,1.255757772e-05,2.030421358e-04,-1.133550755e-04,6.532936854e-05,-4.802570699e-05,-6.252407482e-05,-2.158126878e-05,-8.410534360e-05,-2.449515881e-04,6.966932395e-05,-1.752822642e-04,-1.540247206e-04,1.395440091e-04,-1.448071155e-05,-9.072647802e-04,4.005329535e-04,-5.067318268e-04,-1.038926789e-03,6.413446388e-04,-3.975821497e-04,-1.642690650e-03,6.944164525e-04,-9.482741973e-04,-1.034324047e-03,3.827826973e-04,-6.515413494e-04,-1.053435084e-03,8.946327442e-05,-9.639718094e-04,-4.866888358e-05,-6.441333012e-05,-1.130822137e-04,-1.404162630e-03,1.465883421e-04,-1.257574288e-03,-9.703698661e-04,-2.477392899e-05,-9.951437950e-04,-1.866713770e-03,6.214844385e-04,-1.245229331e-03,-6.747357392e-04,3.123946572e-05,-6.434962734e-04,-1.430518939e-03,-2.114157272e-04,-1.641934666e-03,-1.120321263e-04,-1.891294088e-04,-3.011615351e-04
-7.7,1.791676368e-04,3.061408469e-04,4.853084837e-04,-8.158877460e-04,8.562551721e-05,-7.302622288e-04,-2.295304837e-06,3.406173916e-04,3.383220868e-04,-1.764500823e-04,1.133174212e-04,-6.313266106e-05,-5.346027924e-05,1.252406217e-04,7.178034249e-05,-5.813293390e-04,-5.327153054e-05,-6.346008695e-04,-3.174298489e-04,1.032547677e-04,-2.141750812e-04,-4.388174161e-04,2.005907016e-04,-2.382267145e-04,-3.935553517e-04,5.287353783e-05,-3.406818139e-04,-1.753868012e-04,6.032693962e-05,-1.150598616e-04,-1.600216830e-04,9.262935134e-05,-6.739233170e-05,-8.734450408e-04,3.046644632e-04,-5.687805775e-04,-1.568512415e-03,5.026387638e-04,-1.065873652e-03,-1.297646526e-03,6.073535671e-04,-6.902929584e-04,-1.446442269e-03,5.146263261e-04,-9.318159427e-04,-9.270680405e-04,1.012654098e-04,-8.258026307e-04,-4.451278573e-04,-3.102778287e-04,-7.554056860e-04,-2.095973941e-04,1.690475469e-04,-4.054984726e-05,-7.853130376e-05,1.810094154e-04,1.024781116e-04,2.230835403e-04,8.559757655e-06,2.316432979e-04,-9.062752062e-05,6.211051290e-05,-2.851700773e-05,-4.953915971e-05,-4.248922827e-05,-9.202838798e-05,-1.989872229e-04,5.542417502e-05,-1.435630479e-04,-1.368251300e-04,1.155846619e-04,-2.124046813e-05,-8.361040769e-04,3.907091812e-04,-4.453948957e-04,-9.687589206e-04,6.276792690e-04,-3.410796515e-04,-1.565335578e-03,7.039988686e-04,-8.613367090e-04,-9.697424107e-04,3.948337527e-04,-5.749086580e-04,-9.812060409e-04,8.312616874e-05,-8.980798721e-04,-4.837054184e-06,-7.874312898e-05,-8.358018316e-05,-1.362267113e-03,1.457242301e-04,-1.216542882e-03,-9.346345481e-04,-3.783852444e-05,-9.724730726e-04,-1.800635366e-03,6.350815349e-04,-1.165553831e-03,-6.005241681e-04,2.379978395e-05,-5.767243842e-04,-1.369153481e-03,-2.179917089e-04,-1.587145190e-03,-4.272086569e-05,-2.091028736e-04,-2.518237393e-04
-7.6,2.026450516e-04,2.906918407e-04,4.933368923e-04,-7.487065482e-04,7.979135560e-05,-6.689151926e-04,2.205719692e-05,3.226690979e-04,3.447262948e-04,-1.342447131e-04,1.134297578e-04,-2.081495530e-05,-2.827095031e-05,1.255620019e-04,9.729105164e-05,-5.392052671e-04,-4.696859815e-05,-5.861738653e-04,-2.885557569e-04,1.079995300e-04,-1.805562268e-04,-3.946258436e-04,1.968595313e-04,-1.977663123e-04,-3.865335038e-04,5.277998916e-05,-3.337535147e-04,-1.503156138e-04,6.147830974e-05,-8.883730405e-05,-1.375051295e-04,8.894335232e-05,-4.856177715e-05,-7.941449961e-04,3.000389101e-04,-4.941060860e-04,-1.522560489e-03,5.165520874e-04,-1.006008402e-03,-1.199875806e-03,5.772910702e-04,-6.225847360e-04,-1.377338583e-03,5.056770247e-04,-8.716615584e-04,-8.909934995e-04,9.683568997e-05,-7.941578095e-04,-3.630048525e-04,-3.297867390e-04,-6.927915915e-04,-1.746945449e-04,1.654128836e-04,-9.281661300e-06,-4.170159525e-05,2.064263198e-04,1.647247245e-04,2.571699212e-04,4.377865634e-06,2.615477868e-04,-6.555535670e-05,5.821319378e-05,-7.342162920e-06,-3.261031572e-05,-6.322232515e-05,-9.583264087e-05,-1.518563746e-04,4.006070402e-05,-1.117956706e-04,-1.170336552e-04,9.139461052e-05,-2.563904470e-05,-7.629093604e-04,3.801005924e-04,-3.828087680e-04,-8.942210046e-04,6.123709507e-04,-2.818500538e-04,-1.483252329e-03,7.107843705e-04,-7.724679588e-04,-8.996629505e-04,4.048179352e-04,-4.948450153e-04,-9.051781975e-04,7.571281496e-05,-8.294653826e-04,4.061520758e-05,-9.261827242e-05,-5.200306483e-05,-1.316572073e-03,1.440422462e-04,-1.172529827e-03,-8.961441053e-04,-5.119617872e-05,-9.473402841e-04,-1.729122852e-03,6.450292822e-04,-1.084093569e-03,-5.222550461e-04,1.705160965e-05,-5.052034365e-04,-1.304649988e-03,-2.236640003e-04,-1.528313988e-03,3.099414039e-05,-2.276579450e-04,-1.966638046e-04
-7.5,2.289364225e-04,2.746642019e-04,5.036006244e-04,-6.764533177e-04,7.309876693e-05,-6.033545507e-04,4.664263940e-05,3.034364792e-04,3.500791186e-04,-8.861983776e-05,1.125134465e-04,2.389360873e-05,1.525107608e-07,1.244971709e-04,1.246496817e-04,-4.940332597e-04,-4.108155787e-05,-5.351148176e-04,-2.567485304e-04,1.123380624e-04,-1.444104681e-04,-3.478505456e-04,1.923060110e-04,-1.555445346e-04,-3.773068953e-04,5.231827834e-05,-3.249886169e-04,-1.228386020e-04,6.226178839e-05,-6.057681363e-05,-1.115082823e-04,8.447305577e-05,-2.703522655e-05,-7.112982338e-04,2.941077745e-04,-4.171904593e-04,-1.471009168e-03,5.272170320e-04,-9.437921361e-04,-1.098149625e-03,5.460169420e-04,-5.521326833e-04,-1.303025633e-03,4.948489940e-04,-8.081766391e-04,-8.522830698e-04,9.256094147e-05,-7.597221283e-04,-2.823823651e-04,-3.496656454e-04,-6.320480106e-04,-1.379171833e-04,1.611894234e-04,2.327224006e-05,-5.749723869e-06,2.323031445e-04,2.265534206e-04,2.925495852e-04,5.419292422e-08,2.926037782e-04,-3.833118506e-05,5.367560156e-05,1.534441650e-05,-1.158983353e-05,-8.358233136e-05,-9.517216490e-05,-1.039420371e-04,2.363735637e-05,-8.030468072e-05,-9.461236864e-05,6.713309191e-05,-2.747927672e-05,-6.879527924e-04,3.686883765e-04,-3.192644160e-04,-8.155873595e-04,5.953986649e-04,-2.201886946e-04,-1.396796002e-03,7.146472871e-04,-6.821487153e-04,-8.245066784e-04,4.126939352e-04,-4.118127431e-04,-8.256309367e-04,6.726490354e-05,-7.583660331e-04,8.744139534e-05,-1.059960731e-04,-1.855467775e-05,-1.267084870e-03,1.415554493e-04,-1.125529420e-03,-8.549930283e-04,-6.475184153e-05,-9.197448698e-04,-1.652305906e-03,6.512666023e-04,-1.001039303e-03,-4.404020389e-04,1.098836058e-05,-4.294136783e-04,-1.237148572e-03,-2.284931901e-04,-1.465641762e-03,1.083132740e-04,-2.446622334e-04,-1.363489594e-04
-7.4,2.578602074e-04,2.581209222e-04,5.159811295e-04,-5.995228072e-04,6.553923579e-05,-5.339835714e-04,7.149122026e-05,2.830558687e-04,3.545470890e-04,-3.983821777e-05,1.105987317e-04,7.076051393e-05,3.161208228e-05,1.220746809e-04,1.536867632e-04,-4.460372270e-04,-3.564103769e-05,-4.816782647e-04,-2.220523356e-04,1.162497778e-04,-1.058025578e-04,-2.987523327e-04,1.870427662e-04,-1.117095665e-04,-3.658059558e-04,5.149534284e-05,-3.143106129e-04,-9.307925367e-05,6.268202645e-05,-3.039722722e-05,-8.216003261e-05,7.926447231e-05,-2.895560302e-06,-6.251535790e-04,2.867627268e-04,-3.383908521e-04,-1.413941905e-03,5.343989673e-04,-8.795429374e-04,-9.928569845e-04,5.135473488e-04,-4.793096357e-04,-1.223715728e-03,4.820889633e-04,-7.416267649e-04,-8.109829804e-04,8.844872728e-05,-7.225342531e-04,-2.038278030e-04,-3.696998069e-04,-5.735276100e-04,-9.934531931e-05,1.563967382e-04,5.705141893e-05,2.960741173e-05,2.582043749e-04,2.878117867e-04,3.290098645e-04,-4.371489195e-06,3.246383753e-04,-9.166597970e-06,4.854018550e-05,3.937358753e-05,1.360640647e-05,-1.033783171e-04,-8.977191063e-05,-5.563848705e-05,6.220496729e-06,-4.941799032e-05,-6.956228048e-05,4.295653956e-05,-2.660574092e-05,-6.115222842e-04,3.564699094e-04,-2.550523748e-04,-7.331722334e-04,5.767560972e-04,-1.564161363e-04,-1.306361148e-03,7.155159635e-04,-5.908451844e-04,-7.447269601e-04,4.184325612e-04,-3.262943989e-04,-7.428846224e-04,5.784544506e-05,-6.850391774e-04,1.353776173e-04,-1.188444812e-04,1.653313606e-05,-1.213840486e-03,1.382753923e-04,-1.075565094e-03,-8.112987021e-04,-7.841019308e-05,-8.897088952e-04,-1.570344115e-03,6.537494254e-04,-9.165946894e-04,-3.554895962e-04,5.603640640e-06,-3.498859556e-04,-1.166809053e-03,-2.325371588e-04,-1.399346212e-03,1.883684091e-04,-2.599852219e-04,-7.161681288e-05
-7.3,2.892109899e-04,2.411324847e-04,5.303434746e-04,-5.183503230e-04,5.711009330e-05,-4.612402297e-04,9.662795103e-05,2.616678955e-04,3.582958465e-04,1.181124048e-05,1.077230912e-04,1.195343317e-04,6.588021721e-05,1.183328138e-04,1.842130310e-04,-3.954684893e-04,-3.067424067e-05,-4.261427299e-04,-1.845417267e-04,1.197167608e-04,-6.482496587e-05,-2.476109859e-04,1.811890644e-04,-6.642192154e-05,-3.519861964e-04,5.032089875e-05,-3.016652976e-04,-6.119063314e-05,6.274666374e-05,1.556030600e-06,-4.963142056e-05,7.336645269e-05,2.373503212e-05,-5.360167333e-04,2.779184991e-04,-2.580982342e-04,-1.351515197e-03,5.379125827e-04,-8.136026148e-04,-8.844286883e-04,4.799063991e-04,-4.045222891e-04,-1.139663853e-03,4.673572469e-04,-6.723066056e-04,-7.671675742e-04,8.450586484e-05,-6.826617094e-04,-1.278125677e-04,-3.896876901e-04,-5.175002578e-04,-5.907774565e-05,1.510605279e-04,9.198278228e-05,6.465423105e-05,2.836794582e-04,3.483336893e-04,3.663193971e-04,-8.862109285e-06,3.574572879e-04,2.170847496e-05,4.285329422e-05,6.456176918e-05,4.299344942e-05,-1.224290358e-04,-7.943558633e-05,-7.348895171e-06,-1.211595953e-05,-1.946485470e-05,-4.192590725e-05,1.901696041e-05,-2.290894684e-05,-5.339220847e-04,3.434583731e-04,-1.904637116e-04,-6.473315023e-04,5.564509130e-04,-9.088058924e-05,-1.212376462e-03,7.133674762e-04,-4.990089859e-04,-6.608062209e-04,4.220141655e-04,-2.387920554e-04,-6.572991733e-04,4.753781161e-05,-6.097613616e-04,1.841449817e-04,-1.311430637e-04,5.300191805e-05,-1.156904032e-03,1.342129442e-04,-1.022691087e-03,-7.652033717e-04,-9.207619528e-05,-8.572795670e-04,-1.483425206e-03,6.524459758e-04,-8.309792300e-04,-2.680861456e-04,8.916116419e-07,-2.671945340e-04,-1.093808727e-03,-2.358531084e-04,-1.329661835e-03,2.702426755e-04,-2.735059108e-04,-3.263235252e-06
-7.2,3.227615659e-04,2.237759722e-04,5.465375382e-04,-4.334090448e-04,4.781509408e-05,-3.855939507e-04,1.220690137e-04,2.394156673e-04,3.614846810e-04,6.601551605e-05,1.039310028e-04,1.699465189e-04,1.027007784e-04,1.133193296e-04,2.160201080e-04,-3.426035909e-04,-2.620448497e-05,-3.688080759e-04,-1.443221101e-04,1.227238171e-04,-2.159829304e-05,-1.947218148e-04,1.748700734e-04,-1.985174144e-05,-3.358287159e-04,4.880754132e-05,-2.870211746e-04,-2.735406283e-05,6.246630205e-05,3.511223922e-05,-1.413516883e-05,6.683028819e-05,5.269511936e-05,-4.442487285e-04,2.675116916e-04,-1.767370370e-04,-1.283957973e-03,5.376298912e-04,-7.463280818e-04,-7.733339712e-04,4.451263761e-04,-3.282075950e-04,-1.051167854e-03,4.506305824e-04,-6.005372721e-04,-7.209381600e-04,8.073751786e-05,-6.402006422e-04,-5.471404754e-05,-4.094381310e-04,-4.641521785e-04,-1.723236953e-05,1.452119400e-04,1.279795704e-04,9.965836547e-05,3.082843814e-04,4.079427468e-04,4.042296433e-04,-1.338326353e-05,3.908463798e-04,5.404809125e-05,3.666482557e-05,9.071291682e-05,7.651427985e-05,-1.405651568e-04,-6.405087698e-05,4.051857931e-05,-3.129100458e-05,9.227574729e-06,-1.178795711e-05,-4.539639121e-06,-1.632759623e-05,-4.554707364e-04,3.296809885e-04,-1.257897479e-04,-5.584611938e-04,5.345032241e-04,-2.395796971e-05,-1.115291446e-03,7.082169559e-04,-4.070744906e-04,-5.732511318e-04,4.234270430e-04,-1.498240888e-04,-5.692693334e-04,3.644425318e-05,-5.328250802e-04,2.334537249e-04,-1.428832235e-04,9.057050141e-05,-1.096371535e-03,1.293792379e-04,-9.669922972e-04,-7.168743212e-04,-1.056561772e-04,-8.225304984e-04,-1.391762144e-03,6.473311223e-04,-7.444310214e-04,-1.787957118e-04,-3.152358232e-06,-1.819480700e-04,-1.018338908e-03,-2.385002110e-04,-1.256839119e-03,3.529929071e-04,-2.851210727e-04,6.787183438e-05
-7.1,3.582665101e-04,2.061338789e-04,5.644003891e-04,-3.452058776e-04,3.766492936e-05,-3.075409482e-04,1.478195843e-04,2.164430994e-04,3.642626837e-04,1.224409086e-04,9.927358135e-05,2.217144899e-04,1.417921207e-04,1.070911104e-04,2.488832311e-04,-2.877408541e-04,-2.225084536e-05,-3.099916994e-04,-1.015284991e-04,1.252585353e-04,2.373003629e-05,-1.403908520e-04,1.682154857e-04,2.782463372e-05,-3.173395072e-04,4.697063969e-05,-2.703688675e-04,8.224088722e-06,6.185440244e-05,7.007849116e-05,2.407713076e-05,5.970929273e-05,8.378642349e-05,-3.502584228e-04,2.554994964e-04,-9.475892638e-05,-1.211563752e-03,5.334834213e-04,-6.780803310e-04,-6.600732356e-04,4.092481201e-04,-2.508251155e-04,-9.585663804e-04,4.319042886e-04,-5.266620918e-04,-6.724203890e-04,7.714653432e-05,-5.952738547e-04,1.518106020e-05,-4.287662022e-04,-4.135851420e-04,2.605417735e-05,1.388871495e-04,1.649413268e-04,1.348572790e-04,3.316014953e-04,4.664587743e-04,4.424784717e-04,-1.790300304e-05,4.245754687e-04,8.759454473e-05,3.002787117e-05,1.176224159e-04,1.140399884e-04,-1.576312831e-04,-4.359129470e-05,8.755622147e-05,-5.121713779e-05,3.633908368e-05,2.072600484e-05,-2.757473952e-05,-6.848734672e-06,-3.764946012e-04,3.151752282e-04,-6.131937303e-05,-4.669918115e-04,5.109439502e-04,4.395213869e-05,-1.015557836e-03,7.001055218e-04,-3.154523137e-04,-4.825854165e-04,4.226672159e-04,-5.991820060e-05,-4.792165354e-04,2.468388739e-05,-4.545326480e-04,2.830088063e-04,-1.540671260e-04,1.289416803e-04,-1.032368723e-03,1.237867367e-04,-9.085819866e-04,-6.665024327e-04,-1.190589099e-04,-7.855613426e-04,-1.295589541e-03,6.383813256e-04,-6.572082154e-04,-8.824669290e-05,-6.532500793e-06,-9.477919369e-05,-9.406003837e-04,-2.405419439e-04,-1.181142328e-03,4.356715561e-04,-2.947506388e-04,1.409209173e-04
-7,3.954670916e-04,1.882928146e-04,5.837599062e-04,-2.542756707e-04,2.667757553e-05,-2.275980952e-04,1.738730708e-04,1.928933417e-04,3.667664125e-04,1.807377779e-04,9.380807894e-05,2.745458568e-04,1.828520844e-04,9.971364532e-05,2.825657297e-04,-2.311957443e-04,-1.882793082e-05,-2.500236751e-04,-5.632260784e-05,1.273113018e-04,7.098869396e-05,-8.492845349e-05,1.613570244e-04,7.642857091e-05,-2.965480087e-04,4.482799355e-05,-2.517200152e-04,4.531717221e-05,6.092704258e-05,1.062442148e-04,6.471978475e-05,5.205835189e-05,1.167781366e-04,-2.544907171e-04,2.418584377e-04,-1.263227939e-05,-1.134676535e-03,5.254650912e-04,-6.092114441e-04,-5.451682640e-04,3.723214015e-04,-1.728468624e-04,-8.622345477e-04,4.111934163e-04,-4.510411313e-04,-6.217603992e-04,7.373311637e-05,-5.480272828e-04,8.167285144e-05,-4.474875744e-04,-3.658147229e-04,7.062819862e-05,1.321268050e-04,2.027550036e-04,1.704509464e-04,3.532545248e-04,5.237054712e-04,4.807951688e-04,-2.239143920e-05,4.584037296e-04,1.220837929e-04,2.299840873e-05,1.450822016e-04,1.553725302e-04,-1.734876584e-04,-1.811512825e-05,1.333628272e-04,-7.180115187e-05,6.156167534e-05,5.545224323e-05,-4.995869521e-05,5.493548023e-06,-2.973173195e-04,2.999834391e-04,2.666119618e-06,-3.733790798e-04,4.858135153e-04,1.124344354e-04,-9.136119581e-04,6.890914799e-04,-2.245204782e-04,-3.893400720e-04,4.197387316e-04,3.039865959e-05,-3.875790716e-04,1.239013111e-05,-3.751889405e-04,3.325157521e-04,-1.647053574e-04,1.678103948e-04,-9.650485173e-04,1.174505812e-04,-8.475979361e-04,-6.142998457e-04,-1.321962131e-04,-7.464960588e-04,-1.195159743e-03,6.255710733e-04,-5.695886695e-04,2.922757214e-06,-9.255790421e-06,-6.333033207e-06,-8.607989380e-04,-2.420473720e-04,-1.102846310e-03,5.173462788e-04,-3.023382064e-04,2.150080724e-04
-6.9,4.340968258e-04,1.703421932e-04,6.044390190e-04,-1.611744465e-04,1.487842914e-05,-1.462960173e-04,2.002110453e-04,1.689072201e-04,3.691182654e-04,2.405458632e-04,8.759726715e-05,3.281431303e-04,2.255637144e-04,9.126033521e-05,3.168240496e-04,-1.732956824e-04,-1.594575869e-05,-1.892414411e-04,-8.889103253e-06,1.288752756e-04,1.199861724e-04,-2.864224199e-05,1.544250689e-04,1.257828269e-04,-2.735056521e-04,4.239935862e-05,-2.311062935e-04,8.368349467e-05,5.970256899e-05,1.433860637e-04,1.074785482e-04,4.393348400e-05,1.514120322e-04,-1.574139515e-04,2.265829191e-04,6.916896763e-05,-1.053674796e-03,5.136230961e-04,-5.400517000e-04,-4.291526069e-04,3.344051700e-04,-9.474743688e-05,-7.625786249e-04,3.885330561e-04,-3.740455689e-04,-5.691202877e-04,7.049448481e-05,-4.986258029e-04,1.446422334e-04,-4.654111391e-04,-3.207689057e-04,1.163215457e-04,1.249750489e-04,2.412965945e-04,2.066008071e-04,3.729165361e-04,5.795173432e-04,5.189055436e-04,-2.682029039e-05,4.920852532e-04,1.572506797e-04,1.563502899e-05,1.728857086e-04,2.002487048e-04,-1.880115525e-04,1.223715239e-05,1.775490255e-04,-9.294513881e-05,8.460388673e-05,9.219181197e-05,-7.157203285e-05,2.061977913e-05,-2.182476497e-04,2.841468748e-04,6.589922512e-05,-2.780935945e-04,4.591609460e-04,1.810673515e-04,-8.098626439e-04,6.752464298e-04,-1.346162141e-04,-2.940425640e-04,4.146531138e-04,1.206105497e-04,-2.948032257e-04,-2.924590214e-07,-2.950956848e-04,3.816851513e-04,-1.748140172e-04,2.068711341e-04,-8.945884886e-04,1.103900652e-04,-7.841984233e-04,-5.604977469e-04,-1.449830309e-04,-7.054807778e-04,-1.090738994e-03,6.088715321e-04,-4.818674615e-04,9.408072637e-05,-1.133577518e-05,8.274495119e-05,-7.791429146e-04,-2.430904324e-04,-1.022233347e-03,5.971170314e-04,-3.078472475e-04,2.892697838e-04
-6.8,4.738866791e-04,1.523729021e-04,6.262595812e-04,-6.647265001e-05,2.300212862e-06,-6.417243715e-05,2.268029665e-04,1.446216671e-04,3.714246336e-04,3.014992144e-04,8.070876017e-05,3.822079746e-04,2.696003218e-04,8.181166475e-05,3.514119866e-04,-1.143751220e-04,-1.360965920e-05,-1.279847812e-04,4.056790516e-05,1.299463832e-04,1.705142884e-04,2.816920866e-05,1.475448171e-04,1.757140257e-04,-2.482849270e-04,3.970600706e-05,-2.085789199e-04,1.230708760e-04,5.820121808e-05,1.812720941e-04,1.520157639e-04,3.539147967e-05,1.874072436e-04,-5.950987189e-05,2.096835224e-04,1.501736505e-04,-9.689578308e-04,4.980586637e-04,-4.708991671e-04,-3.125644367e-04,2.955675683e-04,-1.699686834e-05,-6.600311001e-04,3.639780108e-04,-2.960530893e-04,-5.146738340e-04,6.742417136e-05,-4.472496627e-04,2.040413725e-04,-4.823301144e-04,-2.782887418e-04,1.629542467e-04,1.174780703e-04,2.804323170e-04,2.434336354e-04,3.903101640e-04,6.337437994e-04,5.565359519e-04,-3.116258763e-05,5.253733643e-04,1.928327915e-04,7.998572404e-06,2.008313639e-04,2.483441020e-04,-2.010983667e-04,4.724573536e-05,2.197408086e-04,-1.145476952e-04,1.051931134e-04,1.307129256e-04,-9.230663921e-05,3.840628636e-05,-1.395689011e-04,2.677000706e-04,1.281311696e-04,-1.816124107e-04,4.310433444e-04,2.494309337e-04,-7.046848987e-04,6.586538640e-04,-4.603103467e-05,-1.972086307e-04,4.074279892e-04,2.102193584e-04,-2.013373551e-04,-1.321185271e-05,-2.145492078e-04,4.302345808e-04,-1.844119643e-04,2.458226165e-04,-8.211891548e-04,1.026296688e-04,-7.185594859e-04,-5.053449898e-04,-1.573373846e-04,-6.626823744e-04,-9.826054549e-04,5.882530662e-04,-3.943523887e-04,1.846161584e-04,-1.279548731e-05,1.718206711e-04,-6.958442210e-04,-2.437468061e-04,-9.395910271e-04,6.741304925e-04,-3.112552675e-04,3.628752250e-04
-6.7,5.145690908e-04,1.344759530e-04,6.490450438e-04,2.925076951e-05,-1.101731618e-05,1.823345334e-05,2.536051354e-04,1.201682019e-04,3.737733373e-04,3.632300110e-04,7.321435728e-05,4.364443683e-04,3.146290330e-04,7.145433429e-05,3.860833673e-04,-5.477147999e-05,-1.182017792e-05,-6.659165792e-05,9.182736537e-05,1.305233650e-04,2.223507304e-04,8.522093675e-05,1.408322205e-04,2.260531573e-04,-2.209790254e-04,3.677042957e-05,-1.842085958e-04,1.632198860e-04,5.644474603e-05,2.196646321e-04,1.979744579e-04,2.648964888e-05,2.244641068e-04,3.873163758e-05,1.911854555e-04,2.299170930e-04,-8.809358647e-04,4.789226246e-04,-4.020132401e-04,-1.959427792e-04,2.558856545e-04,5.994287533e-05,-5.550467345e-04,3.376020119e-04,-2.174447226e-04,-4.586035933e-04,6.451105019e-05,-3.940925431e-04,2.598815062e-04,-4.980126833e-04,-2.381311772e-04,2.103362643e-04,1.096823952e-04,3.200186594e-04,2.810476584e-04,4.052010335e-04,6.862486919e-04,5.934156122e-04,-3.539260033e-05,5.580230118e-04,2.285724815e-04,1.515705185e-07,2.287240520e-04,2.992763749e-04,-2.126624350e-04,8.661393988e-05,2.595809742e-04,-1.365052261e-04,1.230757481e-04,1.707524215e-04,-1.120667681e-04,5.868565345e-05,-6.153238558e-05,2.506660925e-04,1.891337069e-04,-8.441429803e-05,4.015256175e-04,3.171113195e-04,-5.984182561e-04,6.394073005e-04,4.098904437e-05,-9.934035430e-05,3.980865873e-04,2.987462330e-04,-1.076294563e-04,-2.621255207e-05,-1.338420083e-04,4.778875104e-04,-1.935184651e-04,2.843690453e-04,-7.450735606e-04,9.419929261e-05,-6.508742680e-04,-4.491075639e-04,-1.691807551e-04,-6.182883189e-04,-8.710518984e-04,5.636937991e-04,-3.073580993e-04,2.739510165e-04,-1.367028912e-05,2.602807273e-04,-6.111222588e-04,-2.440894011e-04,-8.552116598e-04,7.475909898e-04,-3.125482756e-04,4.350427142e-04
-6.6,5.558803923e-04,1.167411586e-04,6.726215510e-04,1.254129878e-04,-2.502775261e-05,1.003852352e-04,2.805588509e-04,9.567155700e-05,3.762304079e-04,4.253709865e-04,6.518943554e-05,4.905604221e-04,3.603126381e-04,6.028043476e-05,4.205930729e-04,5.177855341e-06,-1.057301575e-05,-5.395160414e-06,1.446525205e-04,1.306078543e-04,2.752603748e-04,1.422441413e-04,1.343897794e-04,2.766339208e-04,-1.917018428e-04,3.361619883e-05,-1.580856439e-04,2.038656827e-04,5.445609797e-05,2.583217807e-04,2.449813666e-04,1.728566640e-05,2.622670330e-04,1.368125310e-04,1.711277610e-04,3.079402920e-04,-7.900233146e-04,4.564109204e-04,-3.336123942e-04,-7.982681071e-05,2.154448989e-04,1.356180882e-04,-4.480994483e-04,3.094966506e-04,-1.386027977e-04,-4.011000100e-04,6.173852396e-05,-3.393614861e-04,3.122224824e-04,-5.121961730e-04,-1.999736906e-04,2.582679223e-04,1.016332706e-04,3.599011929e-04,3.195195053e-04,4.173868747e-04,7.369063801e-04,6.292771171e-04,-3.948580256e-05,5.897913145e-04,2.642172111e-04,-7.842457371e-06,2.563747538e-04,3.526078344e-04,-2.226373895e-04,1.299704448e-04,2.967288189e-04,-1.587132097e-04,1.380156092e-04,2.120164912e-04,-1.307697805e-04,8.124671070e-05,1.564438637e-05,2.330527817e-04,2.486971681e-04,1.302134762e-05,3.706802423e-04,3.837015900e-04,-4.913705021e-04,6.176076654e-04,1.262371634e-04,-9.312012106e-07,3.866593035e-04,3.857281022e-04,-1.412764266e-05,-3.913966036e-05,-5.326730301e-05,5.243696381e-04,-2.021512366e-04,3.222184015e-04,-6.664884123e-04,8.513397326e-05,-5.813544390e-04,-3.920685522e-04,-1.804390130e-04,-5.725075652e-04,-7.563937469e-04,5.351941500e-04,-2.211995969e-04,3.615495006e-04,-1.401192709e-05,3.475375736e-04,-5.252091074e-04,-2.441841295e-04,-7.693932369e-04,8.167678231e-04,-3.117173927e-04,5.050504304e-04
-6.5,5.975616637e-04,9.925584910e-05,6.968175128e-04,2.214304989e-04,-3.967843804e-05,1.817520609e-04,3.075881822e-04,7.124852922e-05,3.788367114e-04,4.875565616e-04,5.671235262e-05,5.442689142e-04,4.063100628e-04,4.838670071e-05,4.546967635e-04,6.513752000e-05,-9.859078881e-06,5.527844112e-05,1.987910991e-04,1.302044338e-04,3.289955329e-04,1.989870024e-04,1.283024910e-04,3.272894934e-04,-1.605880101e-04,3.026797885e-05,-1.303200313e-04,2.447387694e-04,5.225916677e-05,2.969979362e-04,2.926492849e-04,7.837516299e-06,3.004868012e-04,2.342229364e-04,1.495633851e-04,3.837863215e-04,-6.966350090e-04,4.307592998e-04,-2.658757093e-04,3.524292982e-05,1.743385742e-04,2.095815041e-04,-3.396796626e-04,2.797701139e-04,-5.990954872e-05,-3.423621852e-04,5.908406699e-05,-2.832781182e-04,3.611681463e-04,-5.245902181e-04,-1.634220718e-04,3.065391476e-04,9.337342062e-05,3.999125682e-04,3.589124786e-04,4.266857243e-04,7.855982029e-04,6.638556427e-04,-4.341876393e-05,6.204368788e-04,2.995187610e-04,-1.591969588e-05,2.835990651e-04,4.078478873e-04,-2.309759779e-04,1.768719094e-04,3.308588022e-04,-1.810673258e-04,1.497914764e-04,2.541811886e-04,-1.483465688e-04,1.058346197e-04,9.177551070e-05,2.148501528e-04,3.066256635e-04,1.102128819e-04,3.385870083e-04,4.487998901e-04,-3.838271979e-04,5.933609540e-04,2.095337560e-04,9.752471855e-05,3.731865582e-04,4.707112767e-04,7.871759204e-05,-5.184256012e-05,2.687503192e-05,5.694038761e-04,-2.103249059e-04,3.590789702e-04,-5.857064944e-04,7.547346995e-05,-5.102330245e-04,-3.345281263e-04,-1.910434426e-04,-5.255715689e-04,-6.389793261e-04,5.027936078e-04,-1.361857183e-04,4.469227784e-04,-1.389260541e-05,4.330301730e-04,-4.383545190e-04,-2.440870449e-04,-6.824415639e-04,8.810004452e-04,-3.087586656e-04,5.722417795e-04
-6.4,6.393583895e-04,8.210362075e-05,7.214620103e-04,3.167210862e-04,-5.491087553e-05,2.618102107e-04,3.345980187e-04,4.700712223e-05,3.816051409e-04,5.494230886e-04,4.786379503e-05,5.972868836e-04,4.522761675e-04,3.587383071e-05,4.881499983e-04,1.247754744e-04,-9.664649670e-06,1.151108247e-04,2.539750298e-04,1.293206292e-04,3.832956590e-04,2.552141853e-04,1.226347523e-04,3.778489376e-04,-1.277925831e-04,2.675165446e-05,-1.010409286e-04,2.855653123e-04,4.987865556e-05,3.354439679e-04,3.405793815e-04,-1.796443983e-06,3.387829375e-04,3.304372874e-04,1.265594006e-04,4.569966881e-04,-6.011857468e-04,4.022383899e-04,-1.989473569e-04,1.487230693e-04,1.326671345e-04,2.813902038e-04,-2.302918570e-04,2.485458981e-04,1.825404111e-05,-2.825991391e-04,5.651904297e-05,-2.260800961e-04,4.068665628e-04,-5.348897486e-04,-1.280231858e-04,3.549282387e-04,8.494221494e-05,4.398704536e-04,3.992842613e-04,4.329276696e-04,8.322119309e-04,6.968879084e-04,-4.716909959e-05,6.497188088e-04,3.342321390e-04,-2.401662081e-05,3.102155181e-04,4.644562551e-04,-2.376493840e-04,2.268068710e-04,3.616591552e-04,-2.034644290e-04,1.581947262e-04,2.968934170e-04,-1.647416752e-04,1.321517418e-04,1.667016916e-04,1.960293803e-04,3.627310719e-04,2.066735135e-04,3.053329390e-04,5.120064525e-04,-2.760650581e-04,5.667765964e-04,2.907115384e-04,1.955230046e-04,3.577216170e-04,5.532446216e-04,1.704509408e-04,-6.417783174e-05,1.062731091e-04,6.127057800e-04,-2.180499940e-04,3.946557860e-04,-5.030293235e-04,6.526180856e-05,-4.377675149e-04,-2.768028888e-04,-2.009314099e-04,-4.777342987e-04,-5.191978299e-04,4.665842806e-04,-5.261354927e-05,5.296284423e-04,-1.340659445e-05,5.162218479e-04,-3.508299346e-04,-2.438429837e-04,-5.946729182e-04,9.397036446e-04,-3.036763627e-04,6.360272819e-04
-6.3,6.810194811e-04,6.536318294e-05,7.463826640e-04,4.107051718e-04,-7.066118344e-05,3.400439883e-04,3.614730773e-04,2.304603333e-05,3.845191107e-04,6.106088588e-04,3.872604100e-05,6.493348998e-04,4.978618462e-04,2.284584892e-05,5.207076951e-04,1.837641068e-04,-9.971618785e-06,1.737924880e-04,3.099204605e-04,1.279668288e-04,4.378872893e-04,3.107055283e-04,1.174290154e-04,4.281345437e-04,-9.348997845e-05,2.309450296e-05,-7.039547549e-05,3.260679155e-04,4.733996848e-05,3.734078840e-04,3.883642718e-04,-1.155732062e-05,3.768069511e-04,4.249141069e-04,1.021965369e-04,5.271106438e-04,-5.040921970e-04,3.711494854e-04,-1.329427116e-04,2.600675860e-04,9.053766244e-05,3.506052484e-04,-1.204518645e-04,2.159616450e-04,9.550978052e-05,-2.220303188e-04,5.400873080e-05,-1.680215880e-04,4.495106201e-04,-5.427930591e-04,-9.328243903e-05,4.032011086e-04,7.637520087e-05,4.795763095e-04,4.406890758e-04,4.359545569e-04,8.766436327e-04,7.281121278e-04,-5.071558482e-05,6.773965430e-04,3.681152071e-04,-3.207051669e-05,3.360446904e-04,5.218481409e-04,-2.426462665e-04,2.792018744e-04,3.888315737e-04,-2.258033831e-04,1.630281906e-04,3.397731780e-04,-1.799131588e-04,1.598600192e-04,2.402835019e-04,1.765437858e-04,4.168272877e-04,3.019091238e-04,2.710125901e-04,5.729217139e-04,-1.683660576e-04,5.379669438e-04,3.696008862e-04,2.925418780e-04,3.403331491e-04,6.328750270e-04,2.606118192e-04,-7.601137889e-05,1.846004403e-04,6.539814667e-04,-2.253324173e-04,4.286490495e-04,-4.187887254e-04,5.454696258e-05,-3.642417628e-04,-2.192235372e-04,-2.100467545e-04,-4.292702916e-04,-3.974823118e-04,4.267171098e-04,2.923479802e-05,6.092667568e-04,-1.266869686e-05,5.965980599e-04,-2.629310563e-04,-2.434850951e-04,-5.064161515e-04,9.923741119e-04,-2.964894224e-04,6.958846896e-04
-6.2,7.222964082e-04,4.910741414e-05,7.714038224e-04,5.028074791e-04,-8.686055828e-05,4.159469208e-04,3.880784370e-04,-5.455110242e-07,3.875329260e-04,6.707546537e-04,2.938214479e-05,7.001367985e-04,5.427154614e-04,9.409477836e-06,5.521249393e-04,2.417817913e-04,-1.075774129e-05,2.310240500e-04,3.663288921e-04,1.261561283e-04,4.924850204e-04,3.652548488e-04,1.127061236e-04,4.779609724e-04,-5.787181744e-05,1.932525884e-05,-3.854655860e-05,3.659677704e-04,4.466900052e-05,4.106367709e-04,4.355926102e-04,-2.138551806e-05,4.142070921e-04,5.171023496e-04,7.656784283e-05,5.936701924e-04,-4.057743876e-04,3.378201334e-04,-6.795425415e-05,3.687314313e-04,4.806343661e-05,4.167948679e-04,-1.068274114e-05,1.821677783e-04,1.714850372e-04,-1.608844297e-04,5.151269191e-05,-1.093717377e-04,4.893361769e-04,-5.480199113e-04,-5.868373443e-05,4.511118652e-04,6.770398182e-05,5.188158470e-04,4.831720157e-04,4.356284339e-04,9.188004496e-04,7.572699117e-04,-5.403830185e-05,7.032316099e-04,4.009299798e-04,-4.001997318e-05,3.609100066e-04,5.794023281e-04,-2.459717045e-04,3.334306236e-04,4.120930124e-04,-2.479857566e-04,1.641072559e-04,3.824177097e-04,-1.938322755e-04,1.885854343e-04,3.123942142e-04,1.563319373e-04,4.687261515e-04,3.954191030e-04,2.357287159e-04,6.311478189e-04,-6.102872867e-05,5.070481602e-04,4.460194315e-04,3.880397008e-04,3.211079619e-04,7.091476627e-04,3.487377921e-04,-8.721988740e-05,2.615179047e-04,6.929294870e-04,-2.321731254e-04,4.607563616e-04,-3.333461485e-04,4.338106464e-05,-2.899650839e-04,-1.621298967e-04,-2.183402526e-04,-3.804701493e-04,-2.743077332e-04,3.834002299e-04,1.090924967e-04,6.854773662e-04,-1.181128137e-05,6.736660848e-04,-1.749782646e-04,-2.430343739e-04,-4.180126385e-04,1.038598153e-03,-2.872399913e-04,7.513581619e-04
-6.1,7.629432177e-04,3.340261262e-05,7.963458303e-04,5.924599493e-04,-1.034357458e-04,4.890242035e-04,4.142618727e-04,-2.368764938e-05,3.905742233e-04,7.295054498e-04,1.991504745e-05,7.494204972e-04,5.864862965e-04,-4.326533855e-06,5.821597626e-04,2.985154336e-04,-1.199692363e-05,2.865185099e-04,4.228899614e-04,1.239040717e-04,5.467940331e-04,4.186700165e-04,1.084664284e-04,5.271364449e-04,-2.114366509e-05,1.547392861e-05,-5.669736480e-06,4.049886189e-04,4.189173474e-05,4.468803537e-04,4.818554944e-04,-3.122068971e-05,4.506348047e-04,6.064548972e-04,4.977689829e-05,6.562317955e-04,-3.066546681e-04,3.025988632e-04,-4.055804937e-06,4.741782071e-04,5.363570865e-06,4.795417779e-04,9.849182918e-05,1.473254882e-04,2.458173174e-04,-9.939613471e-05,4.898562427e-05,-5.041051043e-05,5.266181930e-04,-5.503273609e-04,-2.370916788e-05,4.984054186e-04,5.895628448e-05,5.573617030e-04,5.267571720e-04,4.318457486e-04,9.586029207e-04,7.841103314e-04,-5.711864063e-05,7.269916908e-04,4.324458845e-04,-4.780532169e-05,3.846405629e-04,6.364722325e-04,-2.476460872e-04,3.888261453e-04,4.311798522e-04,-2.699163728e-04,1.612634794e-04,4.244075262e-04,-2.064830502e-04,2.179244760e-04,3.829139915e-04,1.353225558e-04,5.182365473e-04,4.867019072e-04,1.995930136e-04,6.862949208e-04,4.562714045e-05,4.741411911e-04,5.197683315e-04,4.814585921e-04,3.001536016e-04,7.816121937e-04,4.343722696e-04,-9.769178692e-05,3.366804826e-04,7.292465190e-04,-2.385673064e-04,4.906792126e-04,-2.470887885e-04,3.182112905e-05,-2.152676595e-04,-1.058631111e-04,-2.257702240e-04,-3.316333351e-04,-1.501851706e-04,3.368919257e-04,1.867067552e-04,7.579390722e-04,-1.098179687e-05,7.469572753e-04,-8.731381089e-05,-2.424990331e-04,-3.298128440e-04,1.078058633e-03,-2.760019148e-04,8.020567179e-04
-6,8.027177884e-04,1.830775747e-05,8.210255458e-04,6.791062077e-04,-1.203095931e-04,5.587966146e-04,4.398576841e-04,-4.630965569e-05,3.935480284e-04,7.865133004e-04,1.040660779e-05,7.969199082e-04,6.288298076e-04,-1.825220689e-05,6.105776007e-04,3.536640383e-04,-1.365952080e-05,3.400045175e-04,4.792857211e-04,1.212282815e-04,6.005140025e-04,4.707746228e-04,1.046909236e-04,5.754655465e-04,1.647881949e-05,1.157133255e-05,2.805015204e-05,4.428620465e-04,3.903366446e-05,4.818957109e-04,5.267540226e-04,-4.100185946e-05,4.857521631e-04,6.924463781e-04,2.193590637e-05,7.143822845e-04,-2.071547073e-04,2.658498083e-04,5.869510108e-05,5.758904226e-04,-3.743740728e-05,5.384530154e-04,2.065562136e-04,1.116041938e-04,3.181604074e-04,-3.780096188e-05,4.637859408e-05,8.577632201e-06,5.616673911e-04,-5.495229995e-04,1.214439164e-05,5.448224871e-04,5.015576523e-05,5.949782523e-04,5.714312745e-04,4.245542398e-04,9.959855143e-04,8.083953172e-04,-5.993915069e-05,7.484561665e-04,4.624441680e-04,-5.536896987e-05,4.070751981e-04,6.923985268e-04,-2.477039279e-04,4.446945989e-04,4.458535458e-04,-2.915037407e-04,1.543498051e-04,4.653134829e-04,-2.178618472e-04,2.474516357e-04,4.517266952e-04,1.134404345e-04,5.651671298e-04,5.752652081e-04,1.627263773e-04,7.379915853e-04,1.512637771e-04,4.393706212e-04,5.906343983e-04,5.722343223e-04,2.775993738e-04,8.498336961e-04,5.170747201e-04,-1.073280829e-04,4.097466372e-04,7.626350421e-04,-2.445029406e-04,5.181321015e-04,-1.604224503e-04,1.992957390e-05,-1.404928764e-04,-5.075585365e-05,-2.323031587e-04,-2.830590124e-04,-2.565268448e-05,2.874909145e-04,2.618382301e-04,8.263725177e-04,-1.034062549e-05,8.160318922e-04,-2.955251634e-07,-2.418743291e-04,-2.421698542e-04,1.110538300e-03,-2.628862079e-04,8.476520918e-04
-5.9,8.413838254e-04,3.873612768e-06,8.452574382e-04,7.622069005e-04,-1.374017447e-04,6.248051558e-04,4.646910935e-04,-6.834971621e-05,3.963413772e-04,8.414407000e-04,9.365786073e-07,8.423772786e-04,6.694134759e-04,-3.225728577e-05,6.371561901e-04,4.069427169e-04,-1.571257576e-05,3.912301411e-04,5.351954958e-04,1.181480428e-04,6.533435386e-04,5.214102905e-04,1.013424198e-04,6.227527103e-04,5.477353904e-05,7.648492336e-06,6.242203138e-05,4.793328341e-04,3.611914734e-05,5.154519815e-04,5.699065895e-04,-5.066769104e-05,5.192388984e-04,7.745899159e-04,-6.836241700e-06,7.677536742e-04,-1.076927251e-04,2.279484450e-04,1.202557199e-04,6.733793774e-04,-8.021016192e-05,5.931692155e-04,3.130117638e-04,7.517911005e-05,3.881908738e-04,2.367022558e-05,4.364039349e-05,6.731061906e-05,5.948289951e-04,-5.454757308e-04,4.935326430e-05,5.901065584e-04,4.132114193e-05,6.314277003e-04,6.171252794e-04,4.137700361e-04,1.030895315e-03,8.299049528e-04,-6.248342467e-05,7.674215281e-04,4.907219251e-04,-6.265572222e-05,4.280662029e-04,7.465212669e-04,-2.461926882e-04,5.003285787e-04,4.559061390e-04,-3.126604103e-04,1.432457287e-04,5.047035451e-04,-2.279770052e-04,2.767265399e-04,5.187188467e-04,9.061250501e-05,6.093313517e-04,6.606382236e-04,1.252580697e-04,7.858962933e-04,2.555335009e-04,4.028613302e-04,6.583948311e-04,6.598104160e-04,2.535942781e-04,9.134046941e-04,5.964305053e-04,-1.160434677e-04,4.803870376e-04,7.928108057e-04,-2.499592307e-04,5.428515750e-04,-7.376237135e-05,7.773738620e-06,-6.598863273e-05,2.877674061e-06,-2.379143317e-04,-2.350366576e-04,9.873616710e-05,2.355263858e-04,3.342625529e-04,8.905433679e-04,-1.005760224e-05,8.804857656e-04,8.571136557e-05,-2.411429614e-04,-1.554315959e-04,1.135917603e-03,-2.480411669e-04,8.878764365e-04
-5.8,8.787125112e-04,-9.858287843e-06,8.688542233e-04,8.412447176e-04,-1.546294383e-04,6.866152793e-04,4.885821333e-04,-8.975474171e-05,3.988273916e-04,8.939634038e-04,-8.418389913e-06,8.855450139e-04,7.079217362e-04,-4.623229043e-05,6.616894458e-04,4.580862783e-04,-1.811995531e-05,4.399663230e-04,5.903001175e-04,1.146839297e-04,7.049840471e-04,5.704382442e-04,9.836713770e-05,6.688053819e-04,9.351485234e-05,3.736033116e-06,9.725088546e-05,5.141630596e-04,3.317078963e-05,5.473338492e-04,6.109545645e-04,-6.015686114e-05,5.507977033e-04,8.524477048e-04,-3.641566110e-05,8.160320437e-04,-8.682620578e-06,1.892786298e-04,1.805960092e-04,7.661920175e-04,-1.228213794e-04,6.433706381e-04,4.173838439e-04,3.822945711e-05,4.556133010e-04,8.479544113e-05,4.071893323e-05,1.255143744e-04,6.264812875e-04,-5.381232363e-04,8.835805123e-05,6.340112056e-04,3.246481321e-05,6.664760188e-04,6.636985491e-04,3.995917248e-04,1.063290274e-03,8.484414064e-04,-6.473623452e-05,7.837051719e-04,5.170944522e-04,-6.961325219e-05,4.474812000e-04,7.981899920e-04,-2.431717618e-04,5.550182302e-04,4.611643265e-04,-3.333032555e-04,1.278610710e-04,5.421482346e-04,-2.368484987e-04,3.052997358e-04,5.837787982e-04,6.677372383e-05,6.505525220e-04,7.423827337e-04,8.732368880e-05,8.297064225e-04,3.580867925e-04,3.647354500e-04,7.228222425e-04,7.436527534e-04,2.283017018e-04,9.719544551e-04,6.720579520e-04,-1.237678115e-04,5.482901405e-04,8.195088236e-04,-2.549058475e-04,5.646029761e-04,1.247586823e-05,-4.575657497e-06,7.900210729e-06,5.474990878e-05,-2.425883979e-04,-1.878384891e-04,2.224236822e-04,1.813502979e-04,4.037739801e-04,9.502638758e-04,-1.030667029e-05,9.399572055e-04,1.703417844e-04,-2.402753601e-04,-6.993357569e-05,1.154167445e-03,-2.316471139e-04,9.225203307e-04
-5.7,9.144828921e-04,-2.285655666e-05,8.916263355e-04,9.157281460e-04,-1.719082495e-04,7.438198965e-04,5.113483304e-04,-1.104801563e-04,4.008681741e-04,9.437719251e-04,-1.758562554e-05,9.261862996e-04,7.440589256e-04,-6.006954551e-05,6.839893801e-04,5.068517210e-04,-2.084241406e-05,4.860093070e-04,6.442846868e-04,1.108574926e-04,7.551421794e-04,6.177394251e-04,9.569670856e-05,7.134361336e-04,1.324755439e-04,-1.362805101e-07,1.323392634e-04,5.471341941e-04,3.020890895e-05,5.773431031e-04,6.495656613e-04,-6.940851426e-05,5.801571471e-04,9.256329480e-04,-6.667421214e-05,8.589587359e-04,8.946464725e-05,1.502298852e-04,2.396945325e-04,8.539136017e-04,-1.651347991e-04,6.887788027e-04,5.192255332e-04,9.373257614e-07,5.201628590e-04,1.453632188e-04,3.756283861e-05,1.829260574e-04,6.570302695e-04,-5.274749961e-04,1.295552733e-04,6.763056879e-04,2.359167564e-05,6.998973636e-04,7.109294349e-04,3.822081869e-04,1.093137622e-03,8.638308097e-04,-6.668398195e-05,7.971468277e-04,5.413953466e-04,-7.619277172e-05,4.652025749e-04,8.467712181e-04,-2.387116518e-04,6.080595664e-04,4.614914981e-04,-3.533536230e-04,1.081378751e-04,5.772243609e-04,-2.445074941e-04,3.327168669e-04,6.467941360e-04,4.187297915e-05,6.886671152e-04,8.201000079e-04,4.906247797e-05,8.691624859e-04,4.585775750e-04,3.251121858e-04,7.836897608e-04,8.232611029e-04,2.018924029e-04,1.025153506e-03,7.436116556e-04,-1.304478782e-04,6.131637773e-04,8.424873688e-04,-2.593034519e-04,5.831839169e-04,9.788333117e-05,-1.704631610e-05,8.083701507e-05,1.046048237e-04,-2.463198847e-04,-1.417150610e-04,3.448574871e-04,1.253323250e-04,4.701898121e-04,1.005392093e-03,-1.125967787e-05,9.941324152e-04,2.532361170e-04,-2.392295208e-04,1.400659617e-05,1.165338615e-03,-2.139080106e-04,9.514306044e-04
-5.6,9.484806968e-04,-3.510055761e-05,9.133801392e-04,9.851935753e-04,-1.891526536e-04,7.960409217e-04,5.328060285e-04,-1.304896024e-04,4.023164261e-04,9.905714547e-04,-2.649715510e-05,9.640742996e-04,7.775499085e-04,-7.366409365e-05,7.038858148e-04,5.530193130e-04,-2.383765765e-05,5.291816553e-04,6.968395744e-04,1.066909553e-04,8.035305297e-04,6.632131243e-04,9.325024763e-05,7.564633720e-04,1.714279642e-04,-3.939818742e-06,1.674881454e-04,5.780470784e-04,2.725113572e-05,6.052982141e-04,6.854349835e-04,-7.836277342e-05,6.070722101e-04,9.938037450e-04,-9.747851553e-05,8.963252295e-04,1.863381447e-04,1.111934781e-04,2.975316228e-04,9.361664959e-04,-2.070123865e-04,7.291541095e-04,6.181177390e-04,-3.651318444e-05,5.816045546e-04,2.051713538e-04,3.412345521e-05,2.392948090e-04,6.868992851e-04,-5.136114697e-04,1.732878154e-04,7.167775330e-04,1.469879652e-05,7.314763295e-04,7.585129924e-04,3.618985436e-04,1.120411536e-03,8.759229240e-04,-6.831527431e-05,8.076076496e-04,5.634744502e-04,-8.234975840e-05,4.811246918e-04,8.916533838e-04,-2.328932090e-04,6.587601748e-04,4.567879357e-04,-3.727372700e-04,8.405066577e-05,6.095171519e-04,-2.509956773e-04,3.585214746e-04,7.076465410e-04,1.587911867e-05,7.235256596e-04,8.934325702e-04,1.061473776e-05,9.040473079e-04,5.566646380e-04,2.841110502e-04,8.407756882e-04,8.981754697e-04,1.745377743e-04,1.072713244e-03,8.107821672e-04,-1.360490137e-04,6.747331535e-04,8.615297630e-04,-2.631051394e-04,5.984246237e-04,1.820616850e-04,-2.956563712e-05,1.524960479e-04,1.522192717e-04,-2.491133781e-04,-9.689410636e-05,4.654988998e-04,6.785470115e-05,5.333536010e-04,1.055828254e-03,-1.307986119e-05,1.042748392e-03,3.340431786e-04,-2.379508280e-04,9.609235056e-05,1.169549280e-03,-1.950428517e-04,9.745064281e-04
-5.5,9.804957918e-04,-4.658065608e-05,9.339151357e-04,1.049205906e-03,-2.062764095e-04,8.429294960e-04,5.527705779e-04,-1.497545477e-04,4.030160301e-04,1.034080404e-03,-3.509030187e-05,9.989901026e-04,8.081386239e-04,-8.691446136e-05,7.212241626e-04,5.963922794e-04,-2.706041395e-05,5.693318654e-04,7.476598506e-04,1.022068766e-04,8.498667272e-04,7.067741756e-04,9.093643155e-05,7.977106071e-04,2.101445323e-04,-7.647153482e-06,2.024973788e-04,6.067200982e-04,2.431225360e-05,6.310323518e-04,7.182841690e-04,-8.696124165e-05,6.313229273e-04,1.056651679e-03,-1.286872248e-04,9.279644543e-04,2.815238367e-04,7.255644004e-05,3.540802768e-04,1.012606345e-03,-2.483155776e-04,7.642907672e-04,7.136664388e-04,-7.393676562e-05,6.397296731e-04,2.640233708e-04,3.035712323e-05,2.943804941e-04,7.165141220e-04,-4.966808480e-04,2.198332740e-04,7.552320440e-04,5.776090577e-06,7.610081345e-04,8.060644664e-04,3.390250317e-04,1.145089498e-03,8.845889322e-04,-6.962134538e-05,8.149675869e-04,5.831942177e-04,-8.804457284e-05,4.951496449e-04,9.322496789e-04,-2.258067768e-04,7.064429021e-04,4.469897614e-04,-3.913840601e-04,5.560570131e-05,6.386212554e-04,-2.563643492e-04,3.822569062e-04,7.662047972e-04,-1.121338982e-05,7.549914074e-04,9.620614060e-04,-2.788028557e-05,9.341811204e-04,6.520089952e-04,2.418568444e-04,8.938658396e-04,9.679770191e-04,1.464044886e-04,1.114381508e-03,8.732928365e-04,-1.405563425e-04,7.327364940e-04,8.764442593e-04,-2.662582279e-04,6.101860314e-04,2.646244491e-04,-4.206129516e-05,2.225631539e-04,1.974014274e-04,-2.509830369e-04,-5.358160945e-05,5.838314815e-04,9.304324680e-06,5.931358062e-04,1.101508289e-03,-1.591508653e-05,1.085593202e-03,4.124213270e-04,-2.363720796e-04,1.760492474e-04,1.166971335e-03,-1.752788210e-04,9.916925142e-04
-5.4,1.010318731e-03,-5.729819031e-05,9.530205406e-04,1.107358156e-03,-2.231928658e-04,8.841652906e-04,5.710558494e-04,-1.682537948e-04,4.028020546e-04,1.074028065e-03,-4.330818419e-05,1.030719881e-03,8.355852193e-04,-9.972327943e-05,7.358619399e-04,6.367953849e-04,-3.046244593e-05,6.063329390e-04,7.964436476e-04,9.742779605e-05,8.938714437e-04,7.483487036e-04,8.865578034e-05,8.370044840e-04,2.483978558e-04,-1.123195268e-05,2.371659031e-04,6.329861849e-04,2.140433343e-05,6.543905183e-04,7.478593225e-04,-9.514742742e-05,6.527118951e-04,1.113888771e-03,-1.601476486e-04,9.537411223e-04,3.746024694e-04,3.469375752e-05,4.092962269e-04,1.082917280e-03,-2.889064913e-04,7.940107886e-04,8.054984570e-04,-1.111476124e-04,6.943508446e-04,3.217239421e-04,2.622728791e-05,3.479512301e-04,7.462833386e-04,-4.768927652e-04,2.693905734e-04,7.914894546e-04,-3.192251017e-06,7.882972036e-04,8.531259946e-04,3.140220162e-04,1.167148011e-03,8.897181472e-04,-7.059620160e-05,8.191219456e-04,6.004254273e-04,-9.324293368e-05,5.071824936e-04,9.679995392e-04,-2.175512355e-04,7.504483037e-04,4.320674870e-04,-4.092274316e-04,2.284005545e-05,6.641413190e-04,-2.606733802e-04,4.034679387e-04,8.223175336e-04,-3.938009519e-05,7.829374384e-04,1.025700321e-03,-6.628604006e-05,9.594142806e-04,7.442683808e-04,1.984843418e-04,9.427527226e-04,1.032284991e-03,1.176505825e-04,1.149935573e-03,9.308950290e-04,-1.439749422e-04,7.869200869e-04,8.870628104e-04,-2.687060518e-04,6.183567585e-04,3.451964808e-04,-5.446124327e-05,2.907352376e-04,2.399875144e-04,-2.519511927e-04,-1.196367830e-05,6.993688675e-04,-4.993683506e-05,6.494320324e-04,1.142396020e-03,-1.989180605e-05,1.122504214e-03,4.880380714e-04,-2.344132769e-04,2.536247946e-04,1.157816324e-03,-1.548462391e-04,1.002970085e-03
-5.3,1.037736980e-03,-6.726522524e-05,9.704717552e-04,1.159270748e-03,-2.398152339e-04,9.194555142e-04,5.874736741e-04,-1.859728745e-04,4.015007996e-04,1.110152006e-03,-5.110009395e-05,1.059051912e-03,8.596627189e-04,-1.119977625e-04,7.476649564e-04,6.740729368e-04,-3.399248487e-05,6.400804519e-04,8.428901482e-04,9.237591591e-05,9.352660641e-04,7.878689043e-04,8.630312027e-05,8.741720246e-04,2.859608161e-04,-1.466881930e-05,2.712919968e-04,6.566895136e-04,1.853708503e-05,6.752265986e-04,7.739286103e-04,-1.028670998e-04,6.710615105e-04,1.165236525e-03,-1.916934266e-04,9.735430980e-04,4.651491679e-04,-2.040448849e-06,4.631087190e-04,1.146807962e-03,-3.286489387e-04,8.181590230e-04,8.932575808e-04,-1.479602843e-04,7.452972966e-04,3.780744391e-04,2.170624473e-05,3.997806839e-04,7.765745997e-04,-4.545077057e-04,3.220668940e-04,8.253805941e-04,-1.222573754e-05,8.131548566e-04,8.991737805e-04,2.873842292e-04,1.186558010e-03,8.912147080e-04,-7.123654626e-05,8.199781618e-04,6.150433157e-04,-9.791630888e-05,5.171270068e-04,9.983698614e-04,-2.082330487e-04,7.901368127e-04,4.120251687e-04,-4.262036590e-04,-1.417849034e-05,6.856929430e-04,-2.639900917e-04,4.217028513e-04,8.758074185e-04,-6.856421373e-05,8.072432048e-04,1.084089530e-03,-1.044698897e-04,9.796196403e-04,8.330909772e-04,1.541423933e-04,9.872333706e-04,1.090751856e-03,8.842266321e-05,1.179174519e-03,9.833636423e-04,-1.463289184e-04,8.370347239e-04,8.932398141e-04,-2.703896189e-04,6.228501952e-04,4.234131264e-04,-6.669342503e-05,3.567197013e-04,2.798382276e-04,-2.520461441e-04,2.779208342e-05,8.116588931e-04,-1.094985237e-04,7.021603693e-04,1.178476372e-03,-2.511074154e-05,1.153365631e-03,5.605689763e-04,-2.319810799e-04,3.285878964e-04,1.142321831e-03,-1.339740491e-04,1.008347782e-03
-5.2,1.062531515e-03,-7.650408115e-05,9.860274334e-04,1.204591227e-03,-2.560567682e-04,9.485344589e-04,6.018338800e-04,-2.029032953e-04,3.989305848e-04,1.142195895e-03,-5.842173087e-05,1.083774165e-03,8.801543382e-04,-1.236500657e-04,7.565042725e-04,7.080869230e-04,-3.759618791e-05,6.704907351e-04,8.866980239e-04,8.707283537e-05,9.737708593e-04,8.252679853e-04,8.376991464e-05,9.090379000e-04,3.226070709e-04,-1.793324122e-05,3.046738297e-04,6.776829294e-04,1.571827203e-05,6.934012014e-04,7.962805184e-04,-1.100686484e-04,6.862118700e-04,1.210420451e-03,-2.231443756e-04,9.872760757e-04,5.527354284e-04,-3.732216008e-05,5.154132683e-04,1.204010322e-03,-3.674090341e-04,8.366012884e-04,9.766026618e-04,-1.841911696e-04,7.924114922e-04,4.328695549e-04,1.677672028e-05,4.496462751e-04,8.076905721e-04,-4.298236950e-04,3.778668771e-04,8.567419522e-04,-2.134483922e-05,8.353971130e-04,9.436246682e-04,2.596544360e-04,1.203279104e-03,8.889954035e-04,-7.154147344e-05,8.174539300e-04,6.269252431e-04,-1.020422065e-04,5.248830367e-04,1.022857115e-03,-1.979653337e-04,8.248917809e-04,3.869011708e-04,-4.422509197e-04,-5.534974888e-05,7.029047824e-04,-2.663880413e-04,4.365167411e-04,9.264681727e-04,-9.867608701e-05,8.277920857e-04,1.136990644e-03,-1.423039034e-04,9.946867403e-04,9.181108110e-04,1.089977842e-04,1.027108595e-03,1.143059219e-03,5.885404513e-05,1.201913264e-03,1.030495425e-03,-1.476598327e-04,8.828355920e-04,8.948522323e-04,-2.712491434e-04,6.236030889e-04,4.989208054e-04,-7.868562118e-05,4.202351842e-04,3.168362410e-04,-2.512993984e-04,6.553684262e-05,9.202820877e-04,-1.690222311e-04,7.512598567e-04,1.209750988e-03,-3.164393592e-05,1.178107052e-03,6.296977748e-04,-2.289688427e-04,4.007289322e-04,1.120740172e-03,-1.128851584e-04,1.007855014e-03
-5.1,1.084474513e-03,-8.504660604e-05,9.994279065e-04,1.242995307e-03,-2.718308368e-04,9.711644705e-04,6.139455686e-04,-2.190416652e-04,3.949039034e-04,1.169908453e-03,-6.523532555e-05,1.104673128e-03,8.968525253e-04,-1.345975747e-04,7.622549506e-04,7.387160289e-04,-4.121626444e-05,6.974997645e-04,9.275651846e-04,8.153930515e-05,1.009104490e-03,8.604765123e-04,8.094627607e-05,9.414227883e-04,3.581123634e-04,-2.100177312e-05,3.371105903e-04,6.958270096e-04,1.295408882e-05,7.087810984e-04,8.147236672e-04,-1.167035037e-04,6.980201636e-04,1.249172323e-03,-2.543080958e-04,9.948642273e-04,6.369347631e-04,-7.086677634e-05,5.660679867e-04,1.254282495e-03,-4.050553513e-04,8.492271437e-04,1.055208547e-03,-2.196605513e-04,8.355479961e-04,4.858958544e-04,1.143351347e-05,4.973293679e-04,8.398478020e-04,-4.031626723e-04,4.366851297e-04,8.854113489e-04,-3.056760403e-05,8.548437449e-04,9.858435696e-04,2.314084784e-04,1.217252048e-03,8.829894938e-04,-7.151182273e-05,8.114776710e-04,6.359507157e-04,-1.056042391e-04,5.303464766e-04,1.040991325e-03,-1.868668600e-04,8.541244654e-04,3.567711576e-04,-4.573081994e-04,-1.005370417e-04,7.154223302e-04,-2.679456906e-04,4.474766396e-04,9.740652036e-04,-1.295933986e-04,8.444718050e-04,1.184185142e-03,-1.796651457e-04,1.004519997e-03,9.989479739e-04,6.323731564e-05,1.062185290e-03,1.188917221e-03,2.906399110e-05,1.217981212e-03,1.072111940e-03,-1.480248866e-04,9.240870534e-04,8.918023532e-04,-2.712256965e-04,6.205766567e-04,5.713801283e-04,-9.036548481e-05,4.810146435e-04,3.508860961e-04,-2.497427510e-04,1.011433451e-04,1.024846751e-03,-2.281554686e-04,7.966912827e-04,1.236236460e-03,-3.953224664e-05,1.196704213e-03,6.951198144e-04,-2.252584344e-04,4.698613800e-04,1.093331700e-03,-9.179213975e-05,1.001539560e-03
-5,1.103328696e-03,-9.293323562e-05,1.010395460e-03,1.274189844e-03,-2.870509841e-04,9.871388603e-04,6.236199552e-04,-2.343887502e-04,3.892312049e-04,1.193044013e-03,-7.150972552e-05,1.121534288e-03,9.095603472e-04,-1.447632129e-04,7.647971343e-04,7.658559955e-04,-4.479283010e-05,7.210631654e-04,9.651903873e-04,7.579497135e-05,1.040985359e-03,8.934207814e-04,7.772271799e-05,9.711434994e-04,3.922566399e-04,-2.385246330e-05,3.684041766e-04,7.109910848e-04,1.024949534e-05,7.212405802e-04,8.290884426e-04,-1.227266029e-04,7.063618397e-04,1.281240061e-03,-2.849820253e-04,9.962580353e-04,7.173328618e-04,-1.024377793e-04,6.148950824e-04,1.297415974e-03,-4.414588459e-04,8.559571283e-04,1.128769616e-03,-2.541946670e-04,8.745749485e-04,5.369330431e-04,5.684977761e-06,5.426180208e-04,8.731592819e-04,-3.748557919e-04,4.983034900e-04,9.112256015e-04,-3.990633081e-05,8.713192707e-04,1.025154500e-03,2.032365334e-04,1.228391033e-03,8.731406547e-04,-7.114925099e-05,8.019914037e-04,6.420038012e-04,-1.085918916e-04,5.334119097e-04,1.052342113e-03,-1.750609265e-04,8.772811866e-04,3.217529912e-04,-4.713141346e-04,-1.495611434e-04,7.229132964e-04,-2.687450331e-04,4.541682633e-04,1.018340063e-03,-1.611614288e-04,8.571786346e-04,1.225477553e-03,-2.164354009e-04,1.009042152e-03,1.075215928e-03,1.706614732e-05,1.092282075e-03,1.228069203e-03,-8.412468435e-07,1.227227956e-03,1.108066610e-03,-1.474947560e-04,9.605718541e-04,8.840232057e-04,-2.702632325e-04,6.137599732e-04,6.404710753e-04,-1.016602601e-04,5.388108152e-04,3.819171867e-04,-2.474058825e-04,1.345113042e-04,1.124985503e-03,-2.865455061e-04,8.384399966e-04,1.257964820e-03,-4.878313514e-05,1.209181685e-03,7.565495658e-04,-2.207241658e-04,5.358254000e-04,1.060363809e-03,-7.089414502e-05,9.894696640e-04
-4.9,1.118848358e-03,-1.002120152e-04,1.018636342e-03,1.297917567e-03,-3.016310739e-04,9.962864929e-04,6.306744359e-04,-2.489485231e-04,3.817259128e-04,1.211364582e-03,-7.722048028e-05,1.134144101e-03,9.180948556e-04,-1.540758216e-04,7.640190340e-04,7.894211813e-04,-4.826394447e-05,7.411572369e-04,9.992764766e-04,6.985813201e-05,1.069134609e-03,9.240229182e-04,7.399162200e-05,9.980145402e-04,4.248264740e-04,-2.646544928e-05,3.983610247e-04,7.230556572e-04,7.608518485e-06,7.306641757e-04,8.392297288e-04,-1.280968662e-04,7.111328626e-04,1.306402227e-03,-3.149551592e-04,9.914470674e-04,7.935410793e-04,-1.318533871e-04,6.616876922e-04,1.333245057e-03,-4.764929346e-04,8.567521224e-04,1.197004829e-03,-2.876272441e-04,9.093775852e-04,5.857582075e-04,-4.463545740e-07,5.853118529e-04,9.076197695e-04,-3.452253356e-04,5.623944339e-04,9.340209217e-04,-4.936526715e-05,8.846556545e-04,1.060856841e-03,1.757218136e-04,1.236578654e-03,8.594102105e-04,-7.045536278e-05,7.889548478e-04,6.449769393e-04,-1.110001109e-04,5.339768284e-04,1.056525797e-03,-1.626742236e-04,8.938515733e-04,2.820122243e-04,-4.842059245e-04,-2.021937003e-04,7.250737416e-04,-2.688703055e-04,4.562034361e-04,1.059018273e-03,-1.931939353e-04,8.658243374e-04,1.260702356e-03,-2.525003871e-04,1.008201969e-03,1.146533937e-03,-2.929638085e-05,1.117237556e-03,1.260300174e-03,-3.076479521e-05,1.229535379e-03,1.138252783e-03,-1.461506995e-04,9.921020839e-04,8.714849028e-04,-2.683109088e-04,6.031739941e-04,7.058987426e-04,-1.124958257e-04,5.934029169e-04,4.098892429e-04,-2.443151216e-04,1.655741213e-04,1.220355612e-03,-3.438359661e-04,8.765196459e-04,1.274985309e-03,-5.936898553e-05,1.215616324e-03,8.137309400e-04,-2.152379375e-04,5.984930025e-04,1.022114324e-03,-5.037520798e-05,9.717391164e-04
-4.8,1.130781481e-03,-1.069377303e-04,1.023843751e-03,1.313962545e-03,-3.154854672e-04,9.984770780e-04,6.349369311e-04,-2.627272226e-04,3.722097085e-04,1.224642645e-03,-8.234989055e-05,1.142292755e-03,9.222911314e-04,-1.624706028e-04,7.598205286e-04,8.093466063e-04,-5.156625361e-05,7.577803526e-04,1.029534290e-03,6.374554218e-05,1.093279832e-03,9.522016681e-04,6.964836619e-05,1.021850034e-03,4.556171212e-04,-2.882360566e-05,4.267935155e-04,7.319150584e-04,5.034475044e-06,7.369495335e-04,8.450294242e-04,-1.327776801e-04,7.122517441e-04,1.324482376e-03,-3.440095293e-04,9.804728469e-04,8.652102400e-04,-1.589898877e-04,7.062203524e-04,1.361655602e-03,-5.100340086e-04,8.516215938e-04,1.259662836e-03,-3.198006130e-04,9.398622234e-04,6.321521626e-04,-6.924547916e-06,6.252276147e-04,9.430925111e-04,-3.145626889e-04,6.285298221e-04,9.536353843e-04,-5.893978458e-05,8.946955997e-04,1.092246798e-03,1.494178277e-04,1.241664626e-03,8.417803055e-04,-6.943127815e-05,7.723490273e-04,6.447746289e-04,-1.128289217e-04,5.319457072e-04,1.053211978e-03,-1.498357946e-04,9.033761831e-04,2.377666017e-04,-4.959183879e-04,-2.581517862e-04,7.216338627e-04,-2.684068189e-04,4.532270439e-04,1.095819282e-03,-2.254759361e-04,8.703433458e-04,1.289731570e-03,-2.877486593e-04,1.001982911e-03,1.212539324e-03,-7.561981443e-05,1.136919510e-03,1.285445168e-03,-6.061314569e-05,1.224832023e-03,1.162609453e-03,-1.440808761e-04,1.018528577e-03,8.541997139e-04,-2.653254072e-04,5.888743067e-04,7.673983588e-04,-1.227954467e-04,6.446029122e-04,4.347985722e-04,-2.404935325e-04,1.943050397e-04,1.310640965e-03,-3.996649877e-04,9.109759770e-04,1.287365444e-03,-7.122569371e-05,1.216139750e-03,8.664478326e-04,-2.086743783e-04,6.577734543e-04,9.788763426e-04,-3.040305552e-05,9.484732871e-04
-4.7,1.138871954e-03,-1.131710811e-04,1.025700873e-03,1.322155252e-03,-3.285291530e-04,9.936260988e-04,6.362494999e-04,-2.757324366e-04,3.605170633e-04,1.232663769e-03,-8.688696176e-05,1.145776808e-03,9.220055342e-04,-1.698895610e-04,7.521159731e-04,8.255895937e-04,-5.463567090e-05,7.709539228e-04,1.055686128e-03,5.747225411e-05,1.113158382e-03,9.778726017e-04,6.459254019e-05,1.042465142e-03,4.844337967e-04,-3.091311320e-05,4.535206835e-04,7.374792692e-04,2.530072179e-06,7.400093414e-04,8.463976158e-04,-1.367373942e-04,7.096602215e-04,1.335359236e-03,-3.719219837e-04,9.634372521e-04,9.320418981e-04,-1.837812759e-04,7.482606223e-04,1.382590787e-03,-5.419623935e-04,8.406283932e-04,1.316525728e-03,-3.505666563e-04,9.659590722e-04,6.759061889e-04,-1.370229127e-05,6.622038976e-04,9.792973906e-04,-2.831048978e-04,6.961924927e-04,9.699118017e-04,-6.861662441e-05,9.012951773e-04,1.118644713e-03,1.248226895e-04,1.243467403e-03,8.202557913e-04,-6.807773533e-05,7.521780560e-04,6.413157950e-04,-1.140831368e-04,5.272326583e-04,1.042128282e-03,-1.366760405e-04,9.054522416e-04,1.892885259e-04,-5.063831417e-04,-3.170946159e-04,7.123626660e-04,-2.674398374e-04,4.449228286e-04,1.128466684e-03,-2.577687551e-04,8.706979292e-04,1.312479856e-03,-3.220704959e-04,9.904093599e-04,1.272896431e-03,-1.216632016e-04,1.151233230e-03,1.303394428e-03,-9.028939331e-05,1.213105034e-03,1.181122949e-03,-1.413763126e-04,1.039746636e-03,8.322247204e-04,-2.612731142e-04,5.709516062e-04,8.247390423e-04,-1.324791481e-04,6.922598942e-04,4.566830945e-04,-2.359618680e-04,2.207212265e-04,1.395552733e-03,-4.536631420e-04,9.418895905e-04,1.295188921e-03,-8.425097764e-05,1.210937944e-03,9.145324971e-04,-2.009155210e-04,7.136169762e-04,9.309621462e-04,-1.112749178e-05,9.198346544e-04
-4.6,1.142861093e-03,-1.189777665e-04,1.023883326e-03,1.322376559e-03,-3.406778553e-04,9.816987033e-04,6.344706758e-04,-2.879722438e-04,3.464984320e-04,1.235228357e-03,-9.082722058e-05,1.144401137e-03,9.171172262e-04,-1.762818699e-04,7.408353564e-04,8.381304012e-04,-5.740803740e-05,7.807223638e-04,1.077468100e-03,5.105146052e-05,1.128519560e-03,1.000946830e-03,5.873006281e-05,1.059676893e-03,5.110921420e-04,-3.272382203e-05,4.783683200e-04,7.396743130e-04,9.743659599e-08,7.397717496e-04,8.432719617e-04,-1.399497891e-04,7.033221726e-04,1.338970929e-03,-3.984669106e-04,9.405040181e-04,9.937956456e-04,-2.062160463e-04,7.875795993e-04,1.396052922e-03,-5.721635914e-04,8.238893301e-04,1.367410633e-03,-3.797874355e-04,9.876231975e-04,7.168276055e-04,-2.072363731e-05,6.961039682e-04,1.015804663e-03,-2.510156310e-04,7.647890315e-04,9.826994786e-04,-7.837435777e-05,9.043251209e-04,1.139427956e-03,1.023500176e-04,1.241777973e-03,7.948641071e-04,-6.639550113e-05,7.284686060e-04,6.345343757e-04,-1.147720764e-04,5.197622992e-04,1.023062720e-03,-1.233256028e-04,8.997371176e-04,1.369052118e-04,-5.155278395e-04,-3.786226277e-04,6.970713013e-04,-2.660534135e-04,4.310178878e-04,1.156696811e-03,-2.898163249e-04,8.668804856e-04,1.328905612e-03,-3.553571383e-04,9.735484739e-04,1.327303094e-03,-1.671753414e-04,1.160127753e-03,1.314094574e-03,-1.196876754e-04,1.194406898e-03,1.193824691e-03,-1.381271532e-04,1.055697538e-03,8.056618605e-04,-2.561320038e-04,5.495298567e-04,8.777262297e-04,-1.414644057e-04,7.362618240e-04,4.756246350e-04,-2.307394980e-04,2.448851370e-04,1.474828020e-03,-5.054523346e-04,9.693756859e-04,1.298548716e-03,-9.830194583e-05,1.200246770e-03,9.578707856e-04,-1.918554310e-04,7.660153546e-04,8.787054314e-04,7.321411401e-06,8.860268428e-04
-4.5,1.142488280e-03,-1.244275283e-04,1.018060752e-03,1.314560554e-03,-3.518481902e-04,9.627123634e-04,6.294764930e-04,-2.994544365e-04,3.300220565e-04,1.232152391e-03,-9.417236599e-05,1.137980025e-03,9.075277751e-04,-1.816041112e-04,7.259236639e-04,8.469716243e-04,-5.981969357e-05,7.871519308e-04,1.094631164e-03,4.449435801e-05,1.139125522e-03,1.021328155e-03,5.197654687e-05,1.073304702e-03,5.354180408e-04,-3.424932925e-05,5.011687116e-04,7.384411708e-04,-2.261802975e-06,7.361793678e-04,8.356154385e-04,-1.423944258e-04,6.932210127e-04,1.335313481e-03,-4.234201036e-04,9.118933776e-04,1.050292106e-03,-2.263322955e-04,8.239598107e-04,1.402101605e-03,-6.005295627e-04,8.015720418e-04,1.412169050e-03,-4.073351869e-04,1.004833863e-03,7.547434297e-04,-2.792704612e-05,7.268163835e-04,1.052039757e-03,-2.183760835e-04,8.336636737e-04,9.918542971e-04,-8.818346840e-05,9.036708287e-04,1.154063183e-03,8.230225533e-05,1.236365438e-03,7.656531102e-04,-6.438580134e-05,7.012673088e-04,6.243783332e-04,-1.149092159e-04,5.094691173e-04,9.958638773e-04,-1.099140514e-04,8.859498259e-04,8.099683332e-05,-5.232754430e-04,-4.422786097e-04,6.756152725e-04,-2.643291455e-04,4.112861269e-04,1.180264662e-03,-3.213514524e-04,8.589132100e-04,1.339008307e-03,-3.875007050e-04,9.515076022e-04,1.375495739e-03,-2.118968272e-04,1.163598911e-03,1.317545968e-03,-1.486898686e-04,1.168856099e-03,1.200786007e-03,-1.344196991e-04,1.066366307e-03,7.746550784e-04,-2.498927322e-04,5.247623463e-04,9.262026715e-04,-1.496679459e-04,7.765347256e-04,4.917479009e-04,-2.248446456e-04,2.669032553e-04,1.548227158e-03,-5.546479145e-04,9.935792438e-04,1.297535664e-03,-1.131918488e-04,1.184343815e-03,9.964045385e-04,-1.814050825e-04,8.149994560e-04,8.224620677e-04,2.483438461e-05,8.472964524e-04
-4.4,1.137490959e-03,-1.295933012e-04,1.007897658e-03,1.298696307e-03,-3.619578569e-04,9.367384506e-04,6.211605130e-04,-3.101857968e-04,3.109747161e-04,1.223267386e-03,-9.692973007e-05,1.126337655e-03,8.931592218e-04,-1.858203607e-04,7.073388611e-04,8.521364799e-04,-6.180791003e-05,7.903285698e-04,1.106941078e-03,3.781008118e-05,1.144751159e-03,1.038909204e-03,4.426140354e-05,1.083170607e-03,5.572470206e-04,-3.548678754e-05,5.217602330e-04,7.337335926e-04,-4.546314552e-06,7.291872780e-04,8.234130058e-04,-1.440568117e-04,6.793561940e-04,1.324435211e-03,-4.465631942e-04,8.778720164e-04,1.101411797e-03,-2.442115599e-04,8.572002369e-04,1.400849258e-03,-6.269597633e-04,7.738894951e-04,1.450684364e-03,-4.330916441e-04,1.017592720e-03,7.895021920e-04,-3.524854816e-05,7.542536439e-04,1.087299557e-03,-1.851863543e-04,9.021132028e-04,9.972375699e-04,-9.800607423e-05,8.992314957e-04,1.162128876e-03,6.485492496e-05,1.226983801e-03,7.326874829e-04,-6.205068158e-05,6.706368013e-04,6.108077082e-04,-1.145117909e-04,4.962959173e-04,9.604397269e-04,-9.656842669e-05,8.638713002e-04,2.199330033e-05,-5.295435502e-04,-5.075502498e-04,6.478960183e-04,-2.623448606e-04,3.855511576e-04,1.198947338e-03,-3.521015133e-04,8.468458244e-04,1.342823276e-03,-4.183948494e-04,9.244284265e-04,1.417253027e-03,-2.555643167e-04,1.161688710e-03,1.313797136e-03,-1.771647181e-04,1.136632418e-03,1.202111254e-03,-1.303344250e-04,1.071776829e-03,7.393844089e-04,-2.425584395e-04,4.968259694e-04,9.700478243e-04,-1.570076866e-04,8.130401377e-04,5.052167805e-04,-2.182940415e-04,2.869227391e-04,1.615530177e-03,-6.008639904e-04,1.014666187e-03,1.292225150e-03,-1.286872649e-04,1.163537885e-03,1.030131662e-03,-1.694969236e-04,8.606347386e-04,7.626096769e-04,4.132301565e-05,8.039326925e-04
-4.3,1.127604415e-03,-1.345504720e-04,9.930539433e-04,1.274828818e-03,-3.709257130e-04,9.039031047e-04,6.094333375e-04,-3.201713655e-04,2.892619720e-04,1.208420045e-03,-9.911154701e-05,1.109308498e-03,8.739513709e-04,-1.889021097e-04,6.850492612e-04,8.536663086e-04,-6.331120680e-05,7.903551018e-04,1.114177757e-03,3.100574042e-05,1.145183497e-03,1.053567074e-03,3.553197825e-05,1.089099052e-03,5.764235272e-04,-3.643655440e-05,5.399869728e-04,7.255154892e-04,-6.754802935e-06,7.187606863e-04,8.066679650e-04,-1.449283972e-04,6.617395677e-04,1.306429636e-03,-4.676879280e-04,8.387417083e-04,1.147091009e-03,-2.599713842e-04,8.871196247e-04,1.392455608e-03,-6.513616925e-04,7.410939157e-04,1.482868187e-03,-4.569468941e-04,1.025921293e-03,8.209743518e-04,-4.262480718e-05,7.783495446e-04,1.120776062e-03,-1.513741067e-04,9.694019548e-04,9.987145380e-04,-1.077956590e-04,8.909188791e-04,1.163325315e-03,5.005466466e-05,1.213379979e-03,6.960446982e-04,-5.939334418e-05,6.366513540e-04,5.937925454e-04,-1.136004145e-04,4.801921309e-04,9.167561759e-04,-8.341171915e-05,8.333444567e-04,-3.962951853e-05,-5.342438021e-04,-5.738733206e-04,6.138625010e-04,-2.601731929e-04,3.536893081e-04,1.212546181e-03,-3.817938805e-04,8.307523004e-04,1.340415537e-03,-4.479359014e-04,8.924796360e-04,1.452399061e-03,-2.979167289e-04,1.154482332e-03,1.302937967e-03,-2.049690541e-04,1.097968913e-03,1.197930543e-03,-1.259447046e-04,1.071985838e-03,7.000581215e-04,-2.341433106e-04,4.659148109e-04,1.009175977e-03,-1.634041808e-04,8.457717962e-04,5.162292092e-04,-2.111024736e-04,3.051267356e-04,1.676532745e-03,-6.437198769e-04,1.032812868e-03,1.282665720e-03,-1.445084516e-04,1.138157269e-03,1.059104356e-03,-1.560882324e-04,9.030161236e-04,6.995462558e-04,5.671917767e-05,7.562654335e-04
-4.2,1.112561902e-03,-1.393761230e-04,9.731857792e-04,1.243059498e-03,-3.786715549e-04,8.643879428e-04,5.942221959e-04,-3.294136721e-04,2.648085238e-04,1.187472272e-03,-1.007340803e-04,1.086738192e-03,8.498592308e-04,-1.908280420e-04,6.590311888e-04,8.516178249e-04,-6.426967958e-05,7.873481454e-04,1.116134713e-03,2.408657285e-05,1.140221285e-03,1.065158808e-03,2.575741472e-05,1.090916222e-03,5.928004570e-04,-3.710181759e-05,5.556986394e-04,7.137587499e-04,-8.885792918e-06,7.048729570e-04,7.853989094e-04,-1.450064634e-04,6.403924460e-04,1.281429992e-03,-4.865999907e-04,7.948300010e-04,1.187316598e-03,-2.737569486e-04,9.135596494e-04,1.377122958e-03,-6.736508265e-04,7.034721311e-04,1.508656549e-03,-4.787981353e-04,1.029858414e-03,8.490516346e-04,-4.999567295e-05,7.990559617e-04,1.151584463e-03,-1.168073552e-04,1.034777108e-03,9.961532389e-04,-1.174970719e-04,8.786561670e-04,1.157476441e-03,3.782713316e-05,1.195303575e-03,6.558115540e-04,-5.641838609e-05,5.993931679e-04,5.733116500e-04,-1.121986534e-04,4.611129967e-04,8.648365381e-04,-7.056130405e-05,7.942752340e-04,-1.033532371e-04,-5.372813808e-04,-6.406346179e-04,5.735135221e-04,-2.578800117e-04,3.156335104e-04,1.220889245e-03,-4.101614893e-04,8.107277558e-04,1.331874157e-03,-4.760239881e-04,8.558501690e-04,1.480808339e-03,-3.387033805e-04,1.142104958e-03,1.285093581e-03,-2.319501399e-04,1.053143442e-03,1.188393719e-03,-1.213157565e-04,1.067077962e-03,6.569053823e-04,-2.246704870e-04,4.322348954e-04,1.043534260e-03,-1.687818750e-04,8.747523853e-04,5.250116379e-04,-2.032823668e-04,3.217292711e-04,1.731042371e-03,-6.828458721e-04,1.048196499e-03,1.268872929e-03,-1.603355045e-04,1.108537425e-03,1.083426208e-03,-1.411631486e-04,9.422630596e-04,6.336880354e-04,7.097404245e-05,7.046620778e-04
-4.1,1.092095809e-03,-1.441481974e-04,9.479476114e-04,1.203546855e-03,-3.851155932e-04,8.184312617e-04,5.754712724e-04,-3.379119604e-04,2.375593120e-04,1.160302202e-03,-1.018167028e-04,1.058485499e-03,8.208516350e-04,-1.915837276e-04,6.292679074e-04,8.460607483e-04,-6.462542840e-05,7.814353199e-04,1.112619382e-03,1.705620582e-05,1.129675588e-03,1.073517515e-03,1.493209485e-05,1.088449610e-03,6.062393992e-04,-3.748828842e-05,5.687511108e-04,6.984423640e-04,-1.093750078e-05,6.875048633e-04,7.596381699e-04,-1.442939371e-04,6.153442329e-04,1.249607842e-03,-5.031221251e-04,7.464857167e-04,1.222121284e-03,-2.857324591e-04,9.363888250e-04,1.355094152e-03,-6.937499361e-04,6.613442164e-04,1.528007456e-03,-4.985488400e-04,1.029458616e-03,8.736457163e-04,-5.730583955e-05,8.163398768e-04,1.178794729e-03,-8.130924322e-05,1.097485485e-03,9.894243558e-04,-1.270467763e-04,8.623775795e-04,1.144528462e-03,2.798974815e-05,1.172518210e-03,6.120822309e-04,-5.313174281e-05,5.589504881e-04,5.493531578e-04,-1.103324338e-04,4.390207240e-04,8.047630905e-04,-5.812731213e-05,7.466357784e-04,-1.686192333e-04,-5.385546336e-04,-7.071738669e-04,5.269014878e-04,-2.555227215e-04,2.713787664e-04,1.223835162e-03,-4.369483692e-04,7.868867924e-04,1.317308794e-03,-5.025636641e-04,8.147451302e-04,1.502413898e-03,-3.776943197e-04,1.124719578e-03,1.260420447e-03,-2.579479377e-04,1.002472510e-03,1.173667758e-03,-1.165036082e-04,1.057164150e-03,6.101718344e-04,-2.141699426e-04,3.960018918e-04,1.073101813e-03,-1.730705987e-04,9.000312144e-04,5.318137411e-04,-1.948431715e-04,3.369705695e-04,1.778876547e-03,-7.178880390e-04,1.060988508e-03,1.250830157e-03,-1.758211579e-04,1.075008999e-03,1.103249148e-03,-1.247340436e-04,9.785151046e-04,5.654664780e-04,8.405691795e-05,6.495233960e-04
-4,1.065940538e-03,-1.489446168e-04,9.169959213e-04,1.156508164e-03,-3.901778461e-04,7.663303181e-04,5.531433866e-04,-3.456614480e-04,2.074819386e-04,1.126806916e-03,-1.023810223e-04,1.024425894e-03,7.869120097e-04,-1.911613191e-04,5.957506907e-04,8.370764047e-04,-6.432307864e-05,7.727533261e-04,1.103455146e-03,9.917033416e-06,1.113372180e-03,1.078450646e-03,3.078231520e-06,1.081528878e-03,6.166119137e-04,-3.760401171e-05,5.790079020e-04,6.795535140e-04,-1.290778855e-05,6.666457254e-04,7.294323968e-04,-1.427991318e-04,5.866332650e-04,1.211176804e-03,-5.170959328e-04,6.940808709e-04,1.251580595e-03,-2.960729706e-04,9.555076249e-04,1.326654410e-03,-7.115879213e-04,6.150664882e-04,1.540901373e-03,-5.161087725e-04,1.024792601e-03,8.946873226e-04,-6.450552042e-05,8.301818022e-04,1.201464977e-03,-4.467356728e-05,1.156791410e-03,9.784028812e-04,-1.363733188e-04,8.420295623e-04,1.124546368e-03,2.026659524e-05,1.144812963e-03,5.649586249e-04,-4.954034705e-05,5.154182778e-04,5.219175439e-04,-1.080292199e-04,4.138883240e-04,7.366813853e-04,-4.621094973e-05,6.904704356e-04,-2.348293952e-04,-5.379549269e-04,-7.727843221e-04,4.741379872e-04,-2.531485454e-04,2.209894418e-04,1.221279032e-03,-4.619147653e-04,7.593642665e-04,1.296850188e-03,-5.274639735e-04,7.693862144e-04,1.517218594e-03,-4.146922866e-04,1.102526308e-03,1.229106114e-03,-2.827966612e-04,9.463094529e-04,1.153938996e-03,-1.115543325e-04,1.042384663e-03,5.601189360e-04,-2.026765596e-04,3.574423764e-04,1.097890794e-03,-1.762071094e-04,9.216836844e-04,5.369035743e-04,-1.857903069e-04,3.511132674e-04,1.819864244e-03,-7.485123058e-04,1.071351938e-03,1.228496311e-03,-1.906083809e-04,1.037887930e-03,1.118771099e-03,-1.068425696e-04,1.011928530e-03,4.953241046e-04,9.595459681e-05,5.912787014e-04
-3.9,1.033837332e-03,-1.538423380e-04,8.799949935e-04,1.102222590e-03,-3.937777061e-04,7.084448843e-04,5.272232256e-04,-3.526526307e-04,1.745705949e-04,1.086907080e-03,-1.024500908e-04,9.844569894e-04,7.480416720e-04,-1.895593137e-04,5.584823583e-04,8.247575578e-04,-6.331034468e-05,7.614472131e-04,1.088485394e-03,2.670714906e-06,1.091156108e-03,1.079741715e-03,-9.752937735e-06,1.069988777e-03,6.238017242e-04,-3.745932910e-05,5.863423951e-04,6.570906513e-04,-1.479420179e-05,6.422964496e-04,6.948451858e-04,-1.405354362e-04,5.543097497e-04,1.166400546e-03,-5.283821886e-04,6.380183572e-04,1.275811891e-03,-3.049568548e-04,9.708550367e-04,1.292136506e-03,-7.270984826e-04,5.650380235e-04,1.547344949e-03,-5.313949568e-04,1.015949993e-03,9.121268949e-04,-7.155023444e-05,8.405766604e-04,1.218674153e-03,-6.680670224e-06,1.211993483e-03,9.629721618e-04,-1.453982019e-04,8.175739598e-04,1.097707977e-03,1.430390638e-05,1.112011884e-03,5.145530043e-04,-4.565182138e-05,4.689011829e-04,4.910228005e-04,-1.053170705e-04,3.857057300e-04,6.608069296e-04,-3.490286487e-05,6.259040648e-04,-3.013458496e-04,-5.353668579e-04,-8.367127075e-04,4.154007550e-04,-2.507929182e-04,1.646078368e-04,1.213160519e-03,-4.848418371e-04,7.283186823e-04,1.270655270e-03,-5.506382729e-04,7.200169971e-04,1.525307823e-03,-4.495440701e-04,1.075763753e-03,1.191372902e-03,-3.063256982e-04,8.850472040e-04,1.129419341e-03,-1.065038574e-04,1.022915484e-03,5.070258416e-04,-1.902283164e-04,3.167975252e-04,1.117949201e-03,-1.781364932e-04,9.398127082e-04,5.405630393e-04,-1.761236569e-04,3.644393824e-04,1.853851318e-03,-7.744083643e-04,1.079442953e-03,1.201818177e-03,-2.043486647e-04,9.974695127e-04,1.130234591e-03,-8.756008088e-05,1.042674511e-03,4.237092665e-04,1.066714092e-04,5.303806757e-04
-3.8,9.955405891e-04,-1.589162440e-04,8.366243451e-04,1.041035341e-03,-3.958337350e-04,6.452016058e-04,4.977215887e-04,-3.588706296e-04,1.388509591e-04,1.040553081e-03,-1.020476809e-04,9.385054000e-04,7.042649526e-04,-1.867823937e-04,5.174825589e-04,8.092091600e-04,-6.153864137e-05,7.476705187e-04,1.067579126e-03,-4.681220954e-06,1.062897905e-03,1.077155452e-03,-2.348159846e-05,1.053673854e-03,6.277072185e-04,-3.706700262e-05,5.906402158e-04,6.310677003e-04,-1.659409859e-05,6.144736017e-04,6.559607789e-04,-1.375210119e-04,5.184397670e-04,1.115602625e-03,-5.368606207e-04,5.787420046e-04,1.294974319e-03,-3.125587028e-04,9.824156158e-04,1.251927041e-03,-7.402190350e-04,5.117080058e-04,1.547376676e-03,-5.443334364e-04,1.003043240e-03,9.259368066e-04,-7.839983372e-05,8.475369729e-04,1.229553940e-03,3.288542459e-05,1.262439364e-03,9.430296294e-04,-1.540372713e-04,7.889923581e-04,1.064295547e-03,9.684663465e-06,1.073980211e-03,4.609919671e-04,-4.147448448e-05,4.195174826e-04,4.567105430e-04,-1.022237345e-04,3.544868085e-04,5.774327846e-04,-2.428165864e-05,5.531511259e-04,-3.674909703e-04,-5.306689021e-04,-8.981598724e-04,3.509409071e-04,-2.484780476e-04,1.024628595e-04,1.199473146e-03,-5.055358860e-04,6.939372603e-04,1.238915150e-03,-5.720041599e-04,6.669109905e-04,1.526860250e-03,-4.821483502e-04,1.044711900e-03,1.147483990e-03,-3.283604747e-04,8.191235154e-04,1.100353675e-03,-1.013783501e-04,9.989753252e-04,4.511915672e-04,-1.768645840e-04,2.743269832e-04,1.133364688e-03,-1.788137135e-04,9.545509749e-04,5.430834972e-04,-1.658361280e-04,3.772473692e-04,1.880709749e-03,-7.952941415e-04,1.085415607e-03,1.170743398e-03,-2.167166491e-04,9.540267492e-04,1.137925630e-03,-6.698710995e-05,1.070938520e-03,3.510705629e-04,1.162289800e-04,4.672995430e-04
-3.7,9.508248244e-04,-1.642377762e-04,7.865870481e-04,9.733616682e-04,-3.962635305e-04,5.770981377e-04,4.646796036e-04,-3.642946377e-04,1.003849659e-04,9.877316409e-04,-1.011975899e-04,8.865340511e-04,6.556346530e-04,-1.828413230e-04,4.727933300e-04,7.905492803e-04,-5.896379674e-05,7.315854835e-04,1.040637014e-03,-1.213673309e-05,1.028500281e-03,1.070444973e-03,-3.800116658e-05,1.032443807e-03,6.282435953e-04,-3.644241658e-05,5.918011787e-04,6.015180976e-04,-1.830483840e-05,5.832132592e-04,6.128875321e-04,-1.337785450e-04,4.791089871e-04,1.059174680e-03,-5.424302067e-04,5.167444733e-04,1.309267008e-03,-3.190424693e-04,9.902245386e-04,1.206471016e-03,-7.508901672e-04,4.555808485e-04,1.541072570e-03,-5.548616813e-04,9.862108890e-04,9.361138586e-04,-8.501708915e-05,8.510967694e-04,1.233321975e-03,7.421687868e-05,1.307538854e-03,9.184925400e-04,-1.622023926e-04,7.562901474e-04,1.024683588e-03,5.943032440e-06,1.030626620e-03,4.044201119e-04,-3.701766337e-05,3.674024485e-04,4.190515155e-04,-9.877585097e-05,3.202756645e-04,4.869363971e-04,-1.441255987e-05,4.725238373e-04,-4.325490038e-04,-5.237344885e-04,-9.562834923e-04,2.810892664e-04,-2.462116397e-04,3.487762662e-05,1.180272626e-03,-5.238315940e-04,6.564410316e-04,1.201862449e-03,-5.914835590e-04,6.103788901e-04,1.522153154e-03,-5.124583394e-04,1.009694814e-03,1.097749410e-03,-3.487241736e-04,7.490252363e-04,1.067025612e-03,-9.619509115e-05,9.708305209e-04,3.929355963e-04,-1.626247386e-04,2.303108577e-04,1.144268001e-03,-1.782056880e-04,9.660623132e-04,5.447614209e-04,-1.549129981e-04,3.898484228e-04,1.900349614e-03,-8.109212609e-04,1.089428353e-03,1.135230424e-03,-2.274187751e-04,9.078116487e-04,1.142171241e-03,-4.525167954e-05,1.096919561e-03,2.778515127e-04,1.246646620e-04,4.025161747e-04
-3.6,8.994914778e-04,-1.698733297e-04,7.296181481e-04,8.996894696e-04,-3.949834924e-04,5.047059772e-04,4.281719864e-04,-3.688975519e-04,5.927443443e-05,9.284719120e-04,-9.992295350e-05,8.285489585e-04,6.022364790e-04,-1.777528794e-04,4.244835996e-04,7.689094889e-04,-5.554689485e-05,7.133625940e-04,1.007596826e-03,-1.969263087e-05,9.879041955e-04,1.059359142e-03,-5.318090838e-05,1.006178234e-03,6.253443649e-04,-3.560369090e-05,5.897406740e-04,5.684976753e-04,-1.992396251e-05,5.485737128e-04,5.657602307e-04,-1.293349956e-04,4.364252351e-04,9.975798231e-04,-5.450099178e-04,4.525699053e-04,1.318923128e-03,-3.245550900e-04,9.943680378e-04,1.156273048e-03,-7.590557768e-04,3.972172713e-04,1.528550467e-03,-5.629313847e-04,9.656190820e-04,9.426805563e-04,-9.136628835e-05,8.513142679e-04,1.229315627e-03,1.174590041e-04,1.346774631e-03,8.893025244e-04,-1.698031733e-04,7.194993511e-04,9.793201875e-04,2.581446768e-06,9.819016343e-04,3.450022739e-04,-3.229220523e-05,3.127100687e-04,3.781494432e-04,-9.499822780e-05,2.831512154e-04,3.897845500e-04,-5.346232792e-06,3.844383172e-04,-4.957700271e-04,-5.144334426e-04,-1.010203470e-03,2.062610411e-04,-2.439857918e-04,-3.772475063e-05,1.155682013e-03,-5.395936767e-04,6.160883358e-04,1.159775020e-03,-6.090028521e-04,5.507721675e-04,1.511561189e-03,-5.404794188e-04,9.710817699e-04,1.042529880e-03,-3.672409480e-04,6.752889322e-04,1.029760050e-03,-9.096384828e-05,9.387962014e-04,3.325960181e-04,-1.475471867e-04,1.850488314e-04,1.150834766e-03,-1.762938111e-04,9.745409551e-04,5.458935643e-04,-1.433321830e-04,4.025613814e-04,1.912731217e-03,-8.210809548e-04,1.091650262e-03,1.095254628e-03,-2.361968255e-04,8.590578026e-04,1.143334291e-03,-2.250622851e-05,1.120828063e-03,2.044856738e-04,1.320285009e-04,3.365141747e-04
-3.5,8.413751233e-04,-1.758825351e-04,6.654925882e-04,8.205797694e-04,-3.919084840e-04,4.286712854e-04,3.883089363e-04,-3.726458259e-04,1.566311046e-05,8.628504906e-04,-9.824556444e-05,7.646049261e-04,5.441917957e-04,-1.715397880e-04,3.726520077e-04,7.444343125e-04,-5.125520739e-05,6.931791051e-04,9.684375607e-04,-2.734389071e-05,9.410936700e-04,1.043649353e-03,-6.886916498e-05,9.747801884e-04,6.189622647e-04,-3.457155526e-05,5.843907095e-04,5.320860287e-04,-2.144932682e-05,5.106367018e-04,5.147409656e-04,-1.242212455e-04,3.905197202e-04,9.313499256e-04,-5.445392198e-04,3.868107058e-04,1.324200030e-03,-3.292214935e-04,9.949785368e-04,1.101894954e-03,-7.646638709e-04,3.372310826e-04,1.509972325e-03,-5.685111025e-04,9.414612224e-04,9.456843922e-04,-9.741216481e-05,8.482722274e-04,1.217021379e-03,1.626878308e-04,1.379709210e-03,8.554287793e-04,-1.767488251e-04,6.786799542e-04,9.287024905e-04,-9.085469062e-07,9.277939436e-04,2.829240431e-04,-2.731119617e-05,2.556128469e-04,3.341429210e-04,-9.091321860e-05,2.432297024e-04,2.865360407e-04,2.882275552e-06,2.894183163e-04,-5.563762273e-04,-5.026337412e-04,-1.059009969e-03,1.269586293e-04,-2.417760663e-04,-1.148174370e-04,1.125892264e-03,-5.527167536e-04,5.731755104e-04,1.112974993e-03,-6.244930451e-04,4.884819474e-04,1.495549153e-03,-5.662632538e-04,9.292858997e-04,9.822373433e-04,-3.837405198e-04,5.984968235e-04,9.889218312e-04,-8.568855307e-05,9.032332782e-04,2.705251750e-04,-1.316686585e-04,1.388565164e-04,1.153284843e-03,-1.730764713e-04,9.802083718e-04,5.467708154e-04,-1.310648477e-04,4.157059677e-04,1.917874264e-03,-8.256095414e-04,1.092264723e-03,1.050812358e-03,-2.428294765e-04,8.079828819e-04,1.141805544e-03,1.076493745e-06,1.142882038e-03,1.313924048e-04,1.383787052e-04,2.697711100e-04
