Time,S1D1HbO,S1D1HbR,S1D1HbT,S2D2HbO,S2D2HbR,S2D2HbT,S3D3HbO,S3D3HbR,S3D3HbT,S4D4HbO,S4D4HbR,S4D4HbT,S5D5HbO,S5D5HbR,S5D5HbT,S6D6HbO,S6D6HbR,S6D6HbT,S7D7HbO,S7D7HbR,S7D7HbT,S8D8HbO,S8D8HbR,S8D8HbT,S9D9HbO,S9D9HbR,S9D9HbT,S10D10HbO,S10D10HbR,S10D10HbT,S11D11HbO,S11D11HbR,S11D11HbT,S12D12HbO,S12D12HbR,S12D12HbT,S13D13HbO,S13D13HbR,S13D13HbT,S14D14HbO,S14D14HbR,S14D14HbT,S15D15HbO,S15D15HbR,S15D15HbT,S16D16HbO,S16D16HbR,S16D16HbT,S17D17HbO,S17D17HbR,S17D17HbT,S18D18HbO,S18D18HbR,S18D18HbT,S19D19HbO,S19D19HbR,S19D19HbT,S20D20HbO,S20D20HbR,S20D20HbT,S21D21HbO,S21D21HbR,S21D21HbT,S22D22HbO,S22D22HbR,S22D22HbT,S23D23HbO,S23D23HbR,S23D23HbT,S24D24HbO,S24D24HbR,S24D24HbT,S25D25HbO,S25D25HbR,S25D25HbT,S26D26HbO,S26D26HbR,S26D26HbT,S27D27HbO,S27D27HbR,S27D27HbT,S28D28HbO,S28D28HbR,S28D28HbT,S29D29HbO,S29D29HbR,S29D29HbT,S30D30HbO,S30D30HbR,S30D30HbT,S31D31HbO,S31D31HbR,S31D31HbT,S32D32HbO,S32D32HbR,S32D32HbT,S33D33HbO,S33D33HbR,S33D33HbT,S34D34HbO,S34D34HbR,S34D34HbT,S35D35HbO,S35D35HbR,S35D35HbT,S36D36HbO,S36D36HbR,S36D36HbT,
-10,8.674338021e-04,1.288831402e-04,9.963169423e-04,5.312653470e-05,4.399243666e-04,4.930509013e-04,1.430053261e-04,2.618301686e-06,1.456236278e-04,-7.007541761e-04,8.710700553e-05,-6.136471706e-04,-1.993416261e-04,-3.965206806e-04,-5.958623066e-04,4.355319530e-04,1.244559504e-04,5.599879034e-04,1.745810018e-04,1.204704232e-04,2.950514250e-04,2.274543513e-04,2.834931090e-04,5.109474602e-04,1.502263105e-04,-2.120773556e-05,1.290185750e-04,6.021320191e-05,1.694584170e-05,7.715904362e-05,1.184834715e-03,-4.725033509e-04,7.123313639e-04,5.268707358e-04,3.392854067e-04,8.661561425e-04,2.101967562e-03,3.738909667e-04,2.475858528e-03,4.849925679e-04,5.587806187e-04,1.043773187e-03,1.321201993e-03,5.246268037e-04,1.845828797e-03,1.356324658e-03,4.924032267e-05,1.405564981e-03,1.868188936e-03,4.597367985e-04,2.327925734e-03,7.114776642e-04,1.515179449e-04,8.629956091e-04,2.805817713e-04,7.238584930e-04,1.004440264e-03,-1.804408618e-04,3.006084937e-04,1.201676319e-04,-7.956617959e-05,8.737627309e-05,7.810093507e-06,2.370200651e-04,2.760992367e-04,5.131193019e-04,2.424843215e-05,-3.228207341e-05,-8.033641252e-06,7.669671400e-04,2.500180143e-04,1.016985154e-03,1.184111969e-03,1.464062576e-04,1.330518227e-03,-1.224699046e-05,3.768406531e-04,3.645936626e-04,1.958124137e-03,3.660428224e-04,2.324166960e-03,4.608730558e-04,1.233734521e-04,5.842465079e-04,7.554770815e-04,1.397854528e-04,8.952625343e-04,-4.472108517e-04,5.105500378e-04,6.333918613e-05,1.498061307e-03,3.096478106e-04,1.807709117e-03,1.725753531e-03,3.139498571e-04,2.039703388e-03,9.157714325e-04,-1.648193046e-04,7.509521279e-04,4.800098532e-04,-6.086495268e-05,4.191449005e-04,1.094556805e-03,2.308367195e-04,1.325393524e-03,8.259360776e-04,-2.064988259e-04,6.194372517e-04
-9.9,8.315719973e-04,1.245478197e-04,9.561198170e-04,5.471840585e-06,4.537037429e-04,4.591755835e-04,1.253620407e-04,1.308237360e-06,1.266702781e-04,-7.057950073e-04,1.046102562e-04,-6.011847510e-04,-1.923457853e-04,-3.837119627e-04,-5.760577480e-04,3.989353208e-04,1.339148972e-04,5.328502180e-04,1.477602543e-04,1.312413118e-04,2.790015661e-04,2.033560738e-04,2.899155851e-04,4.932716589e-04,1.284249742e-04,-1.498729392e-05,1.134376803e-04,5.666027851e-05,2.275972531e-05,7.942000382e-05,1.157483595e-03,-4.559457293e-04,7.015378656e-04,4.962295164e-04,3.806255242e-04,8.768550405e-04,2.050204051e-03,4.043635857e-04,2.454567637e-03,4.306840355e-04,5.931772422e-04,1.023861278e-03,1.285194628e-03,5.417643644e-04,1.826958992e-03,1.355304320e-03,5.791955526e-05,1.413223875e-03,1.829936908e-03,4.724506474e-04,2.302387555e-03,7.212002602e-04,1.465758606e-04,8.677761208e-04,2.608913566e-04,7.186485294e-04,9.795398859e-04,-1.950602400e-04,3.054807198e-04,1.104204797e-04,-5.304664066e-05,9.680315367e-05,4.375651302e-05,2.086315960e-04,2.842791619e-04,4.929107578e-04,-1.041636840e-05,-3.385180493e-05,-4.426817333e-05,7.493712103e-04,2.554296571e-04,1.004800867e-03,1.158013128e-03,1.783953067e-04,1.336408435e-03,-6.859636935e-05,4.222069132e-04,3.536105438e-04,1.904755687e-03,4.167509107e-04,2.321506598e-03,4.416573031e-04,1.519209542e-04,5.935782573e-04,7.112043811e-04,1.572204024e-04,8.684247835e-04,-4.912183742e-04,5.475665336e-04,5.634815947e-05,1.449637802e-03,3.222083851e-04,1.771846187e-03,1.661373177e-03,3.320221967e-04,1.993395373e-03,8.942956752e-04,-1.567243880e-04,7.375712873e-04,4.206505690e-04,-2.653894121e-05,3.941116278e-04,1.050053063e-03,2.408036322e-04,1.290856695e-03,7.815724435e-04,-1.843630418e-04,5.972094017e-04
-9.8,7.967146144e-04,1.199619851e-04,9.166765995e-04,-4.059857268e-05,4.667110933e-04,4.261125206e-04,1.075852062e-04,1.961967251e-07,1.077814029e-04,-7.094699232e-04,1.217175941e-04,-5.877523291e-04,-1.849168856e-04,-3.704407763e-04,-5.553576619e-04,3.624484860e-04,1.430699816e-04,5.055184677e-04,1.208116359e-04,1.416430301e-04,2.624546660e-04,1.787233593e-04,2.958485358e-04,4.745718951e-04,1.061145633e-04,-9.195441689e-06,9.691912157e-05,5.261635311e-05,2.833137312e-05,8.094772622e-05,1.129162353e-03,-4.398876342e-04,6.892747191e-04,4.643813341e-04,4.210703660e-04,8.854517001e-04,1.995646950e-03,4.329521136e-04,2.428599064e-03,3.757478080e-04,6.262266674e-04,1.001974475e-03,1.246797557e-03,5.573350421e-04,1.804132600e-03,1.351306512e-03,6.598028170e-05,1.417286794e-03,1.790186049e-03,4.832953623e-04,2.273481411e-03,7.276399532e-04,1.415734275e-04,8.692133807e-04,2.400922443e-04,7.117989332e-04,9.518911776e-04,-2.092423447e-04,3.094492108e-04,1.002068661e-04,-2.613019983e-05,1.055471111e-04,7.941691125e-05,1.801358200e-04,2.915680264e-04,4.717038465e-04,-4.482504180e-05,-3.533225415e-05,-8.015729595e-05,7.318566030e-04,2.607377210e-04,9.925943240e-04,1.130208582e-03,2.095003101e-04,1.339708892e-03,-1.243385563e-04,4.658213809e-04,3.414828246e-04,1.843048052e-03,4.684486468e-04,2.311496699e-03,4.197338695e-04,1.808358549e-04,6.005697244e-04,6.663966776e-04,1.740659478e-04,8.404626255e-04,-5.348626782e-04,5.820638594e-04,4.720118119e-05,1.398377163e-03,3.334711490e-04,1.731848311e-03,1.592478423e-03,3.505952655e-04,1.943073689e-03,8.710690388e-04,-1.482194223e-04,7.228496165e-04,3.617178153e-04,6.743865462e-06,3.684616808e-04,1.004283227e-03,2.497416132e-04,1.254024840e-03,7.371589235e-04,-1.636098434e-04,5.735490801e-04
-9.7,7.628459272e-04,1.152030999e-04,8.780490271e-04,-8.500852000e-05,4.789442460e-04,3.939357260e-04,8.971371360e-05,-6.601441715e-07,8.905356943e-05,-7.118006882e-04,1.383875433e-04,-5.734131449e-04,-1.770335333e-04,-3.566912064e-04,-5.337247396e-04,3.261730409e-04,1.519072324e-04,4.780802733e-04,9.388891918e-05,1.516671090e-04,2.455560282e-04,1.536198185e-04,3.012938129e-04,4.549136315e-04,8.341218346e-05,-3.820956005e-06,7.959122746e-05,4.799921530e-05,3.369448451e-05,8.169369981e-05,1.099828693e-03,-4.243013484e-04,6.755273450e-04,4.314609616e-04,4.604023798e-04,8.918633414e-04,1.938290198e-03,4.595066470e-04,2.397796845e-03,3.202531946e-04,6.578377816e-04,9.780909762e-04,1.205897087e-03,5.713126771e-04,1.777209764e-03,1.344169081e-03,7.342045347e-05,1.417589535e-03,1.748752921e-03,4.922985918e-04,2.241051512e-03,7.306086140e-04,1.365762919e-04,8.671849059e-04,2.180284159e-04,7.034090239e-04,9.214374398e-04,-2.229636623e-04,3.125334864e-04,8.956982407e-05,8.655653640e-07,1.136251264e-04,1.144906918e-04,1.515681438e-04,2.980053529e-04,4.495734967e-04,-7.870147316e-05,-3.663341831e-05,-1.153348915e-04,7.142067351e-04,2.659045287e-04,9.801112638e-04,1.100590104e-03,2.396669297e-04,1.340257033e-03,-1.794167431e-04,5.075688590e-04,3.281521159e-04,1.773192650e-03,5.208952866e-04,2.294087936e-03,3.949028361e-04,2.100723905e-04,6.049752266e-04,6.210524630e-04,1.902671970e-04,8.113196600e-04,-5.780905668e-04,6.137874977e-04,3.569693086e-05,1.344192453e-03,3.433706740e-04,1.687563127e-03,1.518999394e-03,3.696544067e-04,1.888653801e-03,8.461309089e-04,-1.393288964e-04,7.068020125e-04,3.032711304e-04,3.885997124e-05,3.421311017e-04,9.572266966e-04,2.576146251e-04,1.214841322e-03,6.927877260e-04,-1.443853363e-04,5.484023897e-04
-9.6,7.299418586e-04,1.103485601e-04,8.402904187e-04,-1.276945563e-04,4.904048260e-04,3.627102697e-04,7.179349994e-05,-1.204138835e-06,7.058936110e-05,-7.128270328e-04,1.545810917e-04,-5.582459411e-04,-1.686881347e-04,-3.424484245e-04,-5.111365591e-04,2.901981600e-04,1.604113346e-04,4.506094946e-04,6.713401721e-05,1.613063298e-04,2.284403470e-04,1.281022342e-04,3.062546626e-04,4.343568967e-04,6.044450130e-05,1.153423173e-06,6.159792447e-05,4.273286231e-05,3.888333995e-05,8.161620226e-05,1.069445149e-03,-4.091468939e-04,6.602982549e-04,3.975995922e-04,4.984036527e-04,8.960032449e-04,1.878105352e-03,4.839105142e-04,2.362015866e-03,2.642644823e-04,6.879287440e-04,9.521932263e-04,1.162377030e-03,5.836870350e-04,1.746064065e-03,1.333739448e-03,8.024109257e-05,1.413980540e-03,1.705449125e-03,4.994975349e-04,2.204946660e-03,7.299436956e-04,1.316439311e-04,8.615876268e-04,1.945495436e-04,6.935835275e-04,8.881330712e-04,-2.361980647e-04,3.147595522e-04,7.856148752e-05,2.760873119e-05,1.210586436e-04,1.486673748e-04,1.229684739e-04,3.036423321e-04,4.266108060e-04,-1.117665600e-04,-3.766293840e-05,-1.494294984e-04,6.962005478e-04,2.708884815e-04,9.670890293e-04,1.069049536e-03,2.688414910e-04,1.337891027e-03,-2.337769576e-04,5.473449400e-04,3.135679824e-04,1.695452700e-03,5.738143828e-04,2.269267083e-03,3.669967074e-04,2.395649873e-04,6.065616947e-04,5.751637966e-04,2.057689041e-04,7.809327007e-04,-6.208615393e-04,6.425201113e-04,2.165857198e-05,1.287006001e-03,3.518565428e-04,1.638862543e-03,1.440904527e-03,3.891618465e-04,1.830066373e-03,8.195232979e-04,-1.300852107e-04,6.894380873e-04,2.453646845e-04,6.968891727e-05,3.150536018e-04,9.088629268e-04,2.643961355e-04,1.173259062e-03,6.485420101e-04,-1.268162326e-04,5.217257775e-04
-9.5,6.979697428e-04,1.054747051e-04,8.034444479e-04,-1.686059938e-04,5.010979585e-04,3.324919647e-04,5.387641027e-05,-1.380999548e-06,5.249541072e-05,-7.126062690e-04,1.702618071e-04,-5.423444620e-04,-1.598884757e-04,-3.276994673e-04,-4.875879430e-04,2.546011968e-04,1.685661506e-04,4.231673475e-04,4.067582840e-05,1.705547674e-04,2.112305958e-04,1.022217832e-04,3.107359079e-04,4.129576911e-04,3.734589879e-05,5.750535014e-06,4.309643381e-05,3.674859570e-05,4.393229348e-05,8.068088918e-05,1.037979526e-03,-3.943728993e-04,6.436066272e-04,3.629256681e-04,5.348587485e-04,8.977844166e-04,1.815047565e-03,5.060808310e-04,2.321128396e-03,2.078425813e-04,7.164270770e-04,9.242696583e-04,1.116122634e-03,5.944644925e-04,1.710587127e-03,1.319876520e-03,8.644611711e-05,1.406322637e-03,1.660086268e-03,5.049377083e-04,2.165023977e-03,7.255097729e-04,1.268292535e-04,8.523390264e-04,1.695133540e-04,6.824314379e-04,8.519447919e-04,-2.489173603e-04,3.161595526e-04,6.724219230e-05,5.375896106e-05,1.278730958e-04,1.816320569e-04,9.438141874e-05,3.085402095e-04,4.029216282e-04,-1.437448174e-04,-3.832822907e-05,-1.820730465e-04,6.776183781e-04,2.756453250e-04,9.532637031e-04,1.035481250e-03,2.969720245e-04,1.332453274e-03,-2.873682390e-04,5.850560810e-04,2.976878420e-04,1.610166534e-03,6.268933952e-04,2.237059929e-03,3.358842945e-04,2.692287634e-04,6.051130579e-04,5.287192722e-04,2.205158572e-04,7.492351294e-04,-6.631501673e-04,6.680862541e-04,4.936086790e-06,1.226753408e-03,3.588952002e-04,1.585648608e-03,1.358207240e-03,4.090563968e-04,1.767263636e-03,7.912893392e-04,-1.205266751e-04,6.707626641e-04,1.880482293e-04,9.911434395e-05,2.871625732e-04,8.591743491e-04,2.700699483e-04,1.129244297e-03,6.044951621e-04,-1.110075012e-04,4.934876610e-04
-9.4,6.668896631e-04,1.006558723e-04,7.675455354e-04,-2.077032243e-04,5.110319667e-04,3.033287424e-04,3.601987606e-05,-1.138659125e-06,3.488121693e-05,-7.112114697e-04,1.853959182e-04,-5.258155515e-04,-1.506579153e-04,-3.124340579e-04,-4.630919732e-04,2.194496243e-04,1.763552775e-04,3.958049018e-04,1.463053239e-05,1.794078211e-04,1.940383535e-04,7.602637333e-05,3.147440756e-04,3.907704490e-04,1.425754697e-05,9.998208735e-06,2.425575571e-05,2.998747318e-05,4.887524161e-05,7.886271479e-05,1.005406935e-03,-3.799177859e-04,6.254891496e-04,3.275667560e-04,5.695580238e-04,8.971247798e-04,1.749065649e-03,5.259685427e-04,2.275034192e-03,1.510488668e-04,7.432696437e-04,8.943185104e-04,1.067027326e-03,6.036685158e-04,1.670695842e-03,1.302454346e-03,9.204220367e-05,1.394496550e-03,1.612482712e-03,5.086712154e-04,2.121153928e-03,7.172018088e-04,1.221782861e-04,8.393800949e-04,1.427899774e-04,6.700651861e-04,8.128551635e-04,-2.610915793e-04,3.167713743e-04,5.567979494e-05,7.897506112e-05,1.340975525e-04,2.130726136e-04,6.585666084e-05,3.127685654e-04,3.786252262e-04,-1.743706951e-04,-3.853879725e-05,-2.129094923e-04,6.582491518e-04,2.801297805e-04,9.383789323e-04,9.997855827e-04,3.240097196e-04,1.323795302e-03,-3.401410762e-04,6.206197519e-04,2.804786758e-04,1.517750263e-03,6.797849954e-04,2.197535258e-03,3.014764839e-04,2.989609287e-04,6.004374126e-04,4.817084833e-04,2.344536365e-04,7.161621199e-04,-7.049447441e-04,6.903549390e-04,-1.458980511e-05,1.163389184e-03,3.644711948e-04,1.527860379e-03,1.270972710e-03,4.292538619e-04,1.700226571e-03,7.614736787e-04,-1.106959075e-04,6.507777712e-04,1.313693692e-04,1.270251143e-04,2.583944835e-04,8.081508435e-04,2.746308311e-04,1.082781675e-03,5.607113822e-04,-9.704004556e-05,4.636713366e-04
-9.3,6.366570685e-04,9.596336187e-05,7.326204303e-04,-2.449548110e-04,5.202178829e-04,2.752630719e-04,1.828706921e-05,-4.287048865e-07,1.785836433e-05,-7.087284641e-04,1.999523725e-04,-5.087760916e-04,-1.410343429e-04,-2.966454242e-04,-4.376797671e-04,1.848038511e-04,1.837625605e-04,3.685664117e-04,-1.089711014e-05,1.878622173e-04,1.769651071e-04,4.956353342e-05,3.182874419e-04,3.678509753e-04,-8.673189665e-06,1.392856866e-05,5.255378992e-06,2.240336645e-05,5.374506553e-05,7.614843198e-05,9.717124828e-04,-3.657112377e-04,6.060012451e-04,2.916515386e-04,6.023014369e-04,8.939529754e-04,1.680114650e-03,5.435578113e-04,2.223672461e-03,9.395003489e-05,7.684024749e-04,8.623525098e-04,1.015000948e-03,6.113396676e-04,1.626340615e-03,1.281366952e-03,9.703874481e-05,1.378405697e-03,1.562471474e-03,5.107548519e-04,2.073226325e-03,7.049496858e-04,1.177298997e-04,8.226795854e-04,1.142680984e-04,6.565997253e-04,7.708678237e-04,-2.726891910e-04,3.166380698e-04,4.394887878e-05,1.029235622e-04,1.397643133e-04,2.426878755e-04,3.744907663e-05,3.164033808e-04,3.538524574e-04,-2.033947744e-04,-3.820870404e-05,-2.416034785e-04,6.378979879e-04,2.842972750e-04,9.221952629e-04,9.618732801e-04,3.499103201e-04,1.311783600e-03,-3.920444533e-04,6.539644885e-04,2.619200352e-04,1.418698880e-03,7.321102711e-04,2.150809151e-03,2.637323370e-04,3.286435522e-04,5.923758892e-04,4.341266572e-04,2.475296293e-04,6.816562865e-04,-7.462434980e-04,7.092402490e-04,-3.700324904e-05,1.096893346e-03,3.685875487e-04,1.465480894e-03,1.179324017e-03,4.496478796e-04,1.628971896e-03,7.301241472e-04,-1.006387456e-04,6.294854016e-04,7.537671562e-05,1.533164372e-04,2.286931528e-04,7.557948035e-04,2.780848357e-04,1.033879639e-03,5.172473884e-04,-8.496903575e-05,4.322783527e-04
-9.2,6.072255905e-04,9.146427911e-05,6.986898696e-04,-2.803346130e-04,5.286687190e-04,2.483341060e-04,7.467081612e-07,7.926480339e-07,1.539356195e-06,-7.052524195e-04,2.139029276e-04,-4.913494918e-04,-1.310686162e-04,-2.803310358e-04,-4.113996519e-04,1.507200213e-04,1.907724871e-04,3.414925084e-04,-3.581242218e-05,1.959159327e-04,1.601035106e-04,2.288300528e-05,3.213759331e-04,3.442589384e-04,-3.129403308e-05,1.757721853e-05,-1.371681455e-05,1.396543532e-05,5.857302092e-05,7.253845624e-05,9.368932190e-04,-3.516759244e-04,5.852172947e-04,2.553107550e-04,6.329026188e-04,8.882133738e-04,1.608167647e-03,5.588649545e-04,2.167032602e-03,3.662223943e-05,7.917805017e-04,8.284027411e-04,9.599774194e-04,6.175349159e-04,1.577512335e-03,1.256532937e-03,1.014479568e-04,1.357980894e-03,1.509908054e-03,5.112484123e-04,2.021156466e-03,6.887224325e-04,1.135156556e-04,8.022380881e-04,8.386134729e-05,6.421513179e-04,7.260126651e-04,-2.836775624e-04,3.158070193e-04,3.212945686e-05,1.252873057e-04,1.449083007e-04,2.701956064e-04,9.218148633e-06,3.195248605e-04,3.287430091e-04,-2.305900542e-04,-3.725899774e-05,-2.678490519e-04,6.163930146e-04,2.881055635e-04,9.044985781e-04,9.216705572e-04,3.746348644e-04,1.296305422e-03,-4.430228031e-04,6.850297706e-04,2.420069674e-04,1.313585011e-03,7.834635379e-04,2.097048549e-03,2.226634814e-04,3.581475334e-04,5.808110148e-04,3.859780765e-04,2.596941110e-04,6.456721874e-04,-7.870502573e-04,7.247004417e-04,-6.234981559e-05,1.027277786e-03,3.712652452e-04,1.398543032e-03,1.083446772e-03,4.701111327e-04,1.553557905e-03,6.972934926e-04,-9.040354418e-05,6.068899484e-04,2.012281526e-05,1.778910214e-04,1.980138367e-04,7.021255693e-04,2.804491201e-04,9.825746893e-04,4.741545491e-04,-7.482336961e-05,3.993311795e-04
-9.1,5.785489743e-04,8.722032076e-05,6.657692951e-04,-3.138201890e-04,5.363985729e-04,2.225783839e-04,-1.652822440e-05,2.563573766e-06,-1.396465064e-05,-7.008847590e-04,2.272222959e-04,-4.736624631e-04,-1.208232409e-04,-2.634931927e-04,-3.843164337e-04,1.172519990e-04,1.973703868e-04,3.146223858e-04,-6.003031311e-05,2.035679486e-04,1.435376355e-04,-3.961658224e-06,3.240208037e-04,3.200591455e-04,-5.345048704e-05,2.098229537e-05,-3.246819167e-05,4.659181025e-06,6.338808832e-05,6.804726934e-05,9.009584036e-04,-3.377293992e-04,5.632290045e-04,2.186762165e-04,6.611930299e-04,8.798692464e-04,1.533223933e-03,5.719372144e-04,2.105161148e-03,-2.084661093e-05,8.133674121e-04,7.925208012e-04,9.019203735e-04,6.223262399e-04,1.524246613e-03,1.227898621e-03,1.052850864e-04,1.333183707e-03,1.454676970e-03,5.102133790e-04,1.964890349e-03,6.685306076e-04,1.095598706e-04,7.780904782e-04,5.151315582e-05,6.268361152e-04,6.783492711e-04,-2.940238968e-04,3.143289347e-04,2.030503782e-05,1.457730424e-04,1.495663446e-04,2.953393870e-04,-1.877352002e-05,3.222151844e-04,3.034416644e-04,-2.557582841e-04,-3.561989954e-05,-2.913781836e-04,5.935905466e-04,2.915161475e-04,8.851066941e-04,8.791240980e-04,3.981494204e-04,1.277273518e-03,-4.930142019e-04,7.137658453e-04,2.207516434e-04,1.203055051e-03,8.334181751e-04,2.036473226e-03,1.783355078e-04,3.873370237e-04,5.656725315e-04,3.372776196e-04,2.709012875e-04,6.081789071e-04,-8.273707173e-04,7.367359939e-04,-9.063472336e-05,9.545912956e-04,3.725420735e-04,1.327133369e-03,9.835913440e-04,4.904972553e-04,1.474088599e-03,6.630402818e-04,-8.004073801e-05,5.829995437e-04,-3.433415672e-05,2.006603545e-04,1.663261978e-04,6.471824161e-04,2.817512444e-04,9.289336605e-04,4.314806618e-04,-6.660622291e-05,3.648744389e-04
-9,5.505817316e-04,8.328657023e-05,6.338683019e-04,-3.453929984e-04,5.434216661e-04,1.980286677e-04,-3.346309641e-05,4.915633933e-06,-2.854746248e-05,-6.957307119e-04,2.398883072e-04,-4.558424046e-04,-1.103716088e-04,-2.461394302e-04,-3.565110390e-04,8.445217608e-05,2.035424309e-04,2.879946069e-04,-8.347597453e-05,2.108177949e-04,1.273418204e-04,-3.091279016e-05,3.262340827e-04,2.953212925e-04,-7.499007649e-05,2.418344502e-05,-5.080663147e-05,-5.514069849e-06,6.821636373e-05,6.270229388e-05,8.639279916e-04,-3.237860239e-04,5.401419677e-04,1.818779591e-04,6.870259960e-04,8.689039551e-04,1.455312967e-03,5.828513259e-04,2.038164293e-03,-7.835647103e-05,8.331358410e-04,7.547793700e-04,8.408264007e-04,6.257987710e-04,1.466625172e-03,1.195439321e-03,1.085686055e-04,1.304007927e-03,1.396696369e-03,5.077120025e-04,1.904408371e-03,6.444263001e-04,1.058798273e-04,7.503061274e-04,1.719918557e-05,6.107688398e-04,6.279680254e-04,-3.036966866e-04,3.122568673e-04,8.560180637e-06,1.641175058e-04,1.537765731e-04,3.178940789e-04,-4.646247540e-05,3.245563774e-04,2.780939020e-04,-2.787360703e-04,-3.323261349e-05,-3.119686837e-04,5.693784269e-04,2.944954359e-04,8.638738628e-04,8.342052025e-04,4.204240539e-04,1.254629256e-03,-5.419504046e-04,7.401337168e-04,1.981833122e-04,1.087822993e-03,8.815326747e-04,1.969355668e-03,1.308662240e-04,4.160735262e-04,5.469397502e-04,2.880505669e-04,2.811102396e-04,5.691608066e-04,-8.672092321e-04,7.453866231e-04,-1.218226091e-04,8.789226690e-04,3.724710915e-04,1.251393761e-03,8.800720805e-04,5.106439650e-04,1.390716046e-03,6.274288532e-04,-6.960273750e-05,5.578261157e-04,-8.793031213e-05,2.215461591e-04,1.336158470e-04,5.910258614e-04,2.820281486e-04,8.730540100e-04,3.892708508e-04,-6.029623637e-05,3.289746144e-04
-8.9,5.232788137e-04,7.971037156e-05,6.029891853e-04,-3.750401439e-04,5.497513574e-04,1.747112136e-04,-4.998531611e-05,7.872774047e-06,-4.211254206e-05,-6.898973443e-04,2.518820588e-04,-4.380152854e-04,-9.979760847e-05,-2.282827054e-04,-3.280803139e-04,5.237118222e-05,2.092755165e-04,2.616466987e-04,-1.060865791e-04,2.176649515e-04,1.115783725e-04,-5.790950975e-05,3.280278831e-04,2.701183734e-04,-9.576770413e-05,2.722081238e-05,-6.854689175e-05,-1.653881900e-05,7.308057370e-05,5.654175469e-05,8.258299247e-04,-3.097587726e-04,5.160711520e-04,1.450404508e-04,7.102802215e-04,8.553206723e-04,1.374495350e-03,5.917114985e-04,1.966206849e-03,-1.357960069e-04,8.510678406e-04,7.152718338e-04,7.767264850e-04,6.280487060e-04,1.404775191e-03,1.159159006e-03,1.113203380e-04,1.270479344e-03,1.335920755e-03,5.038067949e-04,1.839727550e-03,6.165011337e-04,1.024859648e-04,7.189870985e-04,-1.907252638e-05,5.940618276e-04,5.749893012e-04,-3.126674455e-04,3.096452395e-04,-3.022205969e-06,1.800919783e-04,1.575779272e-04,3.376699055e-04,-7.378706348e-05,3.266283027e-04,2.528412393e-04,-2.994002758e-04,-3.005075061e-05,-3.294510264e-04,5.436778235e-04,2.970155953e-04,8.406934188e-04,7.869125751e-04,4.414316594e-04,1.228344234e-03,-5.897584871e-04,7.641054127e-04,1.743469257e-04,9.686618441e-04,9.273569375e-04,1.896018782e-03,8.042154656e-05,4.442192773e-04,5.246408239e-04,2.383314287e-04,2.902856798e-04,5.286171085e-04,-9.065653653e-04,7.507271619e-04,-1.558382033e-04,8.004020217e-04,3.711188099e-04,1.171520832e-03,7.732636827e-04,5.303776071e-04,1.303641290e-03,5.905286043e-04,-5.914417227e-05,5.313844320e-04,-1.405973128e-04,2.404819839e-04,9.988467112e-05,5.337375695e-04,2.813250746e-04,8.150626441e-04,3.475675443e-04,-5.584885861e-05,2.917186857e-04
-8.8,4.965949923e-04,7.653038566e-05,5.731253780e-04,-4.027568522e-04,5.553991757e-04,1.526423235e-04,-6.602847932e-05,1.145041773e-05,-5.457806159e-05,-6.834916880e-04,2.631880600e-04,-4.203036280e-04,-8.919510980e-05,-2.099413324e-04,-2.991364422e-04,2.105692851e-05,2.145571319e-04,2.356140604e-04,-1.278133637e-04,2.241082310e-04,9.629486732e-05,-8.488936993e-05,3.294136972e-04,2.445243273e-04,-1.156512058e-04,3.013409810e-05,-8.551710768e-05,-2.838735415e-05,7.799971714e-05,4.961236299e-05,7.866973127e-04,-2.955608924e-04,4.911364203e-04,1.082789241e-04,7.308624609e-04,8.391413850e-04,1.290862656e-03,5.986463825e-04,1.889509039e-03,-1.930435990e-04,8.671553623e-04,6.741117633e-04,7.096868524e-04,6.291810507e-04,1.338867903e-03,1.119089033e-03,1.135655065e-04,1.232654540e-03,1.272342208e-03,4.985605147e-04,1.770902722e-03,5.848831646e-04,9.938198628e-05,6.842651509e-04,-5.726278642e-05,5.768243756e-04,5.195615892e-04,-3.209122632e-04,3.065488062e-04,-1.436345706e-05,1.935057342e-04,1.610096009e-04,3.545153351e-04,-1.006897958e-04,3.285066346e-04,2.278168388e-04,-3.176720502e-04,-2.604138808e-05,-3.437134383e-04,5.164439909e-04,2.990550786e-04,8.154990695e-04,7.372736563e-04,4.611472807e-04,1.198420937e-03,-6.363631513e-04,7.856644039e-04,1.493012526e-04,8.463922752e-04,9.704399011e-04,1.816832176e-03,2.721034758e-05,4.716399778e-04,4.988503253e-04,1.881629079e-04,2.983984784e-04,4.865613864e-04,-9.454294188e-04,7.528625184e-04,-1.925669005e-04,7.192009718e-04,3.685630636e-04,1.087764035e-03,6.635959198e-04,5.495184565e-04,1.213114376e-03,5.524129141e-04,-4.872215341e-05,5.036907606e-04,-1.922643054e-04,2.574148455e-04,6.515054010e-05,4.754196073e-04,2.796945158e-04,7.551141231e-04,3.064099793e-04,-5.319751558e-05,2.532124637e-04
-8.7,4.704847594e-04,7.377594834e-05,5.442607078e-04,-4.285485932e-04,5.603739612e-04,1.318253680e-04,-8.153614126e-05,1.565478154e-05,-6.588135972e-05,-6.766185075e-04,2.737943793e-04,-4.028241281e-04,-7.866672115e-05,-1.911386740e-04,-2.698053952e-04,-9.446342614e-06,2.193752313e-04,2.099288887e-04,-1.486232052e-04,2.301452354e-04,8.152203019e-05,-1.117900344e-04,3.304017568e-04,2.186117224e-04,-1.345258696e-04,3.296166441e-05,-1.015642051e-04,-4.102101010e-05,8.298875160e-05,4.196774150e-05,7.465668152e-04,-2.811075319e-04,4.654592833e-04,7.169682867e-05,7.487092883e-04,8.204061170e-04,1.204537615e-03,6.038049762e-04,1.808342591e-03,-2.499674299e-04,8.814004753e-04,6.314330454e-04,6.398105478e-04,6.293071261e-04,1.269117674e-03,1.075286997e-03,1.153326292e-04,1.190619626e-03,1.205990580e-03,4.920365073e-04,1.698027087e-03,5.497337525e-04,9.656500739e-05,6.462987599e-04,-9.730244532e-05,5.591620886e-04,4.618596432e-04,-3.284127247e-04,3.030215380e-04,-2.539118672e-05,2.042087950e-04,1.641102763e-04,3.683190712e-04,-1.271187892e-04,3.302607765e-04,2.031419873e-04,-3.335188296e-04,-2.118574583e-05,-3.547045755e-04,4.876665439e-04,3.005988507e-04,7.882653946e-04,6.853447602e-04,4.795482452e-04,1.164893005e-03,-6.816883344e-04,8.048059336e-04,1.231175992e-04,7.218699176e-04,1.010338576e-03,1.732208494e-03,-2.852019653e-05,4.982070332e-04,4.696868367e-04,1.375960470e-04,3.054260601e-04,4.430221071e-04,-9.837765336e-04,7.519222632e-04,-2.318542704e-04,6.355324660e-04,3.648905601e-04,1.000423026e-03,5.515482926e-04,5.678855980e-04,1.119433891e-03,5.131581988e-04,-3.839614210e-05,4.747620567e-04,-2.428595792e-04,2.723067822e-04,2.944720297e-05,4.161940398e-04,2.771950448e-04,6.933890846e-04,2.658339058e-04,-5.225449016e-05,2.135794156e-04
-8.6,4.449033755e-04,7.146679999e-05,5.163701755e-04,-4.524318664e-04,5.646812030e-04,1.122493366e-04,-9.646445621e-05,2.048244682e-05,-7.598200939e-05,-6.693773117e-04,2.836927516e-04,-3.856845602e-04,-6.832138273e-05,-1.719026799e-04,-2.402240626e-04,-3.909835076e-05,2.237181057e-04,1.846197549e-04,-1.684988632e-04,2.357719209e-04,6.727305766e-05,-1.385503273e-04,3.310005077e-04,1.924501804e-04,-1.522969397e-04,3.573966723e-05,-1.165572725e-04,-5.439007599e-05,8.805825382e-05,3.366817783e-05,7.054790783e-04,-2.663174596e-04,4.391616187e-04,3.538536535e-05,7.637878359e-04,7.991732013e-04,1.115675234e-03,6.073517958e-04,1.723027030e-03,-3.064242540e-04,8.938151704e-04,5.873909164e-04,5.672402529e-04,6.285417323e-04,1.195781985e-03,1.027836545e-03,1.166531496e-04,1.144489695e-03,1.136933276e-03,4.842989320e-04,1.621232208e-03,5.112453248e-04,9.402591607e-05,6.052712408e-04,-1.390924196e-04,5.411760459e-04,4.020836263e-04,-3.351560046e-04,2.991155777e-04,-3.604042690e-05,2.120941823e-04,1.669172820e-04,3.790114643e-04,-1.530280963e-04,3.319519451e-04,1.789238488e-04,-3.469540304e-04,-1.547947070e-05,-3.624335011e-04,4.573695851e-04,3.016383248e-04,7.590079099e-04,6.312105442e-04,4.966149550e-04,1.127825499e-03,-7.256570420e-04,8.215370885e-04,9.588004649e-05,5.959736512e-04,1.046626885e-03,1.642600536e-03,-8.648734491e-05,5.237989898e-04,4.373116449e-04,8.669189325e-05,3.113528501e-04,3.980447434e-04,-1.021559864e-03,7.480553784e-04,-2.735044854e-04,5.496504885e-04,3.601942209e-04,9.098447095e-04,4.376453560e-04,5.853005433e-04,1.022945899e-03,4.728438162e-04,-2.822733446e-05,4.446164817e-04,-2.923110901e-04,2.851360320e-04,-7.175058166e-06,3.562033535e-04,2.738898898e-04,6.300932433e-04,2.258720479e-04,-5.291177553e-05,1.729602724e-04
-8.5,4.198091414e-04,6.961315318e-05,4.894222946e-04,-4.744333686e-04,5.683225550e-04,9.388918639e-05,-1.107834149e-04,2.592012839e-05,-8.486328647e-05,-6.618585501e-04,2.928785911e-04,-3.689799590e-04,-5.827081100e-05,-1.522653921e-04,-2.105362031e-04,-6.786218301e-05,2.275742739e-04,1.597120909e-04,-1.874376356e-04,2.409822939e-04,5.354465829e-05,-1.651104683e-04,3.312162669e-04,1.661057985e-04,-1.688900728e-04,3.850124480e-05,-1.303888280e-04,-6.843261236e-05,9.321408208e-05,2.478146973e-05,6.634808849e-04,-2.511148624e-04,4.123660224e-04,-5.746622339e-07,7.760951608e-04,7.755204986e-04,1.024464280e-03,6.094614475e-04,1.633925727e-03,-3.622576698e-04,9.044207345e-04,5.421630647e-04,4.921613544e-04,6.269999155e-04,1.119161270e-03,9.768482291e-04,1.175607275e-04,1.094408957e-03,1.065274812e-03,4.754124950e-04,1.540687307e-03,4.696402585e-04,9.174996384e-05,5.613902223e-04,-1.825024509e-04,5.229618780e-04,3.404594271e-04,-3.411343515e-04,2.948804059e-04,-4.625394557e-05,2.170994689e-04,1.694658740e-04,3.865653428e-04,-1.783773017e-04,3.336316574e-04,1.552543557e-04,-3.580347819e-04,-8.932593985e-06,-3.669673759e-04,4.256115612e-04,3.021709761e-04,7.277825372e-04,5.749832436e-04,5.123318560e-04,1.087315100e-03,-7.681894170e-04,8.358765478e-04,6.768713085e-05,4.695950556e-04,1.078903481e-03,1.548498536e-03,-1.463731651e-04,5.483014014e-04,4.019282363e-04,3.552386987e-05,3.161708314e-04,3.516947012e-04,-1.058704648e-03,7.414256863e-04,-3.172789621e-04,4.618489945e-04,3.545705647e-04,8.164195592e-04,3.224521396e-04,6.015892568e-04,9.240413965e-04,4.315529722e-04,-1.827764439e-05,4.132753278e-04,-3.405457743e-04,2.958975377e-04,-4.464823658e-05,2.956110661e-04,2.698453455e-04,5.654564116e-04,1.865551572e-04,-5.504226339e-05,1.315128938e-04
-8.4,3.951662514e-04,6.821598901e-05,4.633822404e-04,-4.945881770e-04,5.712954456e-04,7.670726860e-05,-1.244770128e-04,3.194459511e-05,-9.253241769e-05,-6.541394478e-04,3.013509060e-04,-3.527885418e-04,-4.862533308e-05,-1.322624835e-04,-1.808878166e-04,-9.570317012e-05,2.309324828e-04,1.352293126e-04,-2.054489431e-04,2.457682821e-04,4.031933906e-05,-1.914118439e-04,3.310531125e-04,1.396412686e-04,-1.842506501e-04,4.127581940e-05,-1.429748307e-04,-8.307326306e-05,9.845713108e-05,1.538386801e-05,6.206276180e-04,-2.354311045e-04,3.851965135e-04,-3.610994404e-05,7.856562341e-04,7.495462901e-04,9.311276359e-04,6.103124735e-04,1.541440109e-03,-4.172974109e-04,9.132467114e-04,4.959493005e-04,4.148032724e-04,6.247934418e-04,1.039596714e-03,9.224605233e-04,1.180902344e-04,1.040550758e-03,9.911557136e-04,4.654417967e-04,1.456597510e-03,4.251701088e-04,8.971747085e-05,5.148875797e-04,-2.273697866e-04,5.046088663e-04,2.772390796e-04,-3.463444054e-04,2.903621738e-04,-5.598223164e-05,2.192072208e-04,1.717886536e-04,3.909958745e-04,-2.031309615e-04,3.353406108e-04,1.322096493e-04,-3.668584458e-04,-1.569264335e-06,-3.684277101e-04,3.924843490e-04,3.021995996e-04,6.946839486e-04,5.168015152e-04,5.266882410e-04,1.043489756e-03,-8.092002935e-04,8.478539928e-04,3.865369932e-05,3.436265881e-04,1.106799765e-03,1.450426353e-03,-2.078237941e-04,5.716047833e-04,3.637809892e-04,-1.582059976e-05,3.198800337e-04,3.040594339e-04,-1.095105421e-03,7.322083608e-04,-3.628970605e-04,3.724590280e-04,3.481173553e-04,7.205763834e-04,2.065686610e-04,6.165825550e-04,8.231512159e-04,3.893737979e-04,-8.608271440e-06,3.807655264e-04,-3.874885607e-04,3.046027917e-04,-8.288576901e-05,2.346011652e-04,2.651292198e-04,4.997303850e-04,1.479125358e-04,-5.850111091e-05,8.941142492e-05
-8.3,3.709472349e-04,6.726750930e-05,4.382147442e-04,-5.129379950e-04,5.735927416e-04,6.065474654e-05,-1.375429255e-04,3.852278904e-05,-9.902013651e-05,-6.462802759e-04,3.091121554e-04,-3.371681205e-04,-3.948986072e-05,-1.119327938e-04,-1.514226546e-04,-1.225878870e-04,2.337818664e-04,1.111939794e-04,-2.225517400e-04,2.501198036e-04,2.756806361e-05,-2.173968502e-04,3.305129573e-04,1.131161071e-04,-1.983429824e-04,4.408853255e-05,-1.542544499e-04,-9.822312008e-05,1.037832249e-04,5.560104854e-06,5.769846618e-04,-2.192063273e-04,3.577783345e-04,-7.115275133e-05,7.925212346e-04,7.213684833e-04,8.359203353e-04,6.100805152e-04,1.446000850e-03,-4.713606404e-04,9.203293950e-04,4.489687546e-04,3.354375588e-04,6.220272331e-04,9.574647919e-04,8.648397685e-04,1.182766263e-04,9.831163949e-04,9.147499774e-04,4.544507870e-04,1.369200764e-03,3.781138656e-04,8.790455887e-05,4.660184245e-04,-2.734993546e-04,4.861990526e-04,2.126996980e-04,-3.507867126e-04,2.856030639e-04,-6.518364865e-05,2.184440617e-04,1.739149860e-04,3.923590476e-04,-2.272583023e-04,3.371078178e-04,1.098495154e-04,-3.735585909e-04,6.572714390e-06,-3.669858765e-04,3.581111323e-04,3.017312706e-04,6.598424029e-04,4.568282774e-04,5.396788657e-04,9.965071431e-04,-8.485978419e-04,8.575092123e-04,8.911370408e-06,2.189461525e-04,1.129989500e-03,1.348935653e-03,-2.704499511e-04,5.936013655e-04,3.231514144e-04,-6.724018850e-05,3.224886529e-04,2.552484644e-04,-1.130627336e-03,7.205873203e-04,-4.100400157e-04,2.818435812e-04,3.409315078e-04,6.227750890e-04,9.062268750e-05,6.301155144e-04,7.207382019e-04,3.463996077e-04,7.220462139e-07,3.471216539e-04,-4.330622131e-04,3.112793574e-04,-1.217828558e-04,1.733754330e-04,2.598094383e-04,4.331848714e-04,1.099708985e-04,-6.312684488e-05,4.684405362e-05
-8.2,3.471342465e-04,6.675177103e-05,4.138860175e-04,-5.295301789e-04,5.752025175e-04,4.567233868e-05,-1.499920702e-04,4.561220869e-05,-1.043798615e-04,-6.383217527e-04,3.161680800e-04,-3.221536726e-04,-3.096056909e-05,-9.131780064e-05,-1.222783697e-04,-1.484837830e-04,2.361122126e-04,8.762842958e-05,-2.387724501e-04,2.540249890e-04,1.525253889e-05,-2.430091612e-04,3.295956729e-04,8.658651172e-05,-2.111499037e-04,4.695979467e-05,-1.641901091e-04,-1.137810333e-04,1.091831218e-04,-4.597911451e-06,5.326271981e-04,-2.023908314e-04,3.302363667e-04,-1.056410633e-04,7.967629162e-04,6.911218529e-04,7.391250263e-04,6.089311446e-04,1.348056171e-03,-5.242551927e-04,9.257098457e-04,4.014546530e-04,2.543725600e-04,6.187960812e-04,8.731686412e-04,8.041781831e-04,1.181539667e-04,9.223321498e-04,8.362607308e-04,4.425027449e-04,1.278763476e-03,3.287742703e-04,8.628393233e-05,4.150582027e-04,-3.206663142e-04,4.678063615e-04,1.471400473e-04,-3.544655853e-04,2.806406589e-04,-7.382492640e-05,2.148783268e-04,1.758703806e-04,3.907487074e-04,-2.507333539e-04,3.389500210e-04,8.821666712e-05,-3.783007711e-04,1.544260928e-05,-3.628581618e-04,3.226429633e-04,3.007761662e-04,6.234191295e-04,3.952472855e-04,5.513043179e-04,9.465516034e-04,-8.862841718e-04,8.648909829e-04,-2.139318892e-05,9.639806541e-05,1.148199654e-03,1.244597720e-03,-3.338305589e-04,6.141819748e-04,2.803514159e-04,-1.186215016e-04,3.240126312e-04,2.053911296e-04,-1.165110785e-03,7.067527547e-04,-4.583580305e-04,1.903905168e-04,3.331071108e-04,5.234976276e-04,-2.473983966e-05,6.420273164e-04,6.172874767e-04,3.027281414e-04,9.658639719e-06,3.123867811e-04,-4.771884250e-04,3.159703183e-04,-1.612181066e-04,1.121486570e-04,2.539528759e-04,3.661015329e-04,7.275160071e-05,-6.874231485e-05,4.009285854e-06
-8.1,3.237190174e-04,6.664553200e-05,3.903645494e-04,-5.444176271e-04,5.761079947e-04,3.169036761e-05,-1.618481051e-04,5.316153935e-05,-1.086865657e-04,-6.302838917e-04,3.225274840e-04,-3.077564077e-04,-2.312250990e-05,-7.046102505e-05,-9.358353495e-05,-1.733595642e-04,2.379142357e-04,6.455467150e-05,-2.541436225e-04,2.574704706e-04,3.326848141e-06,-2.681944743e-04,3.282991924e-04,6.010471806e-05,-2.226726853e-04,4.990495051e-05,-1.727677348e-04,-1.296361214e-04,1.146426126e-04,-1.499350871e-05,4.876386773e-04,-1.849461900e-04,3.026924873e-04,-1.395202003e-04,7.984742366e-04,6.589540363e-04,6.410456806e-04,6.070128990e-04,1.248058580e-03,-5.757840660e-04,9.294316673e-04,3.536476013e-04,1.719454539e-04,6.151820137e-04,7.871274676e-04,7.406899134e-04,1.177548477e-04,8.584447611e-04,7.559144985e-04,4.296607695e-04,1.185575268e-03,2.774721069e-04,8.482575401e-05,3.622978610e-04,-3.686208612e-04,4.494958774e-04,8.087501617e-05,-3.573892991e-04,2.755074750e-04,-8.188182408e-05,2.086164406e-04,1.776759977e-04,3.862924382e-04,-2.735354147e-04,3.408715474e-04,6.733613276e-05,-3.812781321e-04,2.497781423e-05,-3.563003179e-04,2.862542475e-04,2.993464142e-04,5.856006617e-04,3.322588502e-04,5.615709188e-04,8.938297691e-04,-9.221576973e-04,8.700557772e-04,-5.210192006e-05,-2.322752179e-05,1.161220897e-03,1.137993375e-03,-3.975197489e-04,6.332341042e-04,2.357143554e-04,-1.698420421e-04,3.244747956e-04,1.546327534e-04,-1.198377734e-03,6.908983596e-04,-5.074793745e-04,9.850416146e-05,3.247336078e-04,4.232377692e-04,-1.388667268e-04,6.521627091e-04,5.132959823e-04,2.584602348e-04,1.815190473e-05,2.766121396e-04,-5.197896445e-04,3.187334938e-04,-2.010561508e-04,5.114240410e-05,2.476245284e-04,2.987669325e-04,3.626743511e-05,-7.515617065e-05,-3.888873554e-05
-8,3.007018181e-04,6.691922278e-05,3.676210409e-04,-5.576590887e-04,5.762876724e-04,1.862858369e-05,-1.731466592e-04,6.111145894e-05,-1.120352002e-04,-6.221661516e-04,3.282019120e-04,-2.939642396e-04,-1.604805507e-05,-4.940743072e-05,-6.545548579e-05,-1.971860364e-04,2.391798150e-04,4.199377862e-05,-2.687030060e-04,2.604416934e-04,-8.261312585e-06,-2.929015069e-04,3.266196636e-04,3.371815679e-05,-2.329308252e-04,5.293410475e-05,-1.799967205e-04,-1.456708427e-04,1.201427464e-04,-2.552809622e-05,4.421087662e-04,-1.668460351e-04,2.752627310e-04,-1.727448260e-04,7.977660654e-04,6.250212393e-04,5.420009540e-04,6.044512262e-04,1.146452180e-03,-6.257502049e-04,9.315389550e-04,3.057887501e-04,8.851320539e-05,6.112526645e-04,6.997658699e-04,6.746059278e-04,1.171102681e-04,7.917161959e-04,6.739549294e-04,4.159884532e-04,1.089943383e-03,2.245392877e-04,8.349861027e-05,3.080378979e-04,-4.170943834e-04,4.313234407e-04,1.422905732e-05,-3.595704352e-04,2.702307997e-04,-8.933963552e-05,1.997983521e-04,1.793484140e-04,3.791467661e-04,-2.956494253e-04,3.428646384e-04,4.721521314e-05,-3.827065740e-04,3.510519809e-05,-3.476013759e-04,2.491377169e-04,2.974550412e-04,5.465927581e-04,2.680752407e-04,5.704902267e-04,8.385654674e-04,-9.561163191e-04,8.730663178e-04,-8.305000135e-05,-1.392145799e-04,1.168916581e-03,1.029702001e-03,-4.610560604e-04,6.506416390e-04,1.895855786e-04,-2.207734184e-04,3.239038192e-04,1.031304008e-04,-1.230238513e-03,6.732187122e-04,-5.570198004e-04,6.596405250e-06,3.158943508e-04,3.224907561e-04,-2.511127699e-04,6.603750517e-04,4.092622818e-04,2.136983932e-04,2.615776006e-05,2.398561533e-04,-5.607906088e-04,3.196400764e-04,-2.411505324e-04,-9.421568355e-06,2.408871474e-04,2.314655790e-04,5.204257101e-07,-8.216531574e-05,-8.164489003e-05
-7.9,2.780901675e-04,6.753789307e-05,3.456280606e-04,-5.693191023e-04,5.757156636e-04,6.396561268e-06,-1.839339245e-04,6.939558691e-05,-1.145383376e-04,-6.139483793e-04,3.332051946e-04,-2.807431847e-04,-9.795764264e-06,-2.820286896e-05,-3.799863322e-05,-2.199368349e-04,2.399022386e-04,1.996540369e-05,-2.824924055e-04,2.629232575e-04,-1.956914800e-05,-3.170827703e-04,3.245517810e-04,7.469010743e-06,-2.419610422e-04,5.605213148e-05,-1.859089107e-04,-1.617637482e-04,1.256601958e-04,-3.610355240e-05,3.961318771e-04,-1.480765087e-04,2.480553684e-04,-2.052802762e-04,7.947648988e-04,5.894846225e-04,4.423189670e-04,6.013440571e-04,1.043663024e-03,-6.739604775e-04,9.320747021e-04,2.581142246e-04,4.444541975e-06,6.070606965e-04,6.115052385e-04,6.061690871e-04,1.162498509e-04,7.224189379e-04,5.906369537e-04,4.015504861e-04,9.921874398e-04,1.703121739e-04,8.227052704e-05,2.525827010e-04,-4.658055392e-04,4.133355888e-04,-5.246995035e-05,-3.610259502e-04,2.648327697e-04,-9.619318050e-05,1.885926411e-04,1.808995488e-04,3.694921899e-04,-3.170656305e-04,3.449101024e-04,2.784447188e-05,-3.828190168e-04,4.574262714e-05,-3.370763896e-04,2.114996429e-04,2.951150162e-04,5.066146591e-04,2.029161835e-04,5.780785967e-04,7.809947801e-04,-9.880601269e-04,8.739900015e-04,-1.140701254e-04,-2.509391814e-04,1.171229968e-03,9.202907866e-04,-5.239719322e-04,6.662862903e-04,1.423143581e-04,-2.712837608e-04,3.223332289e-04,5.104946817e-05,-1.260498169e-03,6.539076178e-04,-6.065905511e-04,-8.492145271e-05,3.066656602e-04,2.217442075e-04,-3.608524485e-04,6.665298763e-04,3.056774278e-04,1.685457098e-04,3.363810808e-05,2.021838179e-04,-6.001187374e-04,3.187726781e-04,-2.813460592e-04,-6.932687899e-05,2.338013106e-04,1.644744316e-04,-3.449837718e-05,-8.955825643e-05,-1.240566336e-04
-7.8,2.558980896e-04,6.846205467e-05,3.243601443e-04,-5.794667435e-04,5.743622448e-04,-5.104498751e-06,-1.942642597e-04,7.794158084e-05,-1.163226788e-04,-6.055919099e-04,3.375528754e-04,-2.680390346e-04,-4.409141448e-06,-6.893598789e-06,-1.130274024e-05,-2.415884465e-04,2.400764917e-04,-1.511954806e-06,-2.955556759e-04,2.648992993e-04,-3.065637662e-05,-3.406945760e-04,3.220893233e-04,-1.860525270e-05,-2.498148402e-04,5.925881233e-05,-1.905560279e-04,-1.777910930e-04,1.311676863e-04,-4.662340674e-05,3.498072805e-04,-1.286364953e-04,2.211707852e-04,-2.371022542e-04,7.896106445e-04,5.525083904e-04,3.423352472e-04,5.977593772e-04,9.400946243e-04,-7.202279096e-04,9.310796511e-04,2.108517415e-04,-7.988516506e-05,6.026439630e-04,5.227587979e-04,5.356306512e-04,1.152022979e-04,6.508329491e-04,5.062223114e-04,3.864131500e-04,8.926354614e-04,1.151265935e-04,8.111002619e-05,1.962366196e-04,-5.144647435e-04,3.955697626e-04,-1.188949809e-04,-3.617765234e-04,2.593305138e-04,-1.024460096e-04,1.751919821e-04,1.823365418e-04,3.575285238e-04,-3.377780605e-04,3.469780797e-04,9.200019213e-06,-3.818585317e-04,5.680056225e-05,-3.250579695e-04,1.735558196e-04,2.923384053e-04,4.658942249e-04,1.370049882e-04,5.843570667e-04,7.213620549e-04,-1.017892432e-03,8.728972467e-04,-1.449951856e-04,-3.578844328e-04,1.168189932e-03,8.103054996e-04,-5.858014530e-04,6.800503149e-04,9.424886191e-05,-3.212385122e-04,3.198005152e-04,-1.437997043e-06,-1.288961280e-03,6.331576365e-04,-6.558036439e-04,-1.756448666e-04,2.971163481e-04,1.214714815e-04,-4.674903109e-04,6.705079573e-04,2.030176464e-04,1.231057525e-04,4.056156190e-05,1.636673144e-04,-6.377030456e-04,3.162231617e-04,-3.214798839e-04,-1.283657180e-04,2.264256861e-04,9.805996813e-05,-6.880651795e-05,-9.711915313e-05,-1.659256711e-04
-7.7,2.341462947e-04,6.964845755e-05,3.037947523e-04,-5.881728586e-04,5.721945816e-04,-1.597827698e-05,-2.041967781e-04,8.667233344e-05,-1.175244446e-04,-5.970404314e-04,3.412615448e-04,-2.557788865e-04,8.498147483e-08,1.447407621e-05,1.455905768e-05,-2.621192851e-04,2.396995558e-04,-2.241972931e-05,-3.079356446e-04,2.663538605e-04,-4.158178418e-05,-3.636960141e-04,3.192257859e-04,-4.447022816e-05,-2.565545621e-04,6.254901709e-05,-1.940055450e-04,-1.936270904e-04,1.366343812e-04,-5.699270916e-05,3.032409794e-04,-1.085377941e-04,1.947031853e-04,-2.681945370e-04,7.824545022e-04,5.142599653e-04,2.423941183e-04,5.937349097e-04,8.361290280e-04,-7.643720445e-04,9.285913930e-04,1.642193485e-04,-1.640958288e-04,5.980260306e-04,4.339302018e-04,4.632487401e-04,1.139960243e-04,5.772447644e-04,4.209770623e-04,3.706446728e-04,7.916217351e-04,5.931519844e-05,7.998725652e-05,1.393024550e-04,-5.627763040e-04,3.780546785e-04,-1.847216255e-04,-3.618451185e-04,2.537363111e-04,-1.081088074e-04,1.598092830e-04,1.836615629e-04,3.434708458e-04,-3.577819395e-04,3.490288616e-04,-8.753077944e-06,-3.800706984e-04,6.818369233e-05,-3.118870061e-04,1.355282718e-04,2.891357008e-04,4.246639725e-04,7.056586915e-05,5.893513953e-04,6.599172645e-04,-1.045518705e-03,8.698597912e-04,-1.756589138e-04,-4.596513978e-04,1.159915180e-03,7.002637827e-04,-6.460850640e-04,6.918195765e-04,4.573451250e-05,-3.704996149e-04,3.163463080e-04,-5.415330690e-05,-1.315434255e-03,6.111599802e-04,-7.042742746e-04,-2.651798151e-04,2.873076120e-04,2.212779694e-05,-5.704684212e-04,6.722077630e-04,1.017393418e-04,7.748385046e-05,4.690410510e-05,1.243879556e-04,-6.734717557e-04,3.120905804e-04,-3.613811753e-04,-1.863392337e-04,2.188171592e-04,3.247792546e-05,-1.024253344e-04,-1.046324540e-04,-2.070577884e-04
-7.6,2.128629131e-04,7.105085131e-05,2.839137644e-04,-5.955063361e-04,5.691774999e-04,-2.632883627e-05,-2.137914029e-04,9.550714719e-05,-1.182842557e-04,-5.882207413e-04,3.443480815e-04,-2.438726598e-04,3.678101921e-06,3.585399473e-05,3.953209665e-05,-2.815081597e-04,2.387706503e-04,-4.273750948e-05,-3.196704464e-04,2.672711848e-04,-5.239926156e-05,-3.860471848e-04,3.159549338e-04,-7.009225107e-05,-2.622487005e-04,6.591290610e-05,-1.963357944e-04,-2.091435133e-04,1.420261966e-04,-6.711731671e-05,2.565483117e-04,-8.780526821e-05,1.687430435e-04,-2.985455889e-04,7.734568989e-04,4.749113100e-04,1.428510891e-04,5.892800522e-04,7.321311413e-04,-8.062183963e-04,9.246435486e-04,1.184251523e-04,-2.478030666e-04,5.932168301e-04,3.454137635e-04,3.892883022e-04,1.126597846e-04,5.019480868e-04,3.351709204e-04,3.543152833e-04,6.894862037e-04,3.206515458e-06,7.887517982e-05,8.208169528e-05,-6.104388671e-04,3.608107354e-04,-2.496281317e-04,-3.612552154e-04,2.480578796e-04,-1.131973357e-04,1.426742293e-04,1.848717362e-04,3.275459655e-04,-3.770707862e-04,3.510139299e-04,-2.605685626e-05,-3.776960885e-04,7.979257809e-05,-2.979035104e-04,9.764219585e-05,2.855153525e-04,3.831575484e-04,3.822616188e-06,5.930919004e-04,5.969145166e-04,-1.070844171e-03,8.649489328e-04,-2.058952385e-04,-5.559651267e-04,1.146615952e-03,5.906508250e-04,-7.043719464e-04,7.014861495e-04,-2.885796930e-06,-4.189241226e-04,3.120136288e-04,-1.069104937e-04,-1.339725504e-03,5.881038060e-04,-7.516216976e-04,-3.531449530e-04,2.772932926e-04,-7.585166036e-05,-6.692714637e-04,6.715477150e-04,2.276251269e-06,3.178940848e-05,5.264925777e-05,8.443866624e-05,-7.073492813e-04,3.064792183e-04,-4.008700630e-04,-2.430561354e-04,2.110306391e-04,-3.202549631e-05,-1.353741447e-04,-1.118877581e-04,-2.472619028e-04
-7.5,1.920839452e-04,7.262071279e-05,2.647046580e-04,-6.015305293e-04,5.652741711e-04,-3.625635816e-05,-2.231051381e-04,1.043627891e-04,-1.187423489e-04,-5.790439323e-04,3.468288135e-04,-2.322151189e-04,6.381016852e-06,5.720012116e-05,6.358113801e-05,-2.997327994e-04,2.372913972e-04,-6.244140219e-05,-3.307901561e-04,2.676359619e-04,-6.315419423e-05,-4.077072750e-04,3.122711614e-04,-9.543611360e-05,-2.669676341e-04,6.933621289e-05,-1.976314213e-04,-2.242097782e-04,1.473061283e-04,-7.690364989e-05,2.098557314e-04,-6.647686071e-05,1.433788707e-04,-3.281454897e-04,7.627853709e-04,4.346398812e-04,4.407284697e-05,5.843797750e-04,6.284526220e-04,-8.455982505e-04,9.192649235e-04,7.366667300e-05,-3.306193039e-04,5.882132908e-04,2.575939869e-04,3.140216268e-04,1.112229761e-04,4.252446029e-04,2.490775490e-04,3.374968269e-04,5.865743758e-04,-5.287573284e-05,7.775064346e-05,2.487491062e-05,-6.571457382e-04,3.438502953e-04,-3.132954430e-04,-3.600292964e-04,2.422988543e-04,-1.177304421e-04,1.240297287e-04,1.859592903e-04,3.099890190e-04,-3.956340077e-04,3.528773425e-04,-4.275666521e-05,-3.749637438e-04,9.152524836e-05,-2.834384954e-04,6.012267618e-05,2.814834276e-04,3.416061037e-04,-6.300177939e-05,5.956128518e-04,5.326110724e-04,-1.093771543e-03,8.582337127e-04,-2.355378299e-04,-6.466745494e-04,1.128590914e-03,4.819163644e-04,-7.602226772e-04,7.089505195e-04,-5.127215767e-05,-4.663634440e-04,3.068472254e-04,-1.595162186e-04,-1.361645249e-03,5.641746958e-04,-7.974705531e-04,-4.391733085e-04,2.671204961e-04,-1.720528124e-04,-7.634305532e-04,6.684685424e-04,-9.496201085e-05,-1.386174966e-05,5.778772247e-05,4.392597282e-05,-7.392535686e-04,2.994966656e-04,-4.397569029e-04,-2.983312476e-04,2.031186142e-04,-9.521263343e-05,-1.676653520e-04,-1.186842630e-04,-2.863496150e-04
-7.4,1.718527645e-04,7.430788791e-05,2.461606524e-04,-6.063007216e-04,5.604466908e-04,-4.585403085e-05,-2.321891280e-04,1.131544490e-04,-1.190346790e-04,-5.694075237e-04,3.487186751e-04,-2.206888487e-04,8.223516361e-06,7.846637340e-05,8.668988976e-05,-3.167689557e-04,2.352659570e-04,-8.150299877e-05,-3.413144239e-04,2.674336031e-04,-7.388082080e-05,-4.286329489e-04,3.081696677e-04,-1.204632812e-04,-2.707806002e-04,7.280065973e-05,-1.979799405e-04,-2.386942604e-04,1.524346852e-04,-8.625957514e-05,1.633007966e-04,-4.460335457e-05,1.186974420e-04,-3.569838000e-04,7.506122131e-04,3.936284131e-04,-5.356633861e-05,5.789992799e-04,5.254329413e-04,-8.823493433e-04,9.124785310e-04,3.012918768e-05,-4.121567024e-04,5.829999171e-04,1.708432147e-04,2.377285407e-04,1.097154966e-04,3.474440373e-04,1.629748231e-04,3.202620720e-04,4.832368952e-04,-1.086141663e-04,7.659513398e-05,-3.201903233e-05,-7.025863521e-04,3.271778163e-04,-3.754085358e-04,-3.581878542e-04,2.364593240e-04,-1.217285302e-04,1.041280124e-04,1.869118219e-04,2.910398343e-04,-4.134552156e-04,3.545572651e-04,-5.889795045e-05,-3.720860508e-04,1.032787008e-04,-2.688073500e-04,2.319104327e-05,2.770433032e-04,3.002343465e-04,-1.296852015e-04,5.969514350e-04,4.672662335e-04,-1.114200041e-03,8.497791492e-04,-2.644208922e-04,-7.317450778e-04,1.106217182e-03,3.744721040e-04,-8.132144048e-04,7.141240105e-04,-9.909039429e-05,-5.126637706e-04,3.008929765e-04,-2.117707941e-04,-1.381006369e-03,5.395525242e-04,-8.414538447e-04,-5.229140712e-04,2.568303699e-04,-2.660837014e-04,-8.525264477e-04,6.629358025e-04,-1.895906452e-04,-5.934583130e-05,6.231676523e-05,2.970933938e-06,-7.690946838e-04,2.912520998e-04,-4.778425840e-04,-3.519850844e-04,1.951306012e-04,-1.568544832e-04,-1.993015118e-04,-1.248343215e-04,-3.241358333e-04
-7.3,1.522185045e-04,7.606115405e-05,2.282796586e-04,-6.098629158e-04,5.546566622e-04,-5.520625359e-05,-2.410867033e-04,1.217967056e-04,-1.192899977e-04,-5.591987275e-04,3.500304632e-04,-2.091682643e-04,9.252639770e-06,9.960638797e-05,1.088590277e-04,-3.325902188e-04,2.327011536e-04,-9.988906517e-05,-3.512513378e-04,2.666506055e-04,-8.460073232e-05,-4.487772084e-04,3.036465138e-04,-1.451306946e-04,-2.737540492e-04,7.628448573e-05,-1.974695635e-04,-2.524668708e-04,1.573704332e-04,-9.509643758e-05,1.170303425e-04,-2.224786343e-05,9.478247903e-05,-3.850480851e-04,7.371117880e-04,3.520637030e-04,-1.496906500e-04,5.730882001e-04,4.233975501e-04,-9.163171987e-04,9.043005013e-04,-1.201669741e-05,-4.920317533e-04,5.775494096e-04,8.551765632e-05,1.606958587e-04,1.081673669e-04,2.688632256e-04,7.714454548e-05,3.026839981e-04,3.798285436e-04,-1.637004311e-04,7.539514405e-05,-8.830528702e-05,-7.464492732e-04,3.107900574e-04,-4.356592158e-04,-3.557488710e-04,2.305362788e-04,-1.252125922e-04,8.322648688e-05,1.877125200e-04,2.709390069e-04,-4.305110531e-04,3.559873301e-04,-7.452372300e-05,-3.692549472e-04,1.149503235e-04,-2.543046237e-04,-1.293897779e-05,2.721954094e-04,2.592564316e-04,-1.960066868e-04,5.971465787e-04,4.011398919e-04,-1.132026151e-03,8.396448116e-04,-2.923813397e-04,-8.112443420e-04,1.079933621e-03,2.686892791e-04,-8.629488786e-04,7.169317968e-04,-1.460170817e-04,-5.576675425e-04,2.941974645e-04,-2.634700780e-04,-1.397626157e-03,5.144087121e-04,-8.832174450e-04,-6.040343391e-04,2.464587493e-04,-3.575755899e-04,-9.361921206e-04,6.549423694e-04,-2.812497511e-04,-1.045306001e-04,6.623956221e-05,-3.829103790e-05,-7.967751386e-04,2.818550778e-04,-5.149200609e-04,-4.038443958e-04,1.871125437e-04,-2.167318521e-04,-2.302740678e-04,-1.301662129e-04,-3.604402806e-04
-7.2,1.332336046e-04,7.782876177e-05,2.110623663e-04,-6.122536806e-04,5.478659441e-04,-6.438773655e-05,-2.498322580e-04,1.302045622e-04,-1.196276959e-04,-5.482986499e-04,3.507742406e-04,-1.975244094e-04,9.529732642e-06,1.205732815e-04,1.301030141e-04,-3.471683345e-04,2.296065466e-04,-1.175617878e-04,-3.605972891e-04,2.652749750e-04,-9.532231414e-05,-4.680885850e-04,2.986986260e-04,-1.693899590e-04,-2.759509772e-04,7.976302521e-05,-1.961879520e-04,-2.654023290e-04,1.620705950e-04,-1.033317340e-04,7.119752938e-05,5.148866628e-07,7.171241605e-05,-4.123225935e-04,7.224575992e-04,3.101350057e-04,-2.439295230e-04,5.665842706e-04,3.226547476e-04,-9.473566500e-04,8.947391918e-04,-5.261745821e-05,-5.698703707e-04,5.718234284e-04,1.953057700e-06,8.321623142e-05,1.066083360e-04,1.898245674e-04,-8.128201497e-06,2.848351872e-04,2.767069857e-04,-2.178385638e-04,7.414219189e-05,-1.436963719e-04,-7.884262727e-04,2.946765818e-04,-4.937496909e-04,-3.527276195e-04,2.245240150e-04,-1.282036045e-04,6.158356731e-05,1.883403918e-04,2.499239591e-04,-4.467703244e-04,3.570977789e-04,-8.967254550e-05,-3.666390892e-04,1.264392800e-04,-2.401998092e-04,-4.806497094e-05,2.669371210e-04,2.188721501e-04,-2.617468414e-04,5.962378642e-04,3.344910228e-04,-1.147145824e-03,8.278840841e-04,-3.192617401e-04,-8.853232469e-04,1.050220133e-03,1.648968859e-04,-9.090619735e-04,7.173162382e-04,-1.917457353e-04,-6.012153164e-04,2.868078827e-04,-3.144074337e-04,-1.411328096e-03,4.889030529e-04,-9.224250431e-04,-6.822204886e-04,2.360366610e-04,-4.461838276e-04,-1.014113976e-03,6.445101485e-04,-3.696038272e-04,-1.492758563e-04,6.956463181e-05,-7.971122453e-05,-8.221918043e-04,2.714149340e-04,-5.507768703e-04,-4.537430375e-04,1.791061806e-04,-2.746368568e-04,-2.605625750e-04,-1.345267037e-04,-3.950892786e-04
-7.1,1.149511363e-04,7.955897045e-05,1.945101067e-04,-6.135003780e-04,5.400376250e-04,-7.346275293e-05,-2.584505225e-04,1.382945191e-04,-1.201560034e-04,-5.365868715e-04,3.509568302e-04,-1.856300413e-04,9.126875520e-06,1.413193978e-04,1.504462733e-04,-3.604735745e-04,2.259944115e-04,-1.344791630e-04,-3.693372573e-04,2.632966473e-04,-1.060406100e-04,-4.865103316e-04,2.933238089e-04,-1.931865227e-04,-2.774304559e-04,8.320930546e-05,-1.942211504e-04,-2.773831899e-04,1.664916618e-04,-1.108915281e-04,2.595888406e-05,2.359944297e-05,4.955832703e-05,-4.387866146e-04,7.068193644e-04,2.680327498e-04,-3.359235284e-04,5.594172294e-04,2.234937010e-04,-9.753328878e-04,8.837948977e-04,-9.153799014e-05,-6.453116734e-04,5.657734458e-04,-7.953822755e-05,5.587099818e-06,1.050674167e-04,1.106545165e-04,-9.255544348e-05,2.667872563e-04,1.742318128e-04,-2.707480810e-04,7.283251510e-05,-1.979155659e-04,-8.282163671e-04,2.788204878e-04,-5.493958792e-04,-3.491365478e-04,2.184146596e-04,-1.307218882e-04,3.945481846e-05,1.887706622e-04,2.282254807e-04,-4.621932244e-04,3.578165901e-04,-1.043766344e-04,-3.643814269e-04,1.376478409e-04,-2.267335859e-04,-8.199885588e-05,2.612628436e-04,1.792639877e-04,-3.266877151e-04,5.942643066e-04,2.675765915e-04,-1.159457214e-03,8.145442513e-04,-3.449129623e-04,-9.541945542e-04,1.017576274e-03,6.338172020e-05,-9.512323907e-04,7.152399545e-04,-2.359924362e-04,-6.431470655e-04,2.787722645e-04,-3.643748010e-04,-1.421942959e-03,4.631808152e-04,-9.587621443e-04,-7.571786928e-04,2.255908469e-04,-5.315878459e-04,-1.086030838e-03,6.316901669e-04,-4.543406707e-04,-1.934344597e-04,7.230541343e-05,-1.211290463e-04,-8.452385706e-04,2.600405693e-04,-5.851980013e-04,-5.015223327e-04,1.711484599e-04,-3.303738728e-04,-2.901330520e-04,-1.377839453e-04,-4.279169972e-04
-7,9.742275140e-05,8.120051913e-05,1.786232705e-04,-6.136208680e-04,5.311371559e-04,-8.248371206e-05,-2.669556504e-04,1.459856193e-04,-1.209700311e-04,-5.239456300e-04,3.505813198e-04,-1.733643102e-04,8.123486522e-06,1.617960049e-04,1.699194914e-04,-3.724746527e-04,2.218796610e-04,-1.505949917e-04,-3.774447970e-04,2.607078910e-04,-1.167369061e-04,-5.039792370e-04,2.875208546e-04,-2.164583825e-04,-2.782465192e-04,8.659467010e-05,-1.916518491e-04,-2.883016570e-04,1.705900024e-04,-1.177116546e-04,-1.852749779e-05,4.691065519e-05,2.838315740e-05,-4.644119974e-04,6.903603066e-04,2.259483092e-04,-4.253275281e-04,5.515134311e-04,1.261859030e-04,-1.000121194e-03,8.714602559e-04,-1.286609382e-04,-7.180088172e-04,5.593416183e-04,-1.586671989e-04,-7.188931987e-05,1.035721850e-04,3.168286516e-05,-1.758459079e-04,2.486103672e-04,7.276445932e-05,-3.221656632e-04,7.146646034e-05,-2.506992029e-04,-8.655284698e-04,2.631991167e-04,-6.023293531e-04,-3.449848791e-04,2.121988190e-04,-1.327860600e-04,1.708986075e-05,1.889753629e-04,2.060652236e-04,-4.767303380e-04,3.580706801e-04,-1.186596579e-04,-3.625967003e-04,1.484825714e-04,-2.141141289e-04,-1.145687307e-04,2.551642298e-04,1.405954992e-04,-3.906113464e-04,5.912625860e-04,2.006512396e-04,-1.168862530e-03,7.996671898e-04,-3.691953402e-04,-1.018110564e-03,9.825018428e-04,-3.560872124e-05,-9.891870543e-04,7.106882090e-04,-2.784988453e-04,-6.833020298e-04,2.701397642e-04,-4.131622656e-04,-1.429308688e-03,4.373706301e-04,-9.919380576e-04,-8.286340004e-04,2.151442935e-04,-6.134897070e-04,-1.151730333e-03,6.165608041e-04,-5.351695291e-04,-2.368533445e-04,7.448012408e-05,-1.623732204e-04,-8.658085726e-04,2.478403659e-04,-6.179682067e-04,-5.470301198e-04,1.632711075e-04,-3.837590123e-04,-3.189347965e-04,-1.398307117e-04,-4.587655082e-04
-6.9,8.069787418e-05,8.270298670e-05,1.634008609e-04,-6.126220592e-04,5.211335017e-04,-9.148855757e-05,-2.753497190e-04,1.532004432e-04,-1.221492758e-04,-5.102629557e-04,3.496465530e-04,-1.606164027e-04,6.603780465e-06,1.819529435e-04,1.885567240e-04,-3.831379167e-04,2.172797477e-04,-1.658581690e-04,-3.848812860e-04,2.575036991e-04,-1.273775869e-04,-5.204239020e-04,2.812897873e-04,-2.391341147e-04,-2.784459931e-04,8.988940861e-05,-1.885565845e-04,-2.980597206e-04,1.743224290e-04,-1.237372916e-04,-6.210202478e-05,7.034477340e-05,8.242748618e-06,-4.891595734e-04,6.732347411e-04,1.840751677e-04,-5.118101844e-04,5.428008522e-04,3.099066779e-05,-1.021604995e-03,8.577211214e-04,-1.638838740e-04,-7.876265975e-04,5.524617550e-04,-2.351648424e-04,-1.489045661e-04,1.021478542e-04,-4.675671192e-05,-2.577038271e-04,2.303730476e-04,-2.733077948e-05,-3.718447371e-04,7.004767197e-05,-3.017970652e-04,-9.000819197e-04,2.477847323e-04,-6.522971874e-04,-3.402776460e-04,2.058661358e-04,-1.344115102e-04,-5.269586099e-06,1.889239203e-04,1.836543342e-04,-4.903211979e-04,3.577870316e-04,-1.325341664e-04,-3.613688319e-04,1.588552869e-04,-2.025135449e-04,-1.456194397e-04,2.486304614e-04,1.030110217e-04,-4.532967678e-04,5.872646096e-04,1.339678418e-04,-1.175267911e-03,7.832902724e-04,-3.919776389e-04,-1.077341994e-03,9.454816218e-04,-1.318603721e-04,-1.022701957e-03,7.036705152e-04,-3.190314421e-04,-7.215170714e-04,2.609607161e-04,-4.605563553e-04,-1.433268763e-03,4.115830433e-04,-1.021685720e-03,-8.963278440e-04,2.047165247e-04,-6.916113193e-04,-1.211043308e-03,5.992245721e-04,-6.118187360e-04,-2.793742182e-04,7.611209275e-05,-2.032621254e-04,-8.837951176e-04,2.349221213e-04,-6.488729963e-04,-5.901182086e-04,1.555004012e-04,-4.346178074e-04,-3.468962575e-04,-1.405873204e-04,-4.874835780e-04
-6.8,6.482403144e-05,8.401708129e-05,1.488411127e-04,-6.104975427e-04,5.100001900e-04,-1.004973527e-04,-2.836207781e-04,1.598660430e-04,-1.237547351e-04,-4.954346661e-04,3.481466680e-04,-1.472879981e-04,4.655154161e-06,2.017382668e-04,2.063934209e-04,-3.924260484e-04,2.122145034e-04,-1.802115450e-04,-3.915946792e-04,2.536821463e-04,-1.379125330e-04,-5.357627976e-04,2.746321810e-04,-2.611306165e-04,-2.780656675e-04,9.306332773e-05,-1.850023397e-04,-3.065680601e-04,1.776466519e-04,-1.289214082e-04,-1.046025165e-04,9.379049645e-05,-1.081202003e-05,-5.129750624e-04,6.555858593e-04,1.426107970e-04,-5.950509337e-04,5.332136556e-04,-6.183727804e-05,-1.039673079e-03,8.425576571e-04,-1.971154214e-04,-8.538374902e-04,5.450605711e-04,-3.087769192e-04,-2.251415500e-04,1.008162988e-04,-1.243252512e-04,-3.378276781e-04,2.121424829e-04,-1.256851951e-04,-4.195533898e-04,6.858224094e-05,-3.509711489e-04,-9.316055038e-04,2.325454464e-04,-6.990600574e-04,-3.350143192e-04,1.994055812e-04,-1.356087380e-04,-2.739060880e-05,1.885836032e-04,1.611929944e-04,-5.028927362e-04,3.568936123e-04,-1.459991239e-04,-3.607487804e-04,1.686837634e-04,-1.920650170e-04,-1.750123845e-04,2.416486157e-04,6.663623120e-05,-5.145162000e-04,5.822947700e-04,6.777857007e-05,-1.178581473e-03,7.654471651e-04,-4.131343077e-04,-1.132160413e-03,9.069755405e-04,-2.251848727e-04,-1.051599410e-03,6.942214187e-04,-3.573779916e-04,-7.576246625e-04,2.512864776e-04,-5.063381849e-04,-1.433669961e-03,3.859095848e-04,-1.047760376e-03,-9.600147279e-04,1.943234248e-04,-7.656913031e-04,-1.263838035e-03,5.798041997e-04,-6.840338354e-04,-3.208341282e-04,7.723054445e-05,-2.436035838e-04,-8.990912683e-04,2.213928985e-04,-6.776983698e-04,-6.306390446e-04,1.478570773e-04,-4.827819673e-04,-3.739216034e-04,-1.400032952e-04,-5.139248987e-04
-6.7,4.984748254e-05,8.509493805e-05,1.349424206e-04,-6.072254029e-04,4.977161641e-04,-1.095092388e-04,-2.917410948e-04,1.659147668e-04,-1.258263279e-04,-4.793657475e-04,3.460707553e-04,-1.332949922e-04,2.366898437e-06,2.210978988e-04,2.234647973e-04,-4.002969435e-04,2.067058131e-04,-1.935911304e-04,-3.975185940e-04,2.492446444e-04,-1.482739496e-04,-5.499028157e-04,2.675514134e-04,-2.823514023e-04,-2.771298027e-04,9.608622469e-05,-1.810435780e-04,-3.137447934e-04,1.805216041e-04,-1.332231893e-04,-1.458633009e-04,1.171299215e-04,-2.873337938e-05,-5.357858394e-04,6.375436050e-04,1.017577656e-04,-6.747370228e-04,5.226956255e-04,-1.520413973e-04,-1.054217535e-03,8.259454151e-04,-2.282721200e-04,-9.163188251e-04,5.370593529e-04,-3.792594721e-04,-3.002726254e-04,9.959514413e-05,-2.006774813e-04,-4.159098562e-04,1.939850067e-04,-2.219248495e-04,-4.650720578e-04,6.707793143e-05,-3.979941263e-04,-9.598366373e-04,2.174465292e-04,-7.423901080e-04,-3.291876257e-04,1.928055794e-04,-1.363820463e-04,-4.904953863e-05,1.879199341e-04,1.388703955e-04,-5.143583965e-04,3.553201675e-04,-1.590382290e-04,-3.607536148e-04,1.778922443e-04,-1.828613705e-04,-2.026253353e-04,2.342041785e-04,3.157884318e-05,-5.740318678e-04,5.763675874e-04,2.335719521e-06,-1.178711008e-03,7.461683788e-04,-4.325426294e-04,-1.182824894e-03,8.674132783e-04,-3.154116160e-04,-1.075743951e-03,6.824001273e-04,-3.933438232e-04,-7.914519870e-04,2.411692324e-04,-5.502827546e-04,-1.430361300e-03,3.604225729e-04,-1.069938727e-03,-1.019459304e-03,1.839765590e-04,-8.354827448e-04,-1.310016307e-03,5.584389871e-04,-7.515773197e-04,-3.610663607e-04,7.787143083e-05,-2.831949299e-04,-9.115888777e-04,2.073585521e-04,-7.042303256e-04,-6.684431034e-04,1.403562242e-04,-5.280868792e-04,-3.998897200e-04,-1.380571848e-04,-5.379469048e-04
-6.6,3.581324662e-05,8.589045367e-05,1.217037003e-04,-6.027673354e-04,4.842663729e-04,-1.185009625e-04,-2.996662514e-04,1.712849055e-04,-1.283813459e-04,-4.619717974e-04,3.434026588e-04,-1.185691387e-04,-1.714617769e-07,2.399753109e-04,2.398038491e-04,-4.067034397e-04,2.007770987e-04,-2.059263410e-04,-4.025725070e-04,2.441960602e-04,-1.583764469e-04,-5.627389348e-04,2.600527678e-04,-3.026861670e-04,-2.756488720e-04,9.892830709e-05,-1.767205649e-04,-3.195150304e-04,1.829077132e-04,-1.366073171e-04,-1.857156813e-04,1.402394857e-04,-4.547619557e-05,-5.574998480e-04,6.192227183e-04,6.172287034e-05,-7.505628117e-04,5.112023855e-04,-2.393604262e-04,-1.065133525e-03,8.078562872e-04,-2.572772382e-04,-9.747530443e-04,5.283760684e-04,-4.463769759e-04,-3.739593207e-04,9.849694119e-05,-2.754623795e-04,-4.916377501e-04,1.759661715e-04,-3.156715786e-04,-5.081924010e-04,6.554350123e-05,-4.426488998e-04,-9.845221010e-04,2.024518957e-04,-7.820702053e-04,-3.227831473e-04,1.860541865e-04,-1.367289607e-04,-7.003256986e-05,1.868972767e-04,1.168647068e-04,-5.246185395e-04,3.529990903e-04,-1.716194492e-04,-3.613672291e-04,1.864117878e-04,-1.749554413e-04,-2.283526949e-04,2.262817003e-04,-2.070994650e-06,-6.315947081e-04,5.694863228e-04,-6.210838537e-05,-1.175562924e-03,7.254815722e-04,-4.500813522e-04,-1.229571869e-03,8.271911937e-04,-4.023806757e-04,-1.095038577e-03,6.682885672e-04,-4.267500101e-04,-8.228218422e-04,2.306617751e-04,-5.921600671e-04,-1.423195553e-03,3.351759203e-04,-1.088019632e-03,-1.074434803e-03,1.736822446e-04,-9.007525584e-04,-1.349512636e-03,5.352823101e-04,-8.142303262e-04,-3.999019548e-04,7.807780297e-05,-3.218241518e-04,-9.211781637e-04,1.929228032e-04,-7.282553605e-04,-7.033782219e-04,1.330071207e-04,-5.703711011e-04,-4.246563890e-04,-1.347547481e-04,-5.594111371e-04
-6.5,2.276413576e-05,8.635962428e-05,1.091237600e-04,-5.970695202e-04,4.696420759e-04,-1.274274443e-04,-3.073353817e-04,1.759211645e-04,-1.314142173e-04,-4.431808648e-04,3.401209302e-04,-1.030599346e-04,-2.872469209e-06,2.583112272e-04,2.554387580e-04,-4.115942052e-04,1.944527285e-04,-2.171414767e-04,-4.066633492e-04,2.385447171e-04,-1.681186321e-04,-5.741552058e-04,2.521434078e-04,-3.220117981e-04,-2.736198834e-04,1.015606397e-04,-1.720592437e-04,-3.238115841e-04,1.847672387e-04,-1.390443454e-04,-2.239901332e-04,1.629910438e-04,-6.099908937e-05,-5.780071306e-04,6.007211212e-04,2.271399057e-05,-8.222321350e-04,4.987028024e-04,-3.235293326e-04,-1.072321032e-03,7.882594355e-04,-2.840615967e-04,-1.028831470e-03,5.189279513e-04,-5.099035186e-04,-4.458541853e-04,9.752852172e-05,-3.483256636e-04,-5.646960263e-04,1.581500328e-04,-4.065459936e-04,-5.487179326e-04,6.398807751e-05,-4.847298551e-04,-1.005420646e-03,1.875253946e-04,-8.178952515e-04,-3.157798679e-04,1.791393813e-04,-1.366404866e-04,-9.013685299e-05,1.854796274e-04,9.534277440e-05,-5.335622401e-04,3.498664354e-04,-1.836958047e-04,-3.625426298e-04,1.941804678e-04,-1.683621620e-04,-2.521062066e-04,2.178655251e-04,-3.424068144e-05,-6.869452917e-04,5.616426124e-04,-1.253026793e-04,-1.169043037e-03,7.034116362e-04,-4.656314010e-04,-1.272607770e-03,7.866708160e-04,-4.859369537e-04,-1.109421657e-03,6.519877672e-04,-4.574338901e-04,-8.515550686e-04,2.198171167e-04,-6.317379520e-04,-1.412033285e-03,3.102070449e-04,-1.101826240e-03,-1.124723249e-03,1.634408349e-04,-9.612824146e-04,-1.382296262e-03,5.105005436e-04,-8.717957184e-04,-4.371717374e-04,7.789943596e-05,-3.592723014e-04,-9.277486484e-04,1.781861456e-04,-7.495625029e-04,-7.352911802e-04,1.258131509e-04,-6.094780293e-04,-4.480591093e-04,-1.301263072e-04,-5.781854165e-04
-6.4,1.073889958e-05,8.646087765e-05,9.719977723e-05,-5.900650300e-04,4.538409286e-04,-1.362241014e-04,-3.146724660e-04,1.797750587e-04,-1.348974073e-04,-4.229356375e-04,3.361989882e-04,-8.673664924e-05,-5.653488360e-06,2.760434153e-04,2.703899269e-04,-4.149156863e-04,1.877574962e-04,-2.271581901e-04,-4.096883073e-04,2.323023307e-04,-1.773859766e-04,-5.840269142e-04,2.438323224e-04,-3.401945918e-04,-2.710280480e-04,1.039556327e-04,-1.670724152e-04,-3.265765978e-04,1.860647207e-04,-1.405118771e-04,-2.605197996e-04,1.852531332e-04,-7.526666647e-05,-5.971835675e-04,5.821187122e-04,-1.506485532e-05,-8.894631791e-04,4.851799293e-04,-4.042832498e-04,-1.075688149e-03,7.671224731e-04,-3.085656755e-04,-1.078260750e-03,5.086345772e-04,-5.696261725e-04,-5.156045406e-04,9.669071992e-05,-4.189138207e-04,-6.347697934e-04,1.405978872e-04,-4.941719062e-04,-5.864661935e-04,6.242060036e-05,-5.240455932e-04,-1.022307014e-03,1.726317242e-04,-8.496752900e-04,-3.081514117e-04,1.720493386e-04,-1.361020731e-04,-1.091719447e-04,1.836314218e-04,7.445947711e-05,-5.410700632e-04,3.458629052e-04,-1.952071580e-04,-3.642053590e-04,2.011434494e-04,-1.630619096e-04,-2.738157885e-04,2.089405393e-04,-6.487524919e-05,-7.398164593e-04,5.528167622e-04,-1.869996971e-04,-1.159058921e-03,6.799806215e-04,-4.790782995e-04,-1.312105215e-03,7.461794816e-04,-5.659257338e-04,-1.118864303e-03,6.336130130e-04,-4.852512897e-04,-8.774738469e-04,2.086878106e-04,-6.687860363e-04,-1.396748329e-03,2.855396915e-04,-1.111208637e-03,-1.170117262e-03,1.532466133e-04,-1.016870648e-03,-1.408374395e-03,4.842727082e-04,-9.241016867e-04,-4.727085996e-04,7.739171503e-05,-3.953168845e-04,-9.311916492e-04,1.632450448e-04,-7.679466044e-04,-7.640310679e-04,1.187719751e-04,-6.452590928e-04,-4.699233237e-04,-1.242239267e-04,-5.941472504e-04
-6.3,-2.301185941e-07,8.615546813e-05,8.592534954e-05,-5.816771584e-04,4.368669890e-04,-1.448101694e-04,-3.215883505e-04,1.828053384e-04,-1.387830121e-04,-4.011956450e-04,3.316055294e-04,-6.959011564e-05,-8.439436922e-06,2.931066157e-04,2.846671788e-04,-4.166146949e-04,1.807162087e-04,-2.358984861e-04,-4.115383146e-04,2.254838749e-04,-1.860544396e-04,-5.922235171e-04,2.351302972e-04,-3.570932199e-04,-2.678490967e-04,1.060875012e-04,-1.617615955e-04,-3.277633645e-04,1.867674764e-04,-1.409958881e-04,-2.951442956e-04,2.068923522e-04,-8.825194340e-05,-6.148956672e-04,5.634764992e-04,-5.141916796e-05,-9.519940599e-04,4.706314392e-04,-4.813626207e-04,-1.075154953e-03,7.444130260e-04,-3.307419269e-04,-1.122770153e-03,4.974211529e-04,-6.253489997e-04,-5.828574184e-04,9.597851503e-05,-4.868789034e-04,-7.015483253e-04,1.233669808e-04,-5.781813445e-04,-6.212717478e-04,6.084939496e-05,-5.604223528e-04,-1.034976660e-03,1.577371608e-04,-8.772394993e-04,-2.998675174e-04,1.647725968e-04,-1.350949206e-04,-1.269612749e-04,1.813181893e-04,5.435691441e-05,-5.470171645e-04,3.409346089e-04,-2.060825555e-04,-3.662574138e-04,2.072529962e-04,-1.590044176e-04,-2.934300207e-04,1.994929601e-04,-9.393706052e-05,-7.899369274e-04,5.429784850e-04,-2.469584425e-04,-1.145523015e-03,6.552076643e-04,-4.903153506e-04,-1.348202637e-03,7.060121636e-04,-6.421904737e-04,-1.123368100e-03,6.132886660e-04,-5.100794341e-04,-9.004051355e-04,1.973251102e-04,-7.030800253e-04,-1.377232968e-03,2.611869601e-04,-1.116046008e-03,-1.210422715e-03,1.430883990e-04,-1.067334316e-03,-1.427794738e-03,4.567895980e-04,-9.710051405e-04,-5.063496260e-04,7.661394545e-05,-4.297356805e-04,-9.314035887e-04,1.481914961e-04,-7.832120926e-04,-7.894534047e-04,1.118760052e-04,-6.775773995e-04,-4.900688359e-04,-1.171185266e-04,-6.071873625e-04
-6.2,-1.011916680e-05,8.540799755e-05,7.528883075e-05,-5.718228262e-04,4.187307423e-04,-1.530920839e-04,-3.279829524e-04,1.849784446e-04,-1.430045078e-04,-3.779389542e-04,3.263051553e-04,-5.163379889e-05,-1.116487499e-05,3.094326035e-04,2.982677285e-04,-4.166409853e-04,1.733532897e-04,-2.432876956e-04,-4.121014885e-04,2.181073218e-04,-1.939941667e-04,-5.986117271e-04,2.260498392e-04,-3.725618879e-04,-2.640513173e-04,1.079326193e-04,-1.561186979e-04,-3.273373646e-04,1.868460333e-04,-1.404913313e-04,-3.277126167e-04,2.277747511e-04,-9.993786556e-05,-6.310048790e-04,5.448359535e-04,-8.616892557e-05,-1.009586674e-03,4.550692997e-04,-5.545173743e-04,-1.070656707e-03,7.201005789e-04,-3.505561278e-04,-1.162117263e-03,4.852213430e-04,-6.768959198e-04,-6.472646090e-04,9.538140642e-05,-5.518832026e-04,-7.647287637e-04,1.065094003e-04,-6.582193634e-04,-6.529888502e-04,5.928186224e-05,-5.937069880e-04,-1.043250131e-03,1.428103405e-04,-9.004397909e-04,-2.908953496e-04,1.572981947e-04,-1.335971549e-04,-1.433433055e-04,1.785070950e-04,3.516378948e-05,-5.512761444e-04,3.350335859e-04,-2.162425585e-04,-3.685810002e-04,2.124684504e-04,-1.561125498e-04,-3.109158408e-04,1.895112107e-04,-1.214046302e-04,-8.370351843e-04,5.320881530e-04,-3.049470313e-04,-1.128355459e-03,6.291091134e-04,-4.992463458e-04,-1.381005039e-03,6.664311446e-04,-7.145738948e-04,-1.122962804e-03,5.911436008e-04,-5.318192036e-04,-9.201834539e-04,1.857781717e-04,-7.344052822e-04,-1.353401066e-03,2.371535814e-04,-1.116247485e-03,-1.245461372e-03,1.329507125e-04,-1.112510660e-03,-1.440645654e-03,4.282515127e-04,-1.012394141e-03,-5.379374612e-04,7.562717981e-05,-4.623102814e-04,-9.282887321e-04,1.331125031e-04,-7.951762290e-04,-8.114236042e-04,1.051129872e-04,-7.063106170e-04,-5.083154914e-04,-1.088967660e-04,-6.172122573e-04
-6.1,-1.891438022e-05,8.418700108e-05,6.527262086e-05,-5.604152606e-04,3.994490942e-04,-1.609661664e-04,-3.337471518e-04,1.862688927e-04,-1.474782591e-04,-3.531628531e-04,3.202591170e-04,-3.290373610e-05,-1.377493091e-05,3.249503193e-04,3.111753883e-04,-4.149492105e-04,1.656922992e-04,-2.492569113e-04,-4.112658582e-04,2.101932243e-04,-2.010726338e-04,-6.030581440e-04,2.166049500e-04,-3.864531939e-04,-2.595966479e-04,1.094697535e-04,-1.501268944e-04,-3.252758759e-04,1.862744452e-04,-1.390014307e-04,-3.580844015e-04,2.477671950e-04,-1.103172065e-04,-6.453703415e-04,5.262185332e-04,-1.191518083e-04,-1.062027485e-03,4.385187461e-04,-6.235087390e-04,-1.062145517e-03,6.941584157e-04,-3.679871014e-04,-1.196090408e-03,4.719790533e-04,-7.241113550e-04,-7.084868543e-04,9.488375866e-05,-6.136030957e-04,-8.240190618e-04,9.007099710e-05,-7.339480647e-04,-6.814926014e-04,5.772417971e-05,-6.237684217e-04,-1.046975816e-03,1.278230045e-04,-9.191528118e-04,-2.812004362e-04,1.496158674e-04,-1.315845688e-04,-1.581722607e-04,1.751674788e-04,1.699521810e-05,-5.537194220e-04,3.281181949e-04,-2.256012271e-04,-3.710417318e-04,2.167561557e-04,-1.542855761e-04,-3.262573354e-04,1.789868519e-04,-1.472704835e-04,-8.808430787e-04,5.200985727e-04,-3.607445060e-04,-1.107485773e-03,6.016989529e-04,-5.057868200e-04,-1.410583020e-03,6.276610976e-04,-7.829219219e-04,-1.117703299e-03,5.673079055e-04,-5.503953932e-04,-9.366524603e-04,1.740933918e-04,-7.625590685e-04,-1.325188275e-03,2.134370186e-04,-1.111751256e-03,-1.275072942e-03,1.228152260e-04,-1.152257716e-03,-1.447053260e-03,3.988645450e-04,-1.048188715e-03,-5.673203914e-04,7.449165118e-05,-4.928287402e-04,-9.217603386e-04,1.180890874e-04,-8.036712513e-04,-8.298186425e-04,9.846636397e-05,-7.313522786e-04,-5.244875152e-04,-9.965782089e-05,-6.241453360e-04
-6,-2.661187297e-05,8.246543671e-05,5.585356375e-05,-5.473656844e-04,3.790451863e-04,-1.683204981e-04,-3.387642998e-04,1.866594944e-04,-1.521048055e-04,-3.268834152e-04,3.134261212e-04,-1.345729394e-05,-1.622500292e-05,3.395860263e-04,3.233610234e-04,-4.115000908e-04,1.577553742e-04,-2.537447166e-04,-4.089212512e-04,2.017641860e-04,-2.071570652e-04,-6.054312856e-04,2.068107186e-04,-3.986205670e-04,-2.544409553e-04,1.106801990e-04,-1.437607563e-04,-3.215664164e-04,1.850304944e-04,-1.365359220e-04,-3.861298932e-04,2.667387052e-04,-1.193911880e-04,-6.578500359e-04,5.076253807e-04,-1.502246552e-04,-1.109126106e-03,4.210169261e-04,-6.881091796e-04,-1.049590757e-03,6.665655015e-04,-3.830252552e-04,-1.224508305e-03,4.576491983e-04,-7.668591063e-04,-7.661969812e-04,9.446504010e-05,-6.717319411e-04,-8.791398924e-04,7.409019529e-05,-8.050496971e-04,-7.066782284e-04,5.618093951e-05,-6.504972889e-04,-1.046030425e-03,1.127504045e-04,-9.332800208e-04,-2.707472763e-04,1.417162173e-04,-1.290310590e-04,-1.713185802e-04,1.712713560e-04,-4.722420588e-08,-5.542213460e-04,3.201533830e-04,-2.340679630e-04,-3.734914090e-04,2.200892589e-04,-1.534021502e-04,-3.394540254e-04,1.679154696e-04,-1.715385558e-04,-9.210987492e-04,5.069570107e-04,-4.141417385e-04,-1.082853294e-03,5.729894771e-04,-5.098638167e-04,-1.436968899e-03,5.898805764e-04,-8.470883223e-04,-1.107665647e-03,5.419109329e-04,-5.657547137e-04,-9.496655607e-04,1.623137661e-04,-7.873517946e-04,-1.292550171e-03,1.900278658e-04,-1.102522305e-03,-1.299116740e-03,1.126622629e-04,-1.186454477e-03,-1.447176065e-03,3.688359234e-04,-1.078340142e-03,-5.943514001e-04,7.326414198e-05,-5.210872581e-04,-9.117404891e-04,1.031949733e-04,-8.085455158e-04,-8.445270208e-04,9.191524123e-05,-7.526117796e-04,-5.384166812e-04,-8.951035672e-05,-6.279270379e-04
-5.9,-3.321709640e-05,8.022097974e-05,4.700388334e-05,-5.325845941e-04,3.575479649e-04,-1.750366292e-04,-3.429117872e-04,1.861414146e-04,-1.567703726e-04,-2.991343688e-04,3.057632319e-04,6.628863128e-06,-1.847975793e-05,3.532635198e-04,3.347837619e-04,-4.062611717e-04,1.495626790e-04,-2.566984926e-04,-4.049608370e-04,1.928442899e-04,-2.121165471e-04,-6.056033886e-04,1.966827798e-04,-4.089206088e-04,-2.485343139e-04,1.115478247e-04,-1.369864893e-04,-3.162050396e-04,1.830957999e-04,-1.331092396e-04,-4.117298117e-04,2.845617664e-04,-1.271680453e-04,-6.683011323e-04,4.890371355e-04,-1.792639968e-04,-1.150714054e-03,4.026113677e-04,-7.481026860e-04,-1.032979386e-03,6.373081581e-04,-3.956712281e-04,-1.247219076e-03,4.421978630e-04,-8.050212130e-04,-8.200827062e-04,9.410011144e-05,-7.259825947e-04,-9.298259989e-04,5.859673939e-05,-8.712292595e-04,-7.284594575e-04,5.465480747e-05,-6.738046500e-04,-1.040318027e-03,9.757125026e-05,-9.427467767e-04,-2.594998760e-04,1.335906910e-04,-1.259091850e-04,-1.826693910e-04,1.667937387e-04,-1.587565227e-05,-5.526604890e-04,3.111107583e-04,-2.415497307e-04,-3.757708911e-04,2.224473786e-04,-1.533235124e-04,-3.505193125e-04,1.562974308e-04,-1.942218816e-04,-9.575490933e-04,4.926071898e-04,-4.649419035e-04,-1.054407413e-03,5.429922071e-04,-5.114152054e-04,-1.460150762e-03,5.532125643e-04,-9.069381978e-04,-1.092943004e-03,5.150801493e-04,-5.778628542e-04,-9.590865266e-04,1.504781543e-04,-8.086083722e-04,-1.255460334e-03,1.669103901e-04,-1.088549944e-03,-1.317473495e-03,1.024722160e-04,-1.215001279e-03,-1.441198567e-03,3.383690054e-04,-1.102829562e-03,-6.188872795e-04,7.199576945e-05,-5.468915100e-04,-8.981598747e-04,8.849542903e-05,-8.096644457e-04,-8.554483685e-04,8.543409672e-05,-7.700142718e-04,-5.499455234e-04,-7.856950242e-05,-6.285150258e-04
-5.8,-3.874436512e-05,7.743618303e-05,3.869181790e-05,-5.159835902e-04,3.349915796e-04,-1.809920106e-04,-3.460632302e-04,1.847140896e-04,-1.613491406e-04,-2.699658938e-04,2.972269225e-04,2.726102870e-05,-2.051215151e-05,3.659044559e-04,3.453923044e-04,-3.992076946e-04,1.411319285e-04,-2.580757661e-04,-3.992830004e-04,1.834585175e-04,-2.158244829e-04,-6.034524679e-04,1.862366649e-04,-4.172158029e-04,-2.418221011e-04,1.120590086e-04,-1.297630925e-04,-3.091954331e-04,1.804558512e-04,-1.287395819e-04,-4.347762261e-04,3.011135759e-04,-1.336626502e-04,-6.765804051e-04,4.704136947e-04,-2.061667104e-04,-1.186645634e-03,3.833579445e-04,-8.032876898e-04,-1.012317071e-03,6.063813661e-04,-4.059357053e-04,-1.264100674e-03,4.256021443e-04,-8.384985300e-04,-8.698501184e-04,9.375975403e-05,-7.760903644e-04,-9.758277815e-04,4.361054368e-05,-9.322172378e-04,-7.467675141e-04,5.314638359e-05,-6.936211305e-04,-1.029769233e-03,8.226735298e-05,-9.475018801e-04,-2.474225492e-04,1.252313684e-04,-1.221911807e-04,-1.921292287e-04,1.617127825e-04,-3.041644624e-05,-5.489224404e-04,3.009685082e-04,-2.479539322e-04,-3.777134831e-04,2.238162307e-04,-1.538972525e-04,-3.594794938e-04,1.441384897e-04,-2.153410041e-04,-9.899524430e-04,4.769912978e-04,-5.129611451e-04,-1.022108973e-03,5.117191470e-04,-5.103898257e-04,-1.480065709e-03,5.177157392e-04,-9.623499696e-04,-1.073642326e-03,4.869399249e-04,-5.867024015e-04,-9.647910681e-04,1.386205383e-04,-8.261705298e-04,-1.213909896e-03,1.440636560e-04,-1.069846240e-03,-1.330047571e-03,9.222676209e-05,-1.237820809e-03,-1.429325185e-03,3.076584930e-04,-1.121666692e-03,-6.407888508e-04,7.073044826e-05,-5.700584026e-04,-8.809587590e-04,7.404655333e-05,-8.069122057e-04,-8.624940844e-04,7.899257113e-05,-7.835015133e-04,-5.589318015e-04,-6.695324797e-05,-6.258850495e-04
-5.7,-4.321715130e-05,7.409862522e-05,3.088147392e-05,-4.974783566e-04,3.114147418e-04,-1.860636148e-04,-3.480915002e-04,1.823849968e-04,-1.657065034e-04,-2.394436819e-04,2.877742737e-04,4.833059172e-05,-2.230289021e-05,3.774288386e-04,3.551259484e-04,-3.903238419e-04,1.324780003e-04,-2.578458416e-04,-3.917939109e-04,1.736321610e-04,-2.181617499e-04,-5.988648710e-04,1.754870513e-04,-4.233778197e-04,-2.342472063e-04,1.122024846e-04,-1.220447217e-04,-3.005491642e-04,1.771000252e-04,-1.234491390e-04,-4.551747471e-04,3.162772693e-04,-1.388974778e-04,-6.825452875e-04,4.516938313e-04,-2.308514562e-04,-1.216801129e-03,3.633179522e-04,-8.534831766e-04,-9.876302103e-04,5.737896334e-04,-4.138405769e-04,-1.275063442e-03,4.078497470e-04,-8.672136945e-04,-9.152282400e-04,9.341144994e-05,-8.218167901e-04,-1.016913711e-03,2.914082210e-05,-9.877728885e-04,-7.615515426e-04,5.165434443e-05,-7.098971981e-04,-1.014341616e-03,6.682323580e-05,-9.475183800e-04,-2.344812382e-04,1.166307908e-04,-1.178504474e-04,-1.996210907e-04,1.560099773e-04,-4.361111337e-05,-5.429031569e-04,2.897113771e-04,-2.531917798e-04,-3.791488898e-04,2.241873087e-04,-1.549615811e-04,-3.663732841e-04,1.314502351e-04,-2.349230490e-04,-1.018081956e-03,4.600522210e-04,-5.580297350e-04,-9.859334051e-04,4.791843482e-04,-5.067490569e-04,-1.496593547e-03,4.833771044e-04,-1.013216443e-03,-1.049882462e-03,4.576099117e-04,-5.922725503e-04,-9.666696424e-04,1.267694681e-04,-8.399001742e-04,-1.167908841e-03,1.214630504e-04,-1.046445791e-03,-1.336769455e-03,8.190975807e-05,-1.254859697e-03,-1.411775380e-03,2.768864346e-04,-1.134888945e-03,-6.599225671e-04,6.950391807e-05,-5.904186490e-04,-8.600895601e-04,5.989498204e-05,-8.001945781e-04,-8.655894945e-04,7.255561897e-05,-7.930338756e-04,-5.652542101e-04,-5.477828519e-05,-6.200324953e-04
-5.6,-4.666912974e-05,7.020108235e-05,2.353195261e-05,-4.769927310e-04,2.868601142e-04,-1.901326168e-04,-3.488724164e-04,1.791692618e-04,-1.697031546e-04,-2.076481958e-04,2.773642686e-04,6.971607285e-05,-2.384029623e-05,3.877556854e-04,3.639153892e-04,-3.796042937e-04,1.236126851e-04,-2.559916086e-04,-3.824107048e-04,1.633902695e-04,-2.190204353e-04,-5.917382774e-04,1.644470080e-04,-4.272912694e-04,-2.257531384e-04,1.119691755e-04,-1.137839629e-04,-2.902868224e-04,1.730216751e-04,-1.172651473e-04,-4.728476630e-04,3.299432107e-04,-1.429044523e-04,-6.860557626e-04,4.327949703e-04,-2.532607923e-04,-1.241091213e-03,3.425544998e-04,-8.985367132e-04,-9.589684654e-04,5.395475949e-04,-4.194208706e-04,-1.280054215e-03,3.889383623e-04,-8.911158531e-04,-9.559742255e-04,9.302023075e-05,-8.629539948e-04,-1.052873754e-03,1.518563827e-05,-1.037688116e-03,-7.727801104e-04,5.017572811e-05,-7.226043823e-04,-9.940215147e-04,5.122589855e-05,-9.427956162e-04,-2.206453536e-04,1.077820183e-04,-1.128633353e-04,-2.050877083e-04,1.496705560e-04,-5.541715227e-05,-5.345126756e-04,2.773308750e-04,-2.571818006e-04,-3.799074291e-04,2.235576485e-04,-1.563497806e-04,-3.712515114e-04,1.182503624e-04,-2.530011490e-04,-1.041729631e-03,4.417359858e-04,-5.999936457e-04,-9.458750745e-04,4.454054725e-04,-5.004696020e-04,-1.509552771e-03,4.501068751e-04,-1.059445896e-03,-1.021793836e-03,4.272034416e-04,-5.945903942e-04,-9.646309476e-04,1.149477122e-04,-8.496832354e-04,-1.117488307e-03,9.908175103e-05,-1.018406556e-03,-1.337598300e-03,7.150787005e-05,-1.266090430e-03,-1.388780148e-03,2.462192815e-04,-1.142560867e-03,-6.761630577e-04,6.834310477e-05,-6.078199530e-04,-8.355208649e-04,4.607796936e-05,-7.894428955e-04,-8.646771050e-04,6.608410527e-05,-7.985929998e-04,-5.688181943e-04,-4.215620450e-05,-6.109743988e-04
-5.5,-4.914548662e-05,6.574168943e-05,1.659620281e-05,-4.544632707e-04,2.613737516e-04,-1.930895191e-04,-3.482886530e-04,1.750891540e-04,-1.731994990e-04,-1.746738044e-04,2.659591509e-04,9.128534650e-05,-2.512019034e-05,3.968039068e-04,3.716837165e-04,-3.670558035e-04,1.145446538e-04,-2.525111497e-04,-3.710648326e-04,1.527572165e-04,-2.183076161e-04,-5.819848779e-04,1.531274295e-04,-4.288574485e-04,-2.162874277e-04,1.113520714e-04,-1.049353563e-04,-2.784393926e-04,1.682183193e-04,-1.102210733e-04,-4.877371664e-04,3.420103874e-04,-1.457267790e-04,-6.869769040e-04,4.136138872e-04,-2.733630167e-04,-1.259461162e-03,3.211290306e-04,-9.383321310e-04,-9.264070187e-04,5.036805278e-04,-4.227264908e-04,-1.279060280e-03,3.688747696e-04,-9.101855101e-04,-9.918783139e-04,9.254940293e-05,-8.993289110e-04,-1.083523578e-03,1.731971314e-06,-1.081791606e-03,-7.804428613e-04,4.870613119e-05,-7.317367301e-04,-9.688267011e-04,3.546480168e-05,-9.333618994e-04,-2.058897780e-04,9.867885214e-05,-1.072109259e-04,-2.084926858e-04,1.426840263e-04,-6.580865949e-05,-5.236786897e-04,2.638256648e-04,-2.598530249e-04,-3.798239674e-04,2.219296320e-04,-1.578943355e-04,-3.741765803e-04,1.045627647e-04,-2.696138156e-04,-1.060710447e-03,4.219942190e-04,-6.387162278e-04,-9.019516826e-04,4.104049678e-04,-4.915467148e-04,-1.518701337e-03,4.177372427e-04,-1.100964094e-03,-9.895193744e-04,3.958265614e-04,-5.936928130e-04,-9.586050316e-04,1.031719765e-04,-8.554330551e-04,-1.062702807e-03,7.689191163e-05,-9.858108955e-04,-1.332524230e-03,6.101103076e-05,-1.271513199e-03,-1.360579249e-03,2.158055931e-04,-1.144773656e-03,-6.893959542e-04,6.726582126e-05,-6.221301329e-04,-8.072422972e-04,3.262395549e-05,-7.746183417e-04,-8.597199779e-04,5.953581357e-05,-8.001841643e-04,-5.695603430e-04,-2.919103279e-05,-5.987513758e-04
-5.4,-5.070378215e-05,6.072410254e-05,1.002032039e-05,-4.298433962e-04,2.350046194e-04,-1.948387767e-04,-3.462332867e-04,1.701735614e-04,-1.760597253e-04,-1.406274023e-04,2.535258306e-04,1.128984284e-04,-2.614524777e-05,4.044934371e-04,3.783481894e-04,-3.526983674e-04,1.052796473e-04,-2.474187202e-04,-3.577049145e-04,1.417564255e-04,-2.159484889e-04,-5.695342897e-04,1.415367701e-04,-4.279975196e-04,-2.058045300e-04,1.103461302e-04,-9.545839980e-05,-2.650490171e-04,1.626918498e-04,-1.023571674e-04,-4.998076296e-04,3.523878122e-04,-1.474198173e-04,-6.851815688e-04,3.940290418e-04,-2.911525270e-04,-1.271893106e-03,2.990986355e-04,-9.727944702e-04,-8.900475315e-04,4.662247087e-04,-4.238228228e-04,-1.272111197e-03,3.476735169e-04,-9.244376803e-04,-1.022767605e-03,9.196109917e-05,-9.308065062e-04,-1.108708915e-03,-1.124359380e-05,-1.119952508e-03,-7.845513294e-04,4.723973655e-05,-7.373115929e-04,-9.388088041e-04,1.953206584e-05,-9.192767383e-04,-1.901965113e-04,8.931602858e-05,-1.008804827e-04,-2.098210394e-04,1.350446028e-04,-7.477643658e-05,-5.103493385e-04,2.492019167e-04,-2.611474217e-04,-3.787410345e-04,2.193107998e-04,-1.594302347e-04,-3.752213369e-04,9.041746162e-05,-2.848038752e-04,-1.074866096e-03,4.007865457e-04,-6.740795499e-04,-8.542074867e-04,3.742107202e-04,-4.799967665e-04,-1.523744245e-03,3.860268917e-04,-1.137717353e-03,-9.532155160e-04,3.635778271e-04,-5.896376889e-04,-9.485450535e-04,9.145265885e-05,-8.570923946e-04,-1.003631668e-03,5.486591666e-05,-9.487657514e-04,-1.321569804e-03,5.041266435e-05,-1.271157140e-03,-1.327418133e-03,1.857736193e-04,-1.141644514e-03,-6.995204124e-04,6.628099897e-05,-6.332394134e-04,-7.752693113e-04,1.955367711e-05,-7.557156342e-04,-8.507041350e-04,5.286677686e-05,-7.978373582e-04,-5.674500629e-04,-1.597841308e-05,-5.834284760e-04
-5.3,-5.141376732e-05,5.515771220e-05,3.743944888e-06,-4.031063107e-04,2.078042253e-04,-1.953020854e-04,-3.426125284e-04,1.644574704e-04,-1.781550579e-04,-1.056262594e-04,2.400372917e-04,1.344110323e-04,-2.692343465e-05,4.107465813e-04,3.838231467e-04,-3.365656522e-04,9.582077879e-05,-2.407448734e-04,-3.422986059e-04,1.304101958e-04,-2.118884101e-04,-5.543357998e-04,1.296810039e-04,-4.246547959e-04,-1.942677040e-04,1.089481300e-04,-8.531957397e-05,-2.501686445e-04,1.564486437e-04,-9.372000083e-05,-5.090463181e-04,3.609957772e-04,-1.480505409e-04,-6.805527734e-04,3.739044636e-04,-3.066483099e-04,-1.278405018e-03,2.765141579e-04,-1.001890860e-03,-8.500172378e-04,4.272273056e-04,-4.227899321e-04,-1.259277670e-03,3.253551073e-04,-9.339225623e-04,-1.048508031e-03,9.121666760e-05,-9.572913630e-04,-1.128309420e-03,-2.377353896e-05,-1.152082959e-03,-7.851382486e-04,4.576925868e-05,-7.393689900e-04,-9.040542572e-04,3.422764887e-06,-9.006314923e-04,-1.735557003e-04,7.968932605e-05,-9.386637429e-05,-2.090789209e-04,1.267514794e-04,-8.232744157e-05,-4.944949149e-04,2.334734903e-04,-2.610214247e-04,-3.765109645e-04,2.157136658e-04,-1.607972987e-04,-3.744672785e-04,7.585039415e-05,-2.986168844e-04,-1.084068053e-03,3.780829560e-04,-7.059850967e-04,-8.027145922e-04,3.368563668e-04,-4.658582254e-04,-1.524347699e-03,3.546719338e-04,-1.169675766e-03,-9.130520420e-04,3.305484776e-04,-5.825035644e-04,-9.344275201e-04,7.979372416e-05,-8.546337960e-04,-9.403798194e-04,3.297816501e-05,-9.074016544e-04,-1.304790312e-03,3.970959804e-05,-1.265080714e-03,-1.289544367e-03,1.562285577e-04,-1.133315810e-03,-7.064509681e-04,6.538941501e-05,-6.410615531e-04,-7.396468856e-04,6.881582051e-06,-7.327653036e-04,-8.376395069e-04,4.603278569e-05,-7.916067213e-04,-5.624882561e-04,-2.606040837e-06,-5.650942969e-04
-5.2,-5.135609565e-05,4.905788008e-05,-2.298215576e-06,-3.742465993e-04,1.798263469e-04,-1.944202524e-04,-3.373476029e-04,1.579813637e-04,-1.793662391e-04,-6.979525297e-05,2.254739078e-04,1.556786548e-04,-2.746564610e-05,4.154894635e-04,3.880238174e-04,-3.187047332e-04,8.616882584e-05,-2.325359074e-04,-3.248335127e-04,1.187395434e-04,-2.060939692e-04,-5.363599144e-04,1.175636595e-04,-4.187962548e-04,-1.816500372e-04,1.071564493e-04,-7.449358784e-05,-2.338608676e-04,1.494995427e-04,-8.436132487e-05,-5.154629297e-04,3.677668853e-04,-1.476960444e-04,-6.729858041e-04,3.530943800e-04,-3.198914241e-04,-1.279047098e-03,2.534187158e-04,-1.025628382e-03,-8.064667079e-04,3.867456154e-04,-4.197210925e-04,-1.240668366e-03,3.019438089e-04,-9.387245574e-04,-1.069004608e-03,9.027687133e-05,-9.787277369e-04,-1.142241652e-03,-3.589766478e-05,-1.178139317e-03,-7.822554601e-04,4.428583333e-05,-7.379696267e-04,-8.646833369e-04,-1.286492884e-05,-8.775482657e-04,-1.559662769e-04,6.979569435e-05,-8.617058251e-05,-2.062927830e-04,1.178090829e-04,-8.848370009e-05,-4.761088292e-04,2.166619839e-04,-2.594468454e-04,-3.729974696e-04,2.111555024e-04,-1.618419672e-04,-3.720025509e-04,6.090311865e-05,-3.110994322e-04,-1.088220087e-03,3.538660924e-04,-7.343539951e-04,-7.475726064e-04,2.983815412e-04,-4.491910651e-04,-1.520157464e-03,3.233216847e-04,-1.196835779e-03,-8.692105155e-04,2.968225860e-04,-5.723879295e-04,-9.162517768e-04,6.819272536e-05,-8.480590515e-04,-8.730784715e-04,1.120699282e-05,-8.618714787e-04,-1.282273250e-03,2.890173132e-05,-1.253371518e-03,-1.247204420e-03,1.272500477e-04,-1.119954373e-03,-7.101187753e-04,6.458457505e-05,-6.455342003e-04,-7.004516477e-04,-5.382847468e-06,-7.058344952e-04,-8.205600411e-04,3.899090881e-05,-7.815691323e-04,-5.547041083e-04,1.084525881e-05,-5.438588495e-04
-5.1,-5.062053880e-05,4.244606781e-05,-8.174470983e-06,-3.432812046e-04,1.511267680e-04,-1.921544366e-04,-3.303761888e-04,1.507904379e-04,-1.795857510e-04,-3.326404583e-05,2.098245950e-04,1.765605492e-04,-2.778318083e-05,4.186534491e-04,3.908702683e-04,-2.991755820e-04,7.632249787e-05,-2.228530841e-04,-3.053177186e-04,1.067640557e-04,-1.985536629e-04,-5.155996051e-04,1.051858833e-04,-4.104137217e-04,-1.679353816e-04,1.049708218e-04,-6.296455986e-05,-2.161968566e-04,1.418597679e-04,-7.433708880e-05,-5.190890567e-04,3.726469133e-04,-1.464421434e-04,-6.623907739e-04,3.314479164e-04,-3.309428574e-04,-1.273898235e-03,2.298463811e-04,-1.044051853e-03,-7.595675568e-04,3.448457925e-04,-4.147217643e-04,-1.216426650e-03,2.774653608e-04,-9.389612888e-04,-1.084200877e-03,8.910190360e-05,-9.950989731e-04,-1.150461466e-03,-4.766121224e-05,-1.198122678e-03,-7.759713338e-04,4.277870114e-05,-7.331926327e-04,-8.208481841e-04,-2.932992592e-05,-8.501781100e-04,-1.374366100e-04,5.963344802e-05,-7.780316199e-05,-2.015084690e-04,1.082273934e-04,-9.328107552e-05,-4.552083998e-04,1.987967261e-04,-2.564116737e-04,-3.680772812e-04,2.056580340e-04,-1.624192472e-04,-3.679203585e-04,4.562238826e-05,-3.222979702e-04,-1.087260543e-03,3.281331919e-04,-7.591273507e-04,-6.889078892e-04,2.588321722e-04,-4.300757170e-04,-1.510818918e-03,2.915965868e-04,-1.219222331e-03,-8.218825330e-04,2.624771055e-04,-5.594054275e-04,-8.940398583e-04,5.664091384e-05,-8.373989445e-04,-8.018859480e-04,-1.046428289e-05,-8.123502309e-04,-1.254137695e-03,1.799152101e-05,-1.236146174e-03,-1.200641711e-03,9.889041331e-05,-1.101751298e-03,-7.104727322e-04,6.385351758e-05,-6.466192146e-04,-6.577928405e-04,-1.723407016e-05,-6.750269107e-04,-7.995241589e-04,3.170092120e-05,-7.678232377e-04,-5.441515821e-04,2.430015787e-05,-5.198514243e-04
-5,-4.930453446e-05,3.534978104e-05,-1.395475341e-05,-3.102506211e-04,1.217629688e-04,-1.884876524e-04,-3.216539342e-04,1.429336642e-04,-1.787202700e-04,3.835159721e-06,1.930878097e-04,1.969229695e-04,-2.788575170e-05,4.201764810e-04,3.922907293e-04,-2.780507987e-04,6.627876283e-05,-2.117720359e-04,-2.837805537e-04,9.450183274e-05,-1.892787210e-04,-4.920716891e-04,9.254659545e-05,-3.995250936e-04,-1.531199145e-04,1.023921221e-04,-5.072779237e-05,-1.972561669e-04,1.335488438e-04,-6.370732310e-05,-5.199784864e-04,3.755955841e-04,-1.443829022e-04,-6.486963190e-04,3.088137224e-04,-3.398825967e-04,-1.263065114e-03,2.058211746e-04,-1.057243939e-03,-7.095111147e-04,3.016014662e-04,-4.079096485e-04,-1.186728608e-03,2.519448706e-04,-9.347837375e-04,-1.094078549e-03,8.765134048e-05,-1.006427209e-03,-1.152966327e-03,-5.911303772e-05,-1.212079365e-03,-7.663687342e-04,4.123452432e-05,-7.251342099e-04,-7.727311877e-04,-4.596871511e-05,-8.186999029e-04,-1.179853678e-04,4.920239313e-05,-6.878297462e-05,-1.947905271e-04,9.802220804e-05,-9.676831910e-05,-4.318357624e-04,1.799146771e-04,-2.519210853e-04,-3.616422042e-04,1.992470118e-04,-1.623951924e-04,-3.623181249e-04,3.005960164e-05,-3.322585233e-04,-1.081164503e-03,3.008973696e-04,-7.802671338e-04,-6.268736225e-04,2.182607654e-04,-4.086128571e-04,-1.495996907e-03,2.591058669e-04,-1.236891040e-03,-7.712694572e-04,2.275821047e-04,-5.436873525e-04,-8.678373689e-04,4.512348809e-05,-8.227138808e-04,-7.269887001e-04,-3.204758557e-05,-7.590362857e-04,-1.220533992e-03,6.983193319e-06,-1.213550799e-03,-1.150096156e-03,7.117366209e-05,-1.078922494e-03,-7.074811206e-04,6.317768708e-05,-6.443034335e-04,-6.118129397e-04,-2.866968849e-05,-6.404826282e-04,-7.746163194e-04,2.412661260e-05,-7.504897068e-04,-5.309065192e-04,3.768705618e-05,-4.932194630e-04
-4.9,-4.751254984e-05,2.780241856e-05,-1.971013128e-05,-2.752206467e-04,9.179384449e-05,-1.834268022e-04,-3.111563040e-04,1.344628240e-04,-1.766934800e-04,4.136897723e-05,1.752724539e-04,2.166414311e-04,-2.778038182e-05,4.200043407e-04,3.922239589e-04,-2.554158058e-04,5.603329453e-05,-1.993825113e-04,-2.602738801e-04,8.196956386e-05,-1.783043163e-04,-4.658184796e-04,7.964279424e-05,-3.861756854e-04,-1.372145318e-04,9.942219231e-05,-3.779233949e-05,-1.771276032e-04,1.245905392e-04,-5.253706398e-05,-5.182085204e-04,3.765872602e-04,-1.416212602e-04,-6.318543101e-04,2.850444606e-04,-3.468098495e-04,-1.246684571e-03,1.813568571e-04,-1.065327714e-03,-6.565082813e-04,2.570925819e-04,-3.994156994e-04,-1.151782584e-03,2.254051094e-04,-9.263774745e-04,-1.098657918e-03,8.588420625e-05,-1.012773712e-03,-1.149797738e-03,-7.030391936e-05,-1.220101657e-03,-7.535440212e-04,3.963642717e-05,-7.139075940e-04,-7.205444457e-04,-6.277601004e-05,-7.833204558e-04,-9.764253730e-05,3.850377686e-05,-5.913876044e-05,-1.862217621e-04,8.721518769e-05,-9.900657445e-05,-4.060588214e-04,1.600601645e-04,-2.459986570e-04,-3.536014963e-04,1.919517307e-04,-1.616497656e-04,-3.552973406e-04,1.427016171e-05,-3.410271788e-04,-1.069945783e-03,2.721881961e-04,-7.977575865e-04,-5.616510225e-04,1.767265509e-04,-3.849244716e-04,-1.475393336e-03,2.254631772e-04,-1.249930158e-03,-7.175844858e-04,1.922016735e-04,-5.253828123e-04,-8.377154221e-04,3.362024443e-05,-8.040951777e-04,-6.486024241e-04,-5.355106941e-05,-7.021534936e-04,-1.181643757e-03,-4.118308195e-06,-1.185762065e-03,-1.095805084e-03,4.409518551e-05,-1.051709898e-03,-7.011341125e-04,6.253417344e-05,-6.385999391e-04,-5.626883892e-04,-3.968977911e-05,-6.023781683e-04,-7.459496134e-04,1.623696999e-05,-7.297126435e-04,-5.150644668e-04,5.093586476e-05,-4.641286021e-04
-4.8,-4.535620253e-05,1.984315209e-05,-2.551305044e-05,-2.382844429e-04,6.127960069e-05,-1.770048422e-04,-2.988806557e-04,1.254316240e-04,-1.734490317e-04,7.920335704e-05,1.563986975e-04,2.356020545e-04,-2.747112971e-05,4.180918502e-04,3.906207205e-04,-2.313693532e-04,4.558102722e-05,-1.857883259e-04,-2.348737113e-04,6.918270249e-05,-1.656910088e-04,-4.369094807e-04,6.647000080e-05,-3.704394799e-04,-1.202477272e-04,9.606369081e-05,-2.418403639e-05,-1.559107366e-04,1.150127877e-04,-4.089794888e-05,-5.138818000e-04,3.756115202e-04,-1.382702798e-04,-6.118445848e-04,2.600008679e-04,-3.518437169e-04,-1.224927758e-03,1.564577629e-04,-1.068469995e-03,-6.007899748e-04,2.114045562e-04,-3.893854187e-04,-1.111829417e-03,1.978654057e-04,-9.139640115e-04,-1.097998840e-03,8.375925730e-05,-1.014239583e-03,-1.141043514e-03,-8.128501601e-05,-1.222328530e-03,-7.376070723e-04,3.796317760e-05,-6.996438947e-04,-6.645301352e-04,-7.974533395e-05,-7.442754692e-04,-7.645048449e-05,2.754017325e-05,-4.891031124e-05,-1.759029261e-04,7.583373074e-05,-1.000691953e-04,-3.779719742e-04,1.392844792e-04,-2.386874950e-04,-3.438841458e-04,1.838045975e-04,-1.600795483e-04,-3.469637947e-04,-1.687154334e-06,-3.486509490e-04,-1.053658626e-03,2.420518018e-04,-8.116068246e-04,-4.934511130e-04,1.342954790e-04,-3.591556340e-04,-1.448761252e-03,1.902996170e-04,-1.258461635e-03,-6.610565337e-04,1.563957681e-04,-5.046607656e-04,-8.037730497e-04,2.210686884e-05,-7.816661809e-04,-5.669728828e-04,-7.498015496e-05,-6.419530377e-04,-1.137680020e-03,-1.530830959e-05,-1.152988329e-03,-1.038005197e-03,1.762239818e-05,-1.020382798e-03,-6.914469343e-04,6.189731713e-05,-6.295496171e-04,-5.106302706e-04,-5.029641208e-05,-5.609266827e-04,-7.136687005e-04,8.007207715e-06,-7.056614928e-04,-4.967390688e-04,6.397584662e-05,-4.327632222e-04
-4.7,-4.295461555e-05,1.151681280e-05,-3.143780275e-05,-1.995642354e-04,3.028190633e-05,-1.692823290e-04,-2.848481239e-04,1.158949023e-04,-1.689532216e-04,1.172036183e-04,1.364986295e-04,2.537022478e-04,-2.695927431e-05,4.144039715e-04,3.874446972e-04,-2.060239048e-04,3.491679038e-05,-1.711071145e-04,-2.076815812e-04,5.615566976e-05,-1.515259114e-04,-4.054426267e-04,5.302281674e-05,-3.524198100e-04,-1.022681930e-04,9.231997720e-05,-9.948215819e-06,-1.337172752e-04,1.048475831e-04,-2.886969207e-05,-5.071276760e-04,3.726736085e-04,-1.344540675e-04,-5.886783890e-04,2.335552004e-04,-3.551231887e-04,-1.198003574e-03,1.311202235e-04,-1.066883350e-03,-5.426069526e-04,1.646276367e-04,-3.779793159e-04,-1.067142094e-03,1.693414116e-04,-8.978006828e-04,-1.092201586e-03,8.123547599e-05,-1.010966110e-03,-1.126839316e-03,-9.210650718e-05,-1.218945823e-03,-7.186819156e-04,3.618901639e-05,-6.824928992e-04,-6.049609908e-04,-9.686937350e-05,-7.018303643e-04,-5.446484005e-05,1.631552738e-05,-3.814931267e-05,-1.639523745e-04,6.391085983e-05,-1.000415146e-04,-3.476962445e-04,1.176454468e-04,-2.300507976e-04,-3.324404134e-04,1.748408076e-04,-1.575996058e-04,-3.374277236e-04,-1.775077448e-05,-3.551784981e-04,-1.032398873e-03,2.105506822e-04,-8.218481904e-04,-4.225159952e-04,9.104016482e-05,-3.314758304e-04,-1.415915324e-03,1.532743711e-04,-1.262640953e-03,-6.019342616e-04,1.202228110e-04,-4.817114507e-04,-7.661389082e-04,1.055675312e-05,-7.555821551e-04,-4.823757118e-04,-9.633795898e-05,-5.787136708e-04,-1.088887060e-03,-2.658293752e-05,-1.115469998e-03,-9.769348611e-04,-8.303324792e-06,-9.852381859e-04,-6.784628447e-04,6.124028332e-05,-6.172225614e-04,-4.558842014e-04,-6.049341812e-05,-5.163776195e-04,-6.779520438e-04,-5.803462880e-07,-6.785323901e-04,-4.760606229e-04,7.673415838e-05,-3.993264645e-04
-4.6,-4.043422486e-05,2.873633580e-06,-3.756059128e-05,-1.592117357e-04,-1.135740198e-06,-1.603474759e-04,-2.691046899e-04,1.059078946e-04,-1.631967952e-04,1.552345331e-04,1.156166111e-04,2.708511442e-04,-2.624337883e-05,4.089167350e-04,3.826733561e-04,-1.795053765e-04,2.403602335e-05,-1.554693531e-04,-1.788248779e-04,4.290205810e-05,-1.359228198e-04,-3.715444779e-04,3.929559685e-05,-3.322488810e-04,-8.334622497e-05,8.819506070e-05,4.848835729e-06,-1.106713859e-04,9.413086845e-05,-1.654051745e-05,-4.981020400e-04,3.677947585e-04,-1.303072815e-04,-5.623994322e-04,2.055942389e-04,-3.568051934e-04,-1.166158748e-03,1.053337666e-04,-1.060824982e-03,-4.822276773e-04,1.168563067e-04,-3.653713706e-04,-1.018023213e-03,1.398457754e-04,-8.781774379e-04,-1.081406515e-03,7.827274165e-05,-1.003133773e-03,-1.107368504e-03,-1.028164717e-04,-1.210184976e-03,-6.969070691e-04,3.428432924e-05,-6.626227399e-04,-5.421396769e-04,-1.141400077e-04,-6.562796846e-04,-3.175483046e-05,4.835397345e-06,-2.691943311e-05,-1.505053427e-04,5.148517159e-05,-9.902017107e-05,-3.153784413e-04,9.520699355e-05,-2.201714478e-04,-3.192420457e-04,1.650980957e-04,-1.541439500e-04,-3.268033778e-04,-3.385694630e-05,-3.606603241e-04,-1.006303842e-03,1.777630268e-04,-8.285408149e-04,-3.491183504e-04,4.703983284e-05,-3.020785175e-04,-1.376738073e-03,1.140829356e-04,-1.262655137e-03,-5.404880286e-04,8.374250919e-05,-4.567455194e-04,-7.249711053e-04,-1.057059169e-06,-7.260281644e-04,-3.951144155e-04,-1.176248332e-04,-5.127392488e-04,-1.035539257e-03,-3.793909930e-05,-1.073478356e-03,-9.128359974e-04,-3.376317597e-05,-9.465991734e-04,-6.622548437e-04,6.053622990e-05,-6.017186138e-04,-3.987285884e-04,-7.028624456e-05,-4.690148330e-04,-6.390122939e-04,-9.535469501e-06,-6.485477634e-04,-4.531740645e-04,8.913519356e-05,-3.640388709e-04
-4.5,-3.792743276e-05,-6.031259459e-06,-4.395869222e-05,-1.174065550e-04,-3.290755054e-05,-1.503141056e-04,-2.517209197e-04,9.552556224e-05,-1.561953574e-04,1.931609403e-04,9.380925776e-05,2.869701981e-04,-2.531873730e-05,4.016179473e-04,3.762992100e-04,-1.519518868e-04,1.293553666e-05,-1.390163501e-04,-1.484555803e-04,2.943485136e-05,-1.190207290e-04,-3.353689958e-04,2.528322044e-05,-3.100857753e-04,-6.357332203e-05,8.369359197e-05,2.012026993e-05,-8.690842895e-05,8.290238889e-05,-4.006040060e-06,-4.869849796e-04,3.610123256e-04,-1.259726541e-04,-5.330822267e-04,1.760220785e-04,-3.570601482e-04,-1.129673215e-03,7.908173318e-05,-1.050591482e-03,-4.199337121e-04,6.818861945e-05,-3.517450926e-04,-9.647992980e-04,1.093893700e-04,-8.554099280e-04,-1.065791823e-03,7.483272911e-05,-9.909590939e-04,-1.082859701e-03,-1.134600315e-04,-1.196319732e-03,-6.724345410e-04,3.221689593e-05,-6.402176451e-04,-4.763960648e-04,-1.315479322e-04,-6.079439971e-04,-8.402699617e-06,-6.892809057e-06,-1.529550867e-05,-1.357124835e-04,3.860066111e-05,-9.711182235e-05,-2.811891458e-04,7.203857559e-05,-2.091505702e-04,-3.042810193e-04,1.546164943e-04,-1.496645250e-04,-3.152078456e-04,-4.994049472e-05,-3.651483403e-04,-9.755501711e-04,1.437811314e-04,-8.317690397e-04,-2.735582733e-04,2.380189741e-06,-2.711780836e-04,-1.331180984e-03,7.246324947e-05,-1.258717735e-03,-4.770079748e-04,4.701819559e-05,-4.299897792e-04,-6.804548743e-04,-1.276010454e-05,-6.932149789e-04,-3.055161147e-04,-1.388374127e-04,-4.443535274e-04,-9.779384507e-04,-4.937410309e-05,-1.027312554e-03,-8.459555164e-04,-5.885591599e-05,-9.048114324e-04,-6.429255329e-04,5.975908256e-05,-5.831664503e-04,-3.394707433e-04,-7.968163432e-05,-4.191523776e-04,-5.970941156e-04,-1.885945929e-05,-6.159535749e-04,-4.282358103e-04,1.011003636e-04,-3.271354467e-04
-4.4,-3.557019445e-05,-1.513856797e-05,-5.070876242e-05,-7.435268483e-05,-6.496501071e-05,-1.393176955e-04,-2.327903704e-04,8.480199833e-05,-1.479883720e-04,2.308488903e-04,7.114504975e-05,3.019939400e-04,-2.417624389e-05,3.925076600e-04,3.683314161e-04,-1.235116936e-04,1.614203984e-06,-1.218974896e-04,-1.167475069e-04,1.576666172e-05,-1.009808452e-04,-2.970950240e-04,1.098185470e-05,-2.861131693e-04,-4.306015083e-05,7.882082376e-05,3.576067293e-05,-6.257241325e-05,7.120543832e-05,8.633025069e-06,-4.739766513e-04,3.523795975e-04,-1.215970538e-04,-5.008285725e-04,1.447626360e-04,-3.560659365e-04,-1.088852157e-03,5.234173695e-05,-1.036510420e-03,-3.560135081e-04,1.872538114e-05,-3.372881269e-04,-9.078128950e-04,7.798271658e-05,-8.298301785e-04,-1.045569506e-03,7.088009397e-05,-9.746894122e-04,-1.053582352e-03,-1.240787750e-04,-1.177661127e-03,-6.454272818e-04,2.995332235e-05,-6.154739594e-04,-4.080825735e-04,-1.490818092e-04,-5.571643827e-04,1.549773484e-05,-1.885979107e-05,-3.362056229e-06,-1.197377101e-04,2.530624444e-05,-9.443146561e-05,-2.453197638e-04,4.821440910e-05,-1.971053547e-04,-2.875673149e-04,1.434380784e-04,-1.441292364e-04,-3.027594806e-04,-6.593575085e-05,-3.686952314e-04,-9.403496821e-04,1.087087512e-04,-8.316409309e-04,-1.961577688e-04,-4.284684321e-05,-2.390046120e-04,-1.279261266e-03,2.820112356e-05,-1.251060142e-03,-4.117983337e-04,1.011820705e-05,-4.016801267e-04,-6.327989908e-04,-2.457498279e-05,-6.573739736e-04,-2.139256352e-04,-1.599678235e-04,-3.738934587e-04,-9.164099992e-04,-6.088523252e-05,-9.772952317e-04,-7.765468522e-04,-8.369165991e-05,-8.602385121e-04,-6.206054381e-04,5.888412362e-05,-5.617213145e-04,-2.784411729e-04,-8.868706033e-05,-3.671282332e-04,-5.524698435e-04,-2.854499466e-05,-5.810148382e-04,-4.014097987e-04,1.125480358e-04,-2.888617629e-04
-4.3,-3.349936827e-05,-2.438563062e-05,-5.788499889e-05,-3.027401800e-05,-9.723656135e-05,-1.275105794e-04,-2.124271976e-04,7.378988788e-05,-1.386373097e-04,2.681667484e-04,4.770358937e-05,3.158703378e-04,-2.280134329e-05,3.815983676e-04,3.587970243e-04,-9.434097483e-05,-9.926547194e-06,-1.042675220e-04,-8.389283491e-05,1.909949350e-06,-8.198288556e-05,-2.569230638e-04,-3.610455711e-06,-2.605335195e-04,-2.193373489e-05,7.358250293e-05,5.164876804e-05,-3.781318800e-05,5.908646954e-05,2.127328153e-05,-4.592926500e-04,3.419652239e-04,-1.173274261e-04,-4.657637723e-04,1.117615512e-04,-3.540022211e-04,-1.044018374e-03,2.508666651e-05,-1.018931707e-03,-2.907563014e-04,-3.143086812e-05,-3.221871695e-04,-8.474149944e-04,4.563750486e-05,-8.017774895e-04,-1.020980501e-03,6.638380641e-05,-9.545966948e-04,-1.019841398e-03,-1.347105103e-04,-1.154551909e-03,-6.160560888e-04,2.746048415e-05,-5.885956046e-04,-3.375689201e-04,-1.667270062e-04,-5.042959263e-04,3.984290057e-05,-3.105445621e-05,8.788444364e-06,-1.027559071e-04,1.165505861e-05,-9.110084851e-05,-2.079792485e-04,2.381268148e-05,-1.841665670e-04,-2.691265049e-04,1.316067355e-04,-1.375197694e-04,-2.895764907e-04,-8.177761670e-05,-3.713541074e-04,-9.009444507e-04,7.265791380e-05,-8.282865369e-04,-1.172545630e-04,-8.854347643e-05,-2.057980395e-04,-1.221055935e-03,-1.886425133e-05,-1.239920186e-03,-3.451703642e-04,-2.688361946e-05,-3.720539836e-04,-5.822322382e-04,-3.652007050e-05,-6.187523087e-04,-1.206995301e-04,-1.810032942e-04,-3.017028243e-04,-8.512983597e-04,-7.246953396e-05,-9.237678937e-04,-7.048718922e-04,-1.083849874e-04,-8.132568796e-04,-5.954505989e-04,5.788842391e-05,-5.375621750e-04,-2.159869462e-04,-9.731017262e-05,-3.132971188e-04,-5.054343460e-04,-3.857656741e-05,-5.440109135e-04,-3.728640053e-04,1.233938192e-04,-2.494701861e-04
-4.2,-3.185075417e-05,-3.370723563e-05,-6.555798980e-05,1.458994940e-05,-1.296474489e-04,-1.150574995e-04,-1.907635766e-04,6.253997498e-05,-1.282236016e-04,3.049855801e-04,2.357453169e-05,3.285601118e-04,-2.117382426e-05,3.689149097e-04,3.477410855e-04,-6.460214230e-05,-2.168247629e-05,-8.628461860e-05,-5.009874647e-05,-1.212277724e-05,-6.222152371e-05,-2.150719946e-04,-1.849345246e-05,-2.335654471e-04,-3.347534921e-07,6.798476148e-05,6.765000799e-05,-1.278433439e-05,4.659463269e-05,3.381029831e-05,-4.431601180e-04,3.298523694e-04,-1.133077486e-04,-4.280336868e-04,7.698713080e-05,-3.510465560e-04,-9.955079523e-04,-2.713425795e-06,-9.982213781e-04,-2.244474711e-04,-8.217702622e-05,-3.066244973e-04,-7.839599426e-04,1.236820434e-05,-7.715917382e-04,-9.922899774e-04,6.131829984e-05,-9.309716776e-04,-9.819721700e-04,-1.453893534e-04,-1.127361523e-03,-5.844972072e-04,2.470692382e-05,-5.597902834e-04,-2.652377493e-04,-1.844641759e-04,-4.497019252e-04,6.452111867e-05,-4.346398178e-05,2.105713690e-05,-8.495113734e-05,-2.296232455e-06,-8.724736980e-05,-1.693910173e-04,-1.085014311e-06,-1.704760316e-04,-2.489976795e-04,1.191679897e-04,-1.298296897e-04,-2.757760817e-04,-9.740270043e-05,-3.731787821e-04,-8.576022491e-04,3.574588005e-05,-8.218563690e-04,-3.719696753e-05,-1.346063741e-04,-1.718033417e-04,-1.156694588e-03,-6.883563653e-05,-1.225530224e-03,-2.774367427e-04,-6.390800873e-05,-3.413447514e-04,-5.290006848e-04,-4.860850957e-05,-5.776091943e-04,-2.620166240e-05,-2.019259517e-04,-2.281276141e-04,-7.829632416e-04,-8.412377806e-05,-8.670870197e-04,-6.312030165e-04,-1.330479579e-04,-7.642509744e-04,-5.676400555e-04,5.675102649e-05,-5.108890290e-04,-1.524650470e-04,-1.055585880e-04,-2.580236350e-04,-4.563005430e-04,-4.893124467e-05,-5.052317877e-04,-3.427687503e-04,1.335516782e-04,-2.092170721e-04
-4.1,-3.075818208e-05,-4.303642857e-05,-7.379461064e-05,5.998766683e-05,-1.621197486e-04,-1.021320817e-04,-1.679472296e-04,5.110056111e-05,-1.168466684e-04,3.411785619e-04,-1.143732944e-06,3.400348290e-04,-1.926878804e-05,3.544940994e-04,3.352253114e-04,-3.446297935e-05,-3.364639790e-05,-6.810937725e-05,-1.558466785e-05,-2.631871484e-05,-4.190338269e-05,-1.717761314e-04,-3.366448406e-05,-2.054406154e-04,2.158465835e-05,6.203411966e-05,8.361877801e-05,1.235789643e-05,3.378134591e-05,4.613924235e-05,-4.258150666e-04,3.161377656e-04,-1.096773011e-04,-3.878028177e-04,4.043027200e-05,-3.473725457e-04,-9.436694681e-04,-3.108880449e-05,-9.747582726e-04,-1.573657162e-04,-1.334105667e-04,-2.907762829e-04,-7.178033989e-04,-2.180624200e-05,-7.396096409e-04,-9.597832178e-04,5.566420634e-05,-9.041190114e-04,-9.403361152e-04,-1.561460089e-04,-1.096482124e-03,-5.509310967e-04,2.166405539e-05,-5.292670413e-04,-1.914818386e-04,-2.022679731e-04,-3.937498118e-04,8.941387380e-05,-5.607378058e-05,3.334009322e-05,-6.651553935e-05,-1.648804195e-05,-8.300358130e-05,-1.297901963e-04,-2.639400964e-05,-1.561842060e-04,-2.272317881e-04,1.061688763e-04,-1.210629118e-04,-2.614742665e-04,-1.127504285e-04,-3.742246950e-04,-8.106127322e-04,-1.907378596e-06,-8.125201108e-04,4.365957217e-05,-1.809269935e-04,-1.372674213e-04,-1.086352396e-03,-1.217548723e-04,-1.208107269e-03,-2.089085874e-04,-1.008708881e-04,-3.097794755e-04,-4.733656975e-04,-6.084759777e-05,-5.342132953e-04,6.919890994e-05,-2.227123793e-04,-1.535134694e-04,-7.117769759e-04,-9.584433059e-05,-8.076213065e-04,-5.558248102e-04,-1.577836080e-04,-7.136084182e-04,-5.373735163e-04,5.545294937e-05,-4.819205670e-04,-8.823648366e-05,-1.134399792e-04,-2.016764628e-04,-4.053961924e-04,-5.957942660e-05,-4.649756190e-04,-3.112971917e-04,1.429360040e-04,-1.683611877e-04
-4,-3.035340868e-05,-5.230530338e-05,-8.265871206e-05,1.056584185e-04,-1.945724931e-04,-8.891407465e-05,-1.441390320e-04,3.951714570e-05,-1.046218863e-04,3.766196676e-04,-2.634550141e-05,3.502741662e-04,-1.705861521e-05,3.383841762e-04,3.213255610e-04,-4.096450931e-06,-4.580803574e-05,-4.990448667e-05,1.941990009e-05,-4.066440804e-05,-2.124450795e-05,-1.272826821e-04,-4.911832225e-05,-1.764010044e-04,4.366273725e-05,5.573764026e-05,9.940037752e-05,3.745487255e-05,2.069994075e-05,5.815481330e-05,-4.075005956e-04,3.009307480e-04,-1.065698477e-04,-3.452531858e-04,2.103768102e-06,-3.431494177e-04,-8.888650941e-04,-6.006744343e-05,-9.489325375e-04,-8.978164401e-05,-1.850303873e-04,-2.748120313e-04,-6.493026204e-04,-5.686057244e-05,-7.061631928e-04,-9.237620814e-04,4.940874496e-05,-8.743533364e-04,-8.953173197e-04,-1.670079908e-04,-1.062325310e-03,-5.155421337e-04,1.830709672e-05,-4.972350370e-04,-1.167026862e-04,-2.201060797e-04,-3.368087660e-04,1.143968886e-04,-6.886749181e-05,4.552939675e-05,-4.764863750e-05,-3.085849256e-05,-7.850713006e-05,-8.942098704e-05,-5.202683892e-05,-1.414478260e-04,-2.038901531e-04,9.265786569e-05,-1.112322874e-04,-2.467861155e-04,-1.277640507e-04,-3.745501662e-04,-7.602842379e-04,-4.018096527e-05,-8.004652031e-04,1.249546693e-04,-2.273920829e-04,-1.024374136e-04,-1.010245245e-03,-1.776011004e-04,-1.187846346e-03,-1.398942939e-04,-1.376848912e-04,-2.775791851e-04,-4.156021720e-04,-7.323864378e-05,-4.888408158e-04,1.651283408e-04,-2.433327846e-04,-7.820444375e-05,-6.381229705e-04,-1.076268457e-04,-7.457498162e-04,-4.790350921e-04,-1.826805239e-04,-6.617156160e-04,-5.048692199e-04,5.397717768e-05,-4.508920422e-04,-2.366175506e-05,-1.209620265e-04,-1.446237816e-04,-3.530615146e-04,-7.048557187e-05,-4.235470865e-04,-2.786273855e-04,1.514642579e-04,-1.271631275e-04
-3.9,-3.076623987e-05,-6.144570847e-05,-9.221194834e-05,1.513350814e-04,-2.269218030e-04,-7.558672158e-05,-1.195104304e-04,2.783230591e-05,-9.167812453e-05,4.111821890e-04,-5.191916493e-05,3.592630241e-04,-1.451542000e-05,3.206441854e-04,3.061287654e-04,2.631930363e-05,-5.815381131e-05,-3.183450768e-05,5.467734812e-05,-5.514530007e-05,-4.679519421e-07,-8.184929414e-05,-6.484693511e-05,-1.466962292e-04,6.573005849e-05,4.910317510e-05,1.148332336e-04,6.234581299e-05,7.405325833e-06,6.975113882e-05,-3.884651499e-04,2.843522250e-04,-1.041129248e-04,-3.005835710e-04,-3.795845002e-05,-3.385420210e-04,-8.314718529e-04,-8.967257043e-05,-9.211444233e-04,-2.195694828e-05,-2.369371455e-04,-2.588940937e-04,-5.788175711e-04,-9.276119510e-05,-6.715787662e-04,-8.845416699e-04,4.254592744e-05,-8.419957425e-04,-8.473192619e-04,-1.779995783e-04,-1.025318840e-03,-4.785186971e-04,1.461582668e-05,-4.639028704e-04,-4.130955591e-05,-2.379385370e-04,-2.792480929e-04,1.393413590e-04,-8.182707309e-05,5.751428590e-05,-2.855658179e-05,-4.534415930e-05,-7.390074109e-05,-4.853381701e-05,-7.789355198e-05,-1.264273690e-04,-1.790427320e-04,7.868487328e-05,-1.003578587e-04,-2.318259004e-04,-1.423915035e-04,-3.742174039e-04,-7.069408346e-04,-7.895400691e-05,-7.858948415e-04,2.063248499e-04,-2.738843424e-04,-6.755949246e-05,-9.286280491e-04,-2.362884767e-04,-1.164916526e-03,-7.069829526e-05,-1.742617396e-04,-2.449600348e-04,-3.559963463e-04,-8.577717997e-05,-4.417735262e-04,2.612086225e-04,-2.637504263e-04,-2.541803846e-06,-5.623943639e-04,-1.194659720e-04,-6.818603358e-04,-4.011446750e-04,-2.078089625e-04,-6.089536375e-04,-4.703616301e-04,5.230862480e-05,-4.180530053e-04,4.090246529e-05,-1.281319955e-04,-8.722953026e-05,-2.996465508e-04,-8.160910610e-05,-3.812556569e-04,-2.449447713e-04,1.590598889e-04,-8.588488237e-05
-3.8,-3.212411837e-05,-7.038982822e-05,-1.025139466e-04,1.967474883e-04,-2.590809603e-04,-6.233347198e-05,-9.424023229e-05,1.608579251e-05,-7.815443978e-05,4.447377877e-04,-7.774859646e-05,3.669891912e-04,-1.161331866e-05,3.013433019e-04,2.897299832e-04,5.660147916e-05,-7.066663083e-05,-1.406515167e-05,8.994436838e-05,-6.974528441e-05,2.019908397e-05,-3.574110977e-05,-8.083930671e-05,-1.165804165e-04,8.761232950e-05,4.213963238e-05,1.297519619e-04,8.686885850e-05,-6.046419086e-06,8.082243941e-05,-3.689597642e-04,2.665334868e-04,-1.024262774e-04,-2.540083405e-04,-7.970188633e-05,-3.337102268e-04,-7.718815433e-04,-1.199202794e-04,-8.918018227e-04,4.585675756e-05,-2.890329715e-04,-2.431762139e-04,-5.067109644e-04,-1.294642308e-04,-6.361751952e-04,-8.424464968e-04,3.507660835e-05,-8.073698885e-04,-7.967609428e-04,-1.891415156e-04,-9.859024585e-04,-4.400527495e-04,1.057519773e-05,-4.294775518e-04,3.428228697e-05,-2.557172879e-04,-2.214350009e-04,1.641156414e-04,-9.493288252e-05,6.918275884e-05,-9.450892835e-06,-5.988080539e-05,-6.933169823e-05,-7.381965907e-06,-1.039019766e-04,-1.112839425e-04,-1.527657353e-04,6.430137689e-05,-8.846435838e-05,-2.167065573e-04,-1.565861429e-04,-3.732927002e-04,-6.509190105e-04,-1.181061368e-04,-7.690251473e-04,2.874061998e-04,-3.202831024e-04,-3.287690262e-05,-8.417955619e-04,-2.976630179e-04,-1.139458580e-03,-1.618090079e-06,-2.105149977e-04,-2.121330878e-04,-2.948425648e-04,-9.845336338e-05,-3.932959282e-04,3.570605978e-04,-2.839223056e-04,7.313829216e-05,-4.849917345e-04,-1.313552002e-04,-6.163469347e-04,-3.224751674e-04,-2.332186522e-04,-5.556938196e-04,-4.340982825e-04,5.043383718e-05,-3.836644454e-04,1.051065424e-04,-1.349562503e-04,-2.984970797e-05,-2.455071771e-04,-9.290560132e-05,-3.384127784e-04,-2.104437538e-04,1.656555190e-04,-4.478823477e-05
-3.7,-3.455053369e-05,-7.907071845e-05,-1.136212521e-04,2.416269267e-04,-2.909604820e-04,-4.933355533e-05,-6.851042257e-05,4.314719847e-06,-6.419570273e-05,4.771566379e-04,-1.037145986e-04,3.734420393e-04,-8.329949060e-06,2.805600423e-04,2.722300933e-04,8.656411456e-05,-8.332574863e-05,3.238365930e-06,1.249753220e-04,-8.444632918e-05,4.052899285e-05,1.077304925e-05,-9.708136831e-05,-8.630831906e-05,1.091343948e-04,3.485725172e-05,1.439916465e-04,1.108634961e-04,-1.959854702e-05,9.126494911e-05,-3.492337245e-04,2.476148154e-04,-1.016189091e-04,-2.057552317e-04,-1.230520261e-04,-3.288072578e-04,-7.104982287e-04,-1.508173312e-04,-8.613155599e-04,1.134199002e-04,-3.412206431e-04,-2.278007429e-04,-4.333460592e-04,-1.669139917e-04,-6.002600509e-04,-7.978056608e-04,2.700834990e-05,-7.707973109e-04,-7.440717569e-04,-2.004506567e-04,-9.445224136e-04,-4.003380211e-04,6.175621725e-06,-3.941623994e-04,1.096550561e-04,-2.733858971e-04,-1.637308410e-04,1.885874606e-04,-1.081636232e-04,8.042383742e-05,9.453480305e-06,-7.440395707e-05,-6.495047676e-05,3.378245784e-05,-1.299579465e-04,-9.617548862e-05,-1.251385456e-04,4.956056415e-05,-7.557798144e-05,-2.015383451e-04,-1.703073694e-04,-3.718457146e-04,-5.925635936e-04,-1.575180831e-04,-7.500816767e-04,3.678387251e-04,-3.664650169e-04,1.373708186e-06,-7.500844019e-04,-3.614999622e-04,-1.111584364e-03,6.706059869e-05,-2.463624200e-04,-1.793018213e-04,-2.324387498e-04,-1.112524842e-04,-3.436912340e-04,4.523099552e-04,-3.038014031e-04,1.485085521e-04,-4.063193532e-04,-1.432866899e-04,-5.496060431e-04,-2.433547755e-04,-2.589379919e-04,-5.022927673e-04,-3.963353136e-04,4.834030702e-05,-3.479950066e-04,1.686120411e-04,-1.414401035e-04,2.717193765e-05,-1.909995104e-04,-1.043280685e-04,-2.953275788e-04,-1.753272902e-04,1.711960489e-04,-4.131241235e-06
-3.6,-3.816224956e-05,-8.742292142e-05,-1.255851710e-04,2.857115828e-04,-3.224683362e-04,-3.675675343e-05,-4.250114577e-05,-7.446256072e-06,-4.994740184e-05,5.083087000e-04,-1.296964516e-04,3.786122484e-04,-4.647160392e-06,2.583813218e-04,2.537341614e-04,1.160204895e-04,-9.610671761e-05,1.991377193e-05,1.595264422e-04,-9.922816639e-05,6.029827584e-05,5.742510521e-05,-1.135560089e-04,-5.613090367e-05,1.301250736e-04,2.726789538e-05,1.573929689e-04,1.341739410e-04,-3.319421120e-05,1.009797298e-04,-3.295291524e-04,2.277439073e-04,-1.017852452e-04,-1.560623363e-04,-1.679152452e-04,-3.239775814e-04,-6.477334027e-04,-1.823596305e-04,-8.300930332e-04,1.805071030e-04,-3.934025303e-04,-2.128954273e-04,-3.590827857e-04,-2.050422720e-04,-5.641250576e-04,-7.509473900e-04,1.835518112e-05,-7.325922089e-04,-6.896853502e-04,-2.119396570e-04,-9.016250072e-04,-3.595667244e-04,1.412744575e-06,-3.581539798e-04,1.843935326e-04,-2.908795583e-04,-1.064860257e-04,2.126264305e-04,-1.214962249e-04,9.113020561e-05,2.794064186e-05,-8.884937047e-05,-6.090872861e-05,7.471296185e-05,-1.559657323e-04,-8.125277049e-05,-9.624039858e-05,3.451736972e-05,-6.172302886e-05,-1.864271770e-04,-1.835211666e-04,-3.699483436e-04,-5.322232963e-04,-1.970723875e-04,-7.292956838e-04,4.472723207e-04,-4.123049735e-04,3.496734721e-05,-6.538763238e-04,-4.275028780e-04,-1.081379202e-03,1.350688956e-04,-2.817273482e-04,-1.466584526e-04,-1.690812125e-04,-1.241556144e-04,-2.932368270e-04,5.465945915e-04,-3.233398653e-04,2.232547262e-04,-3.267806664e-04,-1.552508153e-04,-4.820314817e-04,-1.641131479e-04,-2.849742007e-04,-4.490873486e-04,-3.573320668e-04,4.601556481e-05,-3.113165020e-04,2.310966253e-04,-1.475879682e-04,8.350865704e-05,-1.364736516e-04,-1.158281298e-04,-2.523017814e-04,-1.398044194e-04,1.756407450e-04,3.583632559e-05
-3.5,-4.306614142e-05,-9.538319116e-05,-1.384493326e-04,3.287519763e-04,-3.535104181e-04,-2.475844180e-05,-1.638552428e-05,-1.916479298e-05,-3.555031726e-05,5.380655471e-04,-1.555734969e-04,3.824920502e-04,-5.513601327e-07,2.349013945e-04,2.343500343e-04,1.447857225e-04,-1.089814020e-04,3.580432048e-05,1.933601030e-04,-1.140680151e-04,7.929208796e-05,1.039519859e-04,-1.302431224e-04,-2.629113651e-05,1.504218553e-04,1.938532148e-05,1.698071768e-04,1.566523960e-04,-4.677706342e-05,1.098753326e-04,-3.100758233e-04,2.070741126e-04,-1.030017106e-04,-1.051752392e-04,-2.141803602e-04,-3.193555993e-04,-5.840003740e-04,-2.145318471e-04,-7.985322211e-04,2.469083655e-04,-4.454797313e-04,-1.985713658e-04,-2.842740488e-04,-2.437686524e-04,-5.280427011e-04,-7.021940680e-04,9.137356929e-06,-6.930567111e-04,-6.340336069e-04,-2.236165662e-04,-8.576501731e-04,-3.179258427e-04,-3.713271093e-06,-3.216391138e-04,2.580906558e-04,-3.081256049e-04,-5.003494907e-05,2.361064848e-04,-1.349058564e-04,1.012006285e-04,4.579636166e-05,-1.031535941e-04,-5.735723241e-05,1.151730248e-04,-1.818289087e-04,-6.665588394e-05,-6.614754376e-05,1.922833868e-05,-4.691920507e-05,-1.714733371e-04,-1.962005247e-04,-3.676738618e-04,-4.702468638e-04,-2.366537148e-04,-7.069005786e-04,5.253729791e-04,-4.576773466e-04,6.769563256e-05,-5.536030238e-04,-4.953047813e-04,-1.048907805e-03,2.021579829e-04,-3.165391705e-04,-1.143811876e-04,-1.050600606e-04,-1.371404004e-04,-2.422004610e-04,6.395709131e-04,-3.424923691e-04,2.970785440e-04,-2.467743830e-04,-1.672354508e-04,-4.140098337e-04,-8.507685845e-05,-3.113140797e-04,-3.963909381e-04,-3.173460671e-04,4.344648385e-05,-2.738995833e-04,2.922585360e-04,-1.534035895e-04,1.388549465e-04,-8.226835935e-05,-1.273569212e-04,-2.096252806e-04,-1.040868213e-04,1.789636517e-04,7.487683044e-05
