Time,S1D1HbO,S1D1HbR,S1D1HbT,S2D2HbO,S2D2HbR,S2D2HbT,S3D3HbO,S3D3HbR,S3D3HbT,S4D4HbO,S4D4HbR,S4D4HbT,S5D5HbO,S5D5HbR,S5D5HbT,S6D6HbO,S6D6HbR,S6D6HbT,S7D7HbO,S7D7HbR,S7D7HbT,S8D8HbO,S8D8HbR,S8D8HbT,S9D9HbO,S9D9HbR,S9D9HbT,S10D10HbO,S10D10HbR,S10D10HbT,S11D11HbO,S11D11HbR,S11D11HbT,S12D12HbO,S12D12HbR,S12D12HbT,S13D13HbO,S13D13HbR,S13D13HbT,S14D14HbO,S14D14HbR,S14D14HbT,S15D15HbO,S15D15HbR,S15D15HbT,S16D16HbO,S16D16HbR,S16D16HbT,S17D17HbO,S17D17HbR,S17D17HbT,S18D18HbO,S18D18HbR,S18D18HbT,S19D19HbO,S19D19HbR,S19D19HbT,S20D20HbO,S20D20HbR,S20D20HbT,S21D21HbO,S21D21HbR,S21D21HbT,S22D22HbO,S22D22HbR,S22D22HbT,S23D23HbO,S23D23HbR,S23D23HbT,S24D24HbO,S24D24HbR,S24D24HbT,S25D25HbO,S25D25HbR,S25D25HbT,S26D26HbO,S26D26HbR,S26D26HbT,S27D27HbO,S27D27HbR,S27D27HbT,S28D28HbO,S28D28HbR,S28D28HbT,S29D29HbO,S29D29HbR,S29D29HbT,S30D30HbO,S30D30HbR,S30D30HbT,S31D31HbO,S31D31HbR,S31D31HbT,S32D32HbO,S32D32HbR,S32D32HbT,S33D33HbO,S33D33HbR,S33D33HbT,S34D34HbO,S34D34HbR,S34D34HbT,S35D35HbO,S35D35HbR,S35D35HbT,S36D36HbO,S36D36HbR,S36D36HbT,
-10,1.727974762e-03,-3.100129140e-04,1.417961848e-03,2.348845145e-03,2.715736180e-05,2.376002507e-03,4.111272429e-03,1.022518921e-05,4.121497618e-03,5.029052300e-03,1.077144313e-04,5.136766732e-03,5.305748255e-03,-2.122777420e-04,5.093470513e-03,3.736018510e-03,-7.796432399e-05,3.658054186e-03,4.288523175e-03,-7.236151650e-05,4.216161658e-03,5.001729032e-03,-3.599507130e-04,4.641778319e-03,5.683050423e-03,-1.190911823e-05,5.671141305e-03,4.673928347e-03,-1.074336932e-04,4.566494654e-03,3.231552510e-03,-8.383191756e-05,3.147720593e-03,3.042751664e-03,-4.531726673e-04,2.589578997e-03,2.677767146e-03,3.185019768e-06,2.680952165e-03,3.600379565e-03,-2.789761940e-04,3.321403371e-03,4.496063339e-03,-1.557732311e-04,4.340290108e-03,4.586378150e-03,1.906002299e-04,4.776978380e-03,5.580539951e-03,2.931923896e-04,5.873732340e-03,3.894635975e-03,1.497771774e-04,4.044413152e-03,5.002862096e-03,2.666739822e-04,5.269536078e-03,3.637969548e-03,-1.523167461e-04,3.485652802e-03,3.336291165e-03,3.428886920e-05,3.370580034e-03,4.514574051e-03,3.344367666e-04,4.849010818e-03,1.553835175e-03,-1.218991370e-04,1.431936038e-03,6.963592951e-04,-2.588466439e-04,4.375126512e-04,3.973568054e-03,-2.942672903e-04,3.679300763e-03,3.159655986e-03,-2.318761341e-04,2.927779852e-03,4.402110756e-03,-1.914839035e-05,4.382962365e-03,3.442211856e-03,1.970058740e-04,3.639217730e-03,4.661890115e-03,2.067537584e-04,4.868643873e-03,5.393547087e-03,3.779303136e-04,5.771477401e-03,5.383330802e-03,3.601369331e-04,5.743467735e-03,5.434040161e-03,2.830050435e-04,5.717045204e-03,5.561131843e-03,2.778749442e-04,5.839006787e-03,5.039553410e-03,1.987473131e-04,5.238300723e-03,5.872540403e-03,7.401885210e-04,6.612728924e-03,7.207171562e-03,4.080063387e-04,7.615177900e-03
-9.9,1.789627709e-03,-3.024041287e-04,1.487223580e-03,2.387989044e-03,2.864198608e-05,2.416631030e-03,4.325871731e-03,4.316160561e-05,4.369033337e-03,5.077481729e-03,1.140219810e-04,5.191503710e-03,5.342708778e-03,-2.211537806e-04,5.121554998e-03,3.748809040e-03,-8.069885028e-05,3.668110190e-03,4.328000922e-03,-7.722492355e-05,4.250775999e-03,5.050799688e-03,-3.752566587e-04,4.675543029e-03,5.739532299e-03,-1.704452835e-05,5.722487771e-03,4.698498400e-03,-1.148595166e-04,4.583638884e-03,3.234793588e-03,-9.495857406e-05,3.139835014e-03,3.106810617e-03,-4.593796699e-04,2.647430947e-03,2.714873116e-03,1.983859956e-05,2.734711715e-03,3.680545349e-03,-2.815640699e-04,3.398981279e-03,4.603437749e-03,-1.738879598e-04,4.429549789e-03,4.649777086e-03,1.942991195e-04,4.844076206e-03,5.658776209e-03,3.055552004e-04,5.964331409e-03,3.977522397e-03,1.565015357e-04,4.134023933e-03,5.096467265e-03,2.687120562e-04,5.365179321e-03,3.677877220e-03,-1.617915947e-04,3.516085625e-03,3.333363262e-03,3.136457590e-05,3.364727838e-03,4.595656643e-03,3.423274798e-04,4.937984123e-03,1.530630099e-03,-1.261101395e-04,1.404519959e-03,7.420156287e-04,-2.490794362e-04,4.929361925e-04,4.019731634e-03,-2.876606400e-04,3.732070994e-03,3.231243145e-03,-2.355950054e-04,2.995648139e-03,4.495064903e-03,-6.647264945e-05,4.428592253e-03,3.537359139e-03,1.929179123e-04,3.730277051e-03,4.747696574e-03,2.053746145e-04,4.953071189e-03,5.481156886e-03,3.839775051e-04,5.865134391e-03,5.469634397e-03,3.665334100e-04,5.836167807e-03,5.521234505e-03,2.862183714e-04,5.807452877e-03,5.646031166e-03,2.786308138e-04,5.924661980e-03,5.130868652e-03,2.045781203e-04,5.335446772e-03,5.948614094e-03,7.374622071e-04,6.686076301e-03,7.275941735e-03,4.486713093e-04,7.724613044e-03
-9.8,1.849807517e-03,-2.950379285e-04,1.554769589e-03,2.423474598e-03,2.988298516e-05,2.453357584e-03,4.537389995e-03,7.574729547e-05,4.613137290e-03,5.121176116e-03,1.205154067e-04,5.241691523e-03,5.375080614e-03,-2.303044627e-04,5.144776152e-03,3.755635551e-03,-8.354167570e-05,3.672093875e-03,4.362886272e-03,-8.215743801e-05,4.280728834e-03,5.092966089e-03,-3.904258354e-04,4.702540254e-03,5.791797953e-03,-2.237421024e-05,5.769423742e-03,4.717052761e-03,-1.224596267e-04,4.594593135e-03,3.233936920e-03,-1.060136554e-04,3.127923265e-03,3.165091298e-03,-4.654649339e-04,2.699626364e-03,2.748747533e-03,3.350801879e-05,2.782255552e-03,3.754825231e-03,-2.842344658e-04,3.470590765e-03,4.700808070e-03,-1.902172985e-04,4.510590772e-03,4.707839630e-03,1.968429816e-04,4.904682611e-03,5.728858110e-03,3.171234764e-04,6.045981586e-03,4.054250966e-03,1.641363155e-04,4.218387282e-03,5.183027734e-03,2.704599556e-04,5.453487690e-03,3.712208901e-03,-1.713662794e-04,3.540842622e-03,3.325507904e-03,2.837977003e-05,3.353887674e-03,4.671674795e-03,3.496568409e-04,5.021331636e-03,1.504742188e-03,-1.304486566e-04,1.374293532e-03,7.858153880e-04,-2.392437878e-04,5.465716002e-04,4.061610455e-03,-2.809164561e-04,3.780693999e-03,3.299782291e-03,-2.389981555e-04,3.060784136e-03,4.582824124e-03,-1.140514248e-04,4.468772700e-03,3.628227213e-03,1.877224079e-04,3.815949621e-03,4.827665247e-03,2.035575239e-04,5.031222771e-03,5.562811871e-03,3.895124132e-04,5.952324285e-03,5.548071495e-03,3.723547050e-04,5.920426200e-03,5.602173623e-03,2.886494669e-04,5.890823090e-03,5.722526962e-03,2.789194557e-04,6.001446418e-03,5.214784257e-03,2.099177676e-04,5.424702025e-03,6.020168138e-03,7.303507587e-04,6.750518897e-03,7.335174995e-03,4.882785096e-04,7.823453504e-03
-9.7,1.908005175e-03,-2.879254875e-04,1.620079687e-03,2.454790331e-03,3.084986583e-05,2.485640196e-03,4.744544768e-03,1.078000101e-04,4.852344778e-03,5.159559206e-03,1.271428846e-04,5.286702091e-03,5.402411776e-03,-2.396817673e-04,5.162730008e-03,3.756003959e-03,-8.648241136e-05,3.669521547e-03,4.392562929e-03,-8.716833231e-05,4.305394597e-03,5.127551619e-03,-4.054161147e-04,4.722135504e-03,5.839151319e-03,-2.792059177e-05,5.811230727e-03,4.729008394e-03,-1.302206350e-04,4.598787759e-03,3.228627358e-03,-1.169852497e-04,3.111642109e-03,3.216959801e-03,-4.713761599e-04,2.745583641e-03,2.779075136e-03,4.398628358e-05,2.823061419e-03,3.822484778e-03,-2.869647220e-04,3.535520056e-03,4.786916804e-03,-2.044596316e-04,4.582457172e-03,4.759917808e-03,1.981573989e-04,4.958075207e-03,5.789933858e-03,3.277094470e-04,6.117643305e-03,4.124047043e-03,1.725558427e-04,4.296602886e-03,5.261548283e-03,2.718709026e-04,5.533419185e-03,3.740380234e-03,-1.810089630e-04,3.559371271e-03,3.312312917e-03,2.533197770e-05,3.337644895e-03,4.741929760e-03,3.563647562e-04,5.098294516e-03,1.476132003e-03,-1.348821196e-04,1.341249883e-03,8.273715984e-04,-2.293744277e-04,5.979971707e-04,4.098665226e-03,-2.741876551e-04,3.824477570e-03,3.364691714e-03,-2.421331777e-04,3.122558536e-03,4.664473835e-03,-1.615265718e-04,4.502947264e-03,3.713997249e-03,1.814767259e-04,3.895473975e-03,4.900976900e-03,2.012811713e-04,5.102258071e-03,5.637561320e-03,3.944608992e-04,6.032022219e-03,5.617728502e-03,3.774653377e-04,5.995193840e-03,5.675961156e-03,2.902584581e-04,5.966219614e-03,5.789824931e-03,2.786540076e-04,6.068478939e-03,5.290494585e-03,2.147134535e-04,5.505208039e-03,6.086276341e-03,7.190107648e-04,6.805287106e-03,7.384166739e-03,5.265383285e-04,7.910705067e-03
-9.6,1.963722550e-03,-2.810756824e-04,1.682646868e-03,2.481461224e-03,3.151411808e-05,2.512975342e-03,4.946080148e-03,1.391410384e-04,5.085221187e-03,5.192098296e-03,1.338498633e-04,5.325948159e-03,5.424284207e-03,-2.492340206e-04,5.175050187e-03,3.749471401e-03,-8.950738061e-05,3.659964020e-03,4.416452209e-03,-9.226515510e-05,4.324187054e-03,5.153931848e-03,-4.201842204e-04,4.733747628e-03,5.880911218e-03,-3.370556483e-05,5.847205653e-03,4.733822212e-03,-1.381276630e-04,4.595694549e-03,3.218545929e-03,-1.278615683e-04,3.090684361e-03,3.261844320e-03,-4.770657096e-04,2.784778611e-03,2.805563363e-03,5.111901061e-05,2.856682373e-03,3.882842598e-03,-2.897265948e-04,3.593116004e-03,4.860606110e-03,-2.163551600e-04,4.644250950e-03,4.805396092e-03,1.981809380e-04,5.003577030e-03,5.841215890e-03,3.371346191e-04,6.178350510e-03,4.186194916e-03,1.816156066e-04,4.367810522e-03,5.331093001e-03,2.728973873e-04,5.603990389e-03,3.761846551e-03,-1.906862711e-04,3.571160280e-03,3.293409324e-03,2.221920632e-05,3.315628531e-03,4.805777048e-03,3.623924400e-04,5.168169488e-03,1.444789678e-03,-1.393764561e-04,1.305413222e-03,8.663339375e-04,-2.195058628e-04,6.468280747e-04,4.130385826e-03,-2.676236332e-04,3.862762192e-03,3.425408304e-03,-2.450432906e-04,3.180365014e-03,4.739113427e-03,-2.085132178e-04,4.530600209e-03,3.793877728e-03,1.742408915e-04,3.968118619e-03,4.966857198e-03,1.985225877e-04,5.165379786e-03,5.704500918e-03,3.987483875e-04,6.103249305e-03,5.677756241e-03,3.817320933e-04,6.059488334e-03,5.741744642e-03,2.910137035e-04,6.032758345e-03,5.847211161e-03,2.777488118e-04,6.124959973e-03,5.357252308e-03,2.189163214e-04,5.576168630e-03,6.146035455e-03,7.036615502e-04,6.849697006e-03,7.422274724e-03,5.631821250e-04,7.985456849e-03
-9.5,2.016477196e-03,-2.744951732e-04,1.741982023e-03,2.503055298e-03,3.184937519e-05,2.534904673e-03,5.140778165e-03,1.695969180e-04,5.310375083e-03,5.218312451e-03,1.405794469e-04,5.358891898e-03,5.440318936e-03,-2.589066673e-04,5.181412268e-03,3.735654115e-03,-9.260019057e-05,3.643053925e-03,4.434021329e-03,-9.745352547e-05,4.336567804e-03,5.171543098e-03,-4.346858663e-04,4.736857232e-03,5.916419752e-03,-3.975013746e-05,5.876669614e-03,4.730998888e-03,-1.461643954e-04,4.584834493e-03,3.203415709e-03,-1.386308971e-04,3.064784812e-03,3.299239848e-03,-4.824881115e-04,2.816751736e-03,2.827941277e-03,5.480933000e-05,2.882750607e-03,3.935280172e-03,-2.924868899e-04,3.642793282e-03,4.920842152e-03,-2.256958648e-04,4.695146287e-03,4.843698849e-03,1.968668659e-04,5.040565715e-03,5.881989318e-03,3.452342166e-04,6.227223534e-03,4.240046063e-03,1.911556961e-04,4.431201759e-03,5.390798848e-03,2.734925554e-04,5.664291403e-03,3.776111209e-03,-2.003637367e-04,3.575747473e-03,3.268478023e-03,1.903967109e-05,3.287517695e-03,4.862635068e-03,3.676819525e-04,5.230317021e-03,1.410735550e-03,-1.438967788e-04,1.266838771e-03,9.023935019e-04,-2.096719833e-04,6.927215187e-04,4.156299047e-03,-2.613685382e-04,3.894930509e-03,3.481391477e-03,-2.477646199e-04,3.233626858e-03,4.805883163e-03,-2.546221847e-04,4.551260979e-03,3.867115533e-03,1.660757792e-04,4.033191313e-03,5.024583312e-03,1.952603614e-04,5.219843673e-03,5.762783813e-03,4.023013558e-04,6.165085169e-03,5.727380823e-03,3.850267007e-04,6.112407524e-03,5.798724018e-03,2.908941060e-04,6.089618124e-03,5.894057339e-03,2.761231064e-04,6.170180446e-03,5.414380133e-03,2.224813354e-04,5.636861469e-03,6.198581604e-03,6.845783277e-04,6.883159931e-03,7.448931210e-03,5.979637608e-04,8.046894971e-03
-9.4,2.065807037e-03,-2.681884951e-04,1.797618542e-03,2.519189599e-03,3.183157287e-05,2.551021172e-03,5.327468665e-03,1.990008768e-04,5.526469542e-03,5.237779748e-03,1.472731103e-04,5.385052859e-03,5.450180026e-03,-2.686431120e-04,5.181536914e-03,3.714234438e-03,-9.574253143e-05,3.618491907e-03,4.444790639e-03,-1.027369878e-04,4.342053651e-03,5.179889162e-03,-4.488760115e-04,4.731013150e-03,5.945049597e-03,-4.607410022e-05,5.898975497e-03,4.720097530e-03,-1.543131739e-04,4.565784356e-03,3.183006448e-03,-1.492815150e-04,3.033724933e-03,3.328712424e-03,-4.875987323e-04,2.841113692e-03,2.845959702e-03,5.502114387e-05,2.900980846e-03,3.979249992e-03,-2.952086770e-04,3.684041315e-03,4.966736973e-03,-2.323345057e-04,4.734402467e-03,4.874297133e-03,1.941839961e-04,5.068481129e-03,5.911619678e-03,3.518608615e-04,6.263480540e-03,4.285026574e-03,2.010044193e-04,4.486030994e-03,5.439887549e-03,2.736116233e-04,5.713499172e-03,3.782732864e-03,-2.100062658e-04,3.572726599e-03,3.237255327e-03,1.579157918e-05,3.253046906e-03,4.911991552e-03,3.721764005e-04,5.284167953e-03,1.374020240e-03,-1.484080525e-04,1.225612188e-03,9.352864417e-04,-1.999056168e-04,7.353808249e-04,4.175976124e-03,-2.555600534e-04,3.920416070e-03,3.532127108e-03,-2.503239911e-04,3.281803117e-03,4.863984111e-03,-2.994774302e-04,4.564506681e-03,3.933007636e-03,1.570411329e-04,4.090048769e-03,5.073489577e-03,1.914775335e-04,5.264967110e-03,5.811629250e-03,4.050489461e-04,6.216678196e-03,5.765912111e-03,3.872285281e-04,6.153140639e-03,5.846158991e-03,2.898904678e-04,6.136049459e-03,5.929823662e-03,2.737041376e-04,6.203527800e-03,5.461280104e-03,2.253671957e-04,5.686647299e-03,6.243104446e-03,6.620842674e-04,6.905188714e-03,7.463652005e-03,6.306609002e-04,8.094312906e-03
-9.3,2.111274264e-03,-2.621582540e-04,1.849116010e-03,2.529534958e-03,3.143908872e-05,2.560974047e-03,5.505036619e-03,2.271940055e-04,5.732230625e-03,5.250142500e-03,1.538716896e-04,5.404014189e-03,5.453576406e-03,-2.783855770e-04,5.175190829e-03,3.684965726e-03,-9.891516179e-05,3.586050564e-03,4.448338770e-03,-1.081169214e-04,4.340221849e-03,5.178544677e-03,-4.627084404e-04,4.715836237e-03,5.966209359e-03,-5.269564685e-05,5.913513712e-03,4.700736402e-03,-1.625550114e-04,4.538181390e-03,3.157137378e-03,-1.598015774e-04,2.997335801e-03,3.349902049e-03,-4.923535478e-04,2.857548501e-03,2.859391665e-03,5.178079990e-05,2.911172465e-03,4.014280831e-03,-2.978529973e-04,3.716427834e-03,4.997564764e-03,-2.361906495e-04,4.761374114e-03,4.896713218e-03,1.901173149e-04,5.086830533e-03,5.929559166e-03,3.568871658e-04,6.286446332e-03,4.320642733e-03,2.109818300e-04,4.531624563e-03,5.477674630e-03,2.732128411e-04,5.750887471e-03,3.781331109e-03,-2.195787469e-04,3.561752362e-03,3.199536846e-03,1.247292956e-05,3.212009776e-03,4.953407259e-03,3.758206434e-04,5.329227902e-03,1.334723985e-03,-1.528757283e-04,1.181848257e-03,9.647960479e-04,-1.902381569e-04,7.745578910e-04,4.189039076e-03,-2.503285421e-04,3.938710534e-03,3.577130650e-03,-2.527374522e-04,3.324393198e-03,4.912690136e-03,-3.427272044e-04,4.569962931e-03,3.990910995e-03,1.471936663e-04,4.138104661e-03,5.112972372e-03,1.871631630e-04,5.300135535e-03,5.850328353e-03,4.069247586e-04,6.257253111e-03,5.792749088e-03,3.882269632e-04,6.180976051e-03,5.883375340e-03,2.880056161e-04,6.171380956e-03,5.954057790e-03,2.704305865e-04,6.224488377e-03,5.497438601e-03,2.275364861e-04,5.724975087e-03,6.278856367e-03,6.365428128e-04,6.915399180e-03,7.466039794e-03,6.610764844e-04,8.127116278e-03
-9.2,2.152468144e-03,-2.564053998e-04,1.896062745e-03,2.533819223e-03,3.065290013e-05,2.564472123e-03,5.672426734e-03,2.540262550e-04,5.926452989e-03,5.255110197e-03,1.603164389e-04,5.415426636e-03,5.450261538e-03,-2.880758804e-04,5.162185658e-03,3.647674998e-03,-1.020990124e-04,3.545575986e-03,4.444305555e-03,-1.135924642e-04,4.330713091e-03,5.167155160e-03,-4.761341107e-04,4.691021049e-03,5.979347064e-03,-5.963094329e-05,5.919716121e-03,4.672595690e-03,-1.708694901e-04,4.501726200e-03,3.125678296e-03,-1.701789685e-04,2.955499327e-03,3.362523382e-03,-4.967090875e-04,2.865814294e-03,2.868032470e-03,4.517721813e-05,2.913209688e-03,4.039980152e-03,-3.003808356e-04,3.739599316e-03,5.012770270e-03,-2.372520246e-04,4.775518245e-03,4.910522401e-03,1.846691389e-04,5.095191539e-03,5.935350704e-03,3.602075154e-04,6.295558219e-03,4.346484477e-03,2.209028257e-04,4.567387303e-03,5.503575047e-03,2.722579133e-04,5.775832961e-03,3.771590376e-03,-2.290468205e-04,3.542543555e-03,3.155179749e-03,9.081279669e-06,3.164261029e-03,4.986517323e-03,3.785620817e-04,5.365079404e-03,1.292955243e-03,-1.572662851e-04,1.135688958e-03,9.907533053e-04,-1.806993093e-04,8.100539960e-04,4.195165064e-03,-2.457959067e-04,3.949369158e-03,3.615949398e-03,-2.550099186e-04,3.360939479e-03,4.951354305e-03,-3.840502576e-04,4.567304048e-03,4.040249445e-03,1.365858597e-04,4.176835305e-03,5.142494629e-03,1.823121299e-04,5.324806759e-03,5.878247751e-03,4.078686470e-04,6.286116398e-03,5.807382521e-03,3.879233024e-04,6.195305824e-03,5.909770330e-03,2.852536182e-04,6.195023948e-03,5.966390474e-03,2.662563306e-04,6.232646805e-03,5.522427317e-03,2.289560638e-04,5.751383381e-03,6.305155854e-03,6.083514229e-04,6.913507277e-03,7.455781847e-03,6.890405886e-04,8.144822435e-03
-9.1,2.189006896e-03,-2.509294759e-04,1.938077420e-03,2.531829052e-03,2.945682087e-05,2.561285873e-03,5.828646202e-03,2.793573423e-04,6.108003544e-03,5.252460590e-03,1.665499425e-04,5.419010533e-03,5.440031702e-03,-2.976560997e-04,5.142375602e-03,3.602264021e-03,-1.052764060e-04,3.496987615e-03,4.432393261e-03,-1.191604075e-04,4.313232853e-03,5.145435383e-03,-4.890988132e-04,4.656336569e-03,5.983952598e-03,-6.689367848e-05,5.917058920e-03,4.635418986e-03,-1.792346098e-04,4.456184377e-03,3.088549486e-03,-1.804011193e-04,2.908148367e-03,3.366364588e-03,-5.006220733e-04,2.865742514e-03,2.871699971e-03,3.535997356e-05,2.907059945e-03,4.056034625e-03,-3.027549610e-04,3.753279664e-03,5.011969408e-03,-2.355708009e-04,4.776398607e-03,4.915352735e-03,1.778609720e-04,5.093213707e-03,5.928629636e-03,3.617396198e-04,6.290369255e-03,4.362226882e-03,2.305798171e-04,4.592806699e-03,5.517105639e-03,2.707122697e-04,5.787817909e-03,3.753262359e-03,-2.383775928e-04,3.514884766e-03,3.104103802e-03,5.613538744e-06,3.109717341e-03,5.011030937e-03,3.803513017e-04,5.391382239e-03,1.248848915e-03,-1.615476264e-04,1.087301289e-03,1.013036282e-03,-1.713169711e-04,8.417193105e-04,4.194088497e-03,-2.420736106e-04,3.952014886e-03,3.648164398e-03,-2.571359340e-04,3.391028464e-03,4.979412429e-03,-4.231594945e-04,4.556252935e-03,4.080517595e-03,1.252660247e-04,4.205783620e-03,5.161590078e-03,1.769238463e-04,5.338513925e-03,5.894832405e-03,4.078281680e-04,6.302660573e-03,5.809396104e-03,3.862321776e-04,6.195628282e-03,5.924817567e-03,2.816586448e-04,6.206476212e-03,5.966529721e-03,2.611538500e-04,6.227683571e-03,5.535901969e-03,2.295975897e-04,5.765499559e-03,6.321387071e-03,5.779365101e-04,6.899323581e-03,7.432645049e-03,7.144122771e-04,8.147057327e-03
-9,2.220539134e-03,-2.457287919e-04,1.974810342e-03,2.523410729e-03,2.783780179e-05,2.551248531e-03,5.972766891e-03,3.030576067e-04,6.275824498e-03,5.242039700e-03,1.725167315e-04,5.414556431e-03,5.422724050e-03,-3.070691513e-04,5.115654899e-03,3.548709906e-03,-1.084323359e-04,3.440277570e-03,4.412367193e-03,-1.248150460e-04,4.287552147e-03,5.113168227e-03,-5.015412941e-04,4.611626933e-03,5.979560200e-03,-7.449461156e-05,5.905065589e-03,4.589014483e-03,-1.876266567e-04,4.401387826e-03,3.045721307e-03,-1.904547599e-04,2.855266547e-03,3.361285639e-03,-5.040489181e-04,2.857236721e-03,2.870236802e-03,2.253440470e-05,2.892771207e-03,4.062210271e-03,-3.049412621e-04,3.757269009e-03,4.994944615e-03,-2.312556191e-04,4.763688996e-03,4.910884298e-03,1.697354820e-04,5.080619780e-03,5.909123909e-03,3.614260086e-04,6.270549918e-03,4.367629992e-03,2.398254179e-04,4.607455410e-03,5.517885507e-03,2.685455728e-04,5.786431079e-03,3.726167487e-03,-2.475400220e-04,3.478627465e-03,3.046291826e-03,2.065888907e-06,3.048357715e-03,5.026730052e-03,3.811426777e-04,5.407872730e-03,1.202564615e-03,-1.656893318e-04,1.036875283e-03,1.031568978e-03,-1.621172611e-04,8.694517171e-04,4.185601260e-03,-2.392597294e-04,3.946341531e-03,3.673392873e-03,-2.591009926e-04,3.414291880e-03,4.996385759e-03,-4.598052310e-04,4.536580528e-03,4.111282984e-03,1.132794597e-04,4.224562444e-03,5.169867396e-03,1.710011044e-04,5.340868501e-03,5.899609096e-03,4.067594252e-04,6.306368521e-03,5.798467719e-03,3.830826138e-04,6.181550332e-03,5.928072110e-03,2.772539667e-04,6.205326077e-03,5.954255229e-03,2.551171181e-04,6.209372347e-03,5.537600955e-03,2.294382118e-04,5.767039167e-03,6.326999809e-03,5.457483733e-04,6.872748182e-03,7.396472220e-03,7.370808103e-04,8.133553031e-03
-8.9,2.246745637e-03,-2.408005439e-04,2.005945094e-03,2.508470641e-03,2.578618104e-05,2.534256822e-03,6.103928240e-03,3.250088326e-04,6.428937072e-03,5.223761636e-03,1.781635979e-04,5.401925234e-03,5.398215510e-03,-3.162593164e-04,5.081956193e-03,3.487065930e-03,-1.115555497e-04,3.375510380e-03,4.384056774e-03,-1.305479951e-04,4.253508779e-03,5.070205163e-03,-5.133924052e-04,4.556812758e-03,5.965751911e-03,-8.244110431e-05,5.883310807e-03,4.533256661e-03,-1.960201044e-04,4.337236556e-03,2.997214144e-03,-2.003256023e-04,2.796888542e-03,3.347217202e-03,-5.069453027e-04,2.840271900e-03,2.863515743e-03,6.953690869e-06,2.870469434e-03,4.058353690e-03,-3.069094886e-04,3.751444201e-03,4.961638376e-03,-2.244607205e-04,4.737177656e-03,4.896849888e-03,1.603577535e-04,5.057207641e-03,5.876654465e-03,3.592352297e-04,6.235889695e-03,4.362537628e-03,2.484556745e-04,4.610993303e-03,5.505636135e-03,2.657324248e-04,5.771368560e-03,3.690196152e-03,-2.565049058e-04,3.433691246e-03,2.981790226e-03,-1.566152093e-06,2.980224074e-03,5.033467915e-03,3.808950514e-04,5.414362966e-03,1.154285313e-03,-1.696628118e-04,9.846225008e-04,1.046320301e-03,-1.531246619e-04,8.931956395e-04,4.169551917e-03,-2.374353896e-04,3.932116527e-03,3.691292085e-03,-2.608828894e-04,3.430409195e-03,5.001882131e-03,-4.937771597e-04,4.508104971e-03,4.132188347e-03,1.006698535e-04,4.232858200e-03,5.167014791e-03,1.645498414e-04,5.331564632e-03,5.892191436e-03,4.046273064e-04,6.296818742e-03,5.774372108e-03,3.784188301e-04,6.152790938e-03,5.919176628e-03,2.720811810e-04,6.191257809e-03,5.929414502e-03,2.481643167e-04,6.177578818e-03,5.527345569e-03,2.284615247e-04,5.755807093e-03,6.321513287e-03,5.122553935e-04,6.833768681e-03,7.347182359e-03,7.569660592e-04,8.104148418e-03
-8.8,2.267341901e-03,-2.361408966e-04,2.031201004e-03,2.486975868e-03,2.329579850e-05,2.510271667e-03,6.221341375e-03,3.451050227e-04,6.566446398e-03,5.197608741e-03,1.834398276e-04,5.381048568e-03,5.366422816e-03,-3.251727038e-04,5.041250112e-03,3.417462489e-03,-1.146391049e-04,3.302823384e-03,4.347357445e-03,-1.363480130e-04,4.211009432e-03,5.016468167e-03,-5.245750289e-04,4.491893138e-03,5.942162009e-03,-9.073666205e-05,5.851425347e-03,4.468088544e-03,-2.043875200e-04,4.263701024e-03,2.943098830e-03,-2.099980183e-04,2.733100812e-03,3.324160335e-03,-5.092659969e-04,2.814894339e-03,2.851446495e-03,-1.109050032e-05,2.840355994e-03,4.044394439e-03,-3.086335501e-04,3.735760889e-03,4.912147236e-03,-2.153737102e-04,4.696773525e-03,4.873038250e-03,1.498152465e-04,5.022853497e-03,5.831136823e-03,3.551625659e-04,6.186299389e-03,4.346875932e-03,2.562938692e-04,4.603169801e-03,5.480182570e-03,2.622530352e-04,5.742435606e-03,3.645309932e-03,-2.652445869e-04,3.380065345e-03,2.910709731e-03,-5.287598107e-06,2.905422133e-03,5.031167934e-03,3.795724633e-04,5.410740397e-03,1.104216274e-03,-1.734414200e-04,9.307748544e-04,1.057303372e-03,-1.443621226e-04,9.129412489e-04,4.145844839e-03,-2.366612733e-04,3.909183565e-03,3.701565012e-03,-2.624530390e-04,3.439111973e-03,4.995593266e-03,-5.249013333e-04,4.470691933e-03,4.142955184e-03,8.748024177e-05,4.230435426e-03,5.152805050e-03,1.575797303e-04,5.310384780e-03,5.872285892e-03,4.014052722e-04,6.273691164e-03,5.736984702e-03,3.722009212e-04,6.109185623e-03,5.897867933e-03,2.661894839e-04,6.164057417e-03,5.891921803e-03,2.403398992e-04,6.132261702e-03,5.505041888e-03,2.266587650e-04,5.731700653e-03,6.304523721e-03,4.779372741e-04,6.782460995e-03,7.284774969e-03,7.740179984e-04,8.058792967e-03
-8.7,2.282081260e-03,-2.317449822e-04,2.050336278e-03,2.458954663e-03,2.036404479e-05,2.479318708e-03,6.324293768e-03,3.632530613e-04,6.687546829e-03,5.163631744e-03,1.882976479e-04,5.351929392e-03,5.327302945e-03,-3.337576472e-04,4.993545298e-03,3.340107417e-03,-1.176803110e-04,3.222427106e-03,4.302232530e-03,-1.422008798e-04,4.160031650e-03,4.951952140e-03,-5.350045780e-04,4.416947562e-03,5.908481403e-03,-9.938055613e-05,5.809100846e-03,4.393523640e-03,-2.126994790e-04,4.180824161e-03,2.883496849e-03,-2.194548079e-04,2.664042041e-03,3.292186369e-03,-5.109651094e-04,2.781221260e-03,2.833979747e-03,-3.127659759e-05,2.802703149e-03,4.020346761e-03,-3.100915320e-04,3.710255229e-03,4.846716432e-03,-2.042036419e-04,4.642512790e-03,4.839299323e-03,1.382162559e-04,4.977515579e-03,5.772582979e-03,3.492302967e-04,6.121813276e-03,4.320651811e-03,2.631745166e-04,4.583826327e-03,5.441455350e-03,2.580937651e-04,5.699549115e-03,3.591542266e-03,-2.737324913e-04,3.317809774e-03,2.833225701e-03,-9.103841781e-06,2.824121859e-03,5.019822440e-03,3.771448827e-04,5.396967322e-03,1.052583809e-03,-1.770005421e-04,8.755832664e-04,1.064574665e-03,-1.358509523e-04,9.287237122e-04,4.114439408e-03,-2.369746618e-04,3.877464746e-03,3.703967150e-03,-2.637779639e-04,3.440189186e-03,4.977289664e-03,-5.530314793e-04,4.424258184e-03,4.143387873e-03,7.375370094e-05,4.217141573e-03,5.127099636e-03,1.501050392e-04,5.277204675e-03,5.839696964e-03,3.970748346e-04,6.236771798e-03,5.686284787e-03,3.644053796e-04,6.050690166e-03,5.863981579e-03,2.596348399e-04,6.123616419e-03,5.841759842e-03,2.317146180e-04,6.073474460e-03,5.470682671e-03,2.240299149e-04,5.694712586e-03,6.275712600e-03,4.432766879e-04,6.718989288e-03,7.209336333e-03,7.882143421e-04,7.997550675e-03
-8.6,2.290757735e-03,-2.276067788e-04,2.063150956e-03,2.424496104e-03,1.699199680e-05,2.441488100e-03,6.412153005e-03,3.793731940e-04,6.791526199e-03,5.121948940e-03,1.926929551e-04,5.314641895e-03,5.280852573e-03,-3.419650705e-04,4.938887502e-03,3.255284733e-03,-1.206803578e-04,3.134604375e-03,4.248713645e-03,-1.480894077e-04,4.100624237e-03,4.876726711e-03,-5.445904262e-04,4.332136285e-03,5.864460617e-03,-1.083675710e-04,5.756093046e-03,4.309646435e-03,-2.209245559e-04,4.088721879e-03,2.818579314e-03,-2.286771008e-04,2.589902213e-03,3.251435982e-03,-5.119968420e-04,2.739439140e-03,2.811105520e-03,-5.325976795e-05,2.757845752e-03,3.986308418e-03,-3.112655499e-04,3.675042868e-03,4.765734119e-03,-1.911711907e-04,4.574562929e-03,4.795549736e-03,1.256869180e-04,4.921236654e-03,5.701101696e-03,3.414874282e-04,6.042589124e-03,4.283950471e-03,2.689472858e-04,4.552897757e-03,5.389491511e-03,2.532475979e-04,5.642739109e-03,3.528997663e-03,-2.819425046e-04,3.247055158e-03,2.749577037e-03,-1.302045595e-05,2.736556581e-03,4.999490379e-03,3.735889369e-04,5.373079315e-03,9.996332763e-04,-1.803176509e-04,8.193156254e-04,1.068232158e-03,-1.276104520e-04,9.406217056e-04,4.075348413e-03,-2.383870638e-04,3.836961349e-03,3.698312930e-03,-2.648209979e-04,3.433491932e-03,4.946818708e-03,-5.780394227e-04,4.368779286e-03,4.133375688e-03,5.953492352e-05,4.192910612e-03,5.089849772e-03,1.421453407e-04,5.231995113e-03,5.794329635e-03,3.916248602e-04,6.185954496e-03,5.622356044e-03,3.550252963e-04,5.977381340e-03,5.817452514e-03,2.524789048e-04,6.069931419e-03,5.778982175e-03,2.223828116e-04,6.001364987e-03,5.424346977e-03,2.205843423e-04,5.644931320e-03,6.234852963e-03,4.087482536e-04,6.643601216e-03,7.121044346e-03,7.995556564e-04,7.920600002e-03
-8.5,2.293207760e-03,-2.237189300e-04,2.069488830e-03,2.383748308e-03,1.318469231e-05,2.396933000e-03,6.484368644e-03,3.933992784e-04,6.877767923e-03,5.072743399e-03,1.965861227e-04,5.269329521e-03,5.227105612e-03,-3.497488779e-04,4.877356734e-03,3.163351133e-03,-1.236439667e-04,3.039707166e-03,4.186898678e-03,-1.539936143e-04,4.032905063e-03,4.790936645e-03,-5.532387001e-04,4.237697945e-03,5.809910559e-03,-1.176878305e-04,5.692222728e-03,4.216610790e-03,-2.290294561e-04,3.987581333e-03,2.748564125e-03,-2.376443345e-04,2.510919791e-03,3.202116800e-03,-5.123166354e-04,2.689800165e-03,2.782846117e-03,-7.667692678e-05,2.706169190e-03,3.942455687e-03,-3.121415806e-04,3.630314106e-03,4.669724602e-03,-1.765022220e-04,4.493222380e-03,4.741776547e-03,1.123670276e-04,4.854143575e-03,5.616895855e-03,3.320086223e-04,5.948904477e-03,4.236931109e-03,2.734807208e-04,4.510411830e-03,5.324432981e-03,2.477145343e-04,5.572147516e-03,3.457848921e-03,-2.898481909e-04,3.168000730e-03,2.660063200e-03,-1.704293239e-05,2.643020268e-03,4.970293283e-03,3.688886362e-04,5.339181920e-03,9.456261651e-04,-1.833723313e-04,7.622538338e-04,1.068412009e-03,-1.196573931e-04,9.487546157e-04,4.028634657e-03,-2.408823295e-04,3.787752327e-03,3.684480267e-03,-2.655440884e-04,3.418936179e-03,4.904109311e-03,-5.998099519e-04,4.304299359e-03,4.112890237e-03,4.487383298e-05,4.157764070e-03,5.041093280e-03,1.337259562e-04,5.174819236e-03,5.736188287e-03,3.850508357e-04,6.121239123e-03,5.545383351e-03,3.440703760e-04,5.889453727e-03,5.758311491e-03,2.447875766e-04,6.003099068e-03,5.703713754e-03,2.124578075e-04,5.916171562e-03,5.366196170e-03,2.163408442e-04,5.582537014e-03,6.181812913e-03,3.748046001e-04,6.556617513e-03,7.020168958e-03,8.080588654e-04,7.828227823e-03
-8.4,2.289310513e-03,-2.200726065e-04,2.069237907e-03,2.336915062e-03,8.951458430e-06,2.345866520e-03,6.540472029e-03,4.052788284e-04,6.945750858e-03,5.016257929e-03,1.999426546e-04,5.216200584e-03,5.166128733e-03,-3.570663596e-04,4.809062373e-03,3.064729946e-03,-1.265791087e-04,2.938150837e-03,4.116947271e-03,-1.598910052e-04,3.957056266e-03,4.694800416e-03,-5.608562663e-04,4.133944150e-03,5.744701125e-03,-1.273266243e-04,5.617374501e-03,4.114636311e-03,-2.369792961e-04,3.877657015e-03,2.673711331e-03,-2.463342292e-04,2.427377101e-03,3.144499363e-03,-5.118824620e-04,2.632616901e-03,2.749246094e-03,-1.011512909e-04,2.648094803e-03,3.889035114e-03,-3.127093509e-04,3.576325763e-03,4.559340695e-03,-1.604249858e-04,4.398915709e-03,4.678037910e-03,9.840507070e-05,4.776442981e-03,5.520256775e-03,3.208921380e-04,5.841148913e-03,4.179820879e-03,2.766654065e-04,4.456486285e-03,5.246521546e-03,2.415018839e-04,5.488023430e-03,3.378332518e-03,-2.974219917e-04,3.080910527e-03,2.565039451e-03,-2.117643508e-05,2.543863016e-03,4.932409571e-03,3.630360024e-04,5.295445574e-03,8.908363726e-04,-1.861462873e-04,7.046900852e-04,1.065283856e-03,-1.120055460e-04,9.532783102e-04,3.974405763e-03,-2.444152947e-04,3.729990468e-03,3.662412363e-03,-2.659095938e-04,3.396502769e-03,4.849180384e-03,-6.182412374e-04,4.230939147e-03,4.081977804e-03,2.983096384e-05,4.111808768e-03,4.980947306e-03,1.248781387e-04,5.105825444e-03,5.665372516e-03,3.773541197e-04,6.042726636e-03,5.455645791e-03,3.315672342e-04,5.787213025e-03,5.686678098e-03,2.366292401e-04,5.923307338e-03,5.616148325e-03,2.020668744e-04,5.818215199e-03,5.296466460e-03,2.113271865e-04,5.507793647e-03,6.116555766e-03,3.418612615e-04,6.458417027e-03,6.907067498e-03,8.137505668e-04,7.720818065e-03
-8.3,2.278987016e-03,-2.166574264e-04,2.062329590e-03,2.284251171e-03,4.306192177e-06,2.288557363e-03,6.580074654e-03,4.149729413e-04,6.995047595e-03,4.952788141e-03,2.027335416e-04,5.155521683e-03,5.098015491e-03,-3.638785346e-04,4.734136957e-03,2.959902919e-03,-1.294966465e-04,2.830406272e-03,4.039074441e-03,-1.657568735e-04,3.873317567e-03,4.588606716e-03,-5.673549623e-04,4.021251753e-03,5.668758346e-03,-1.372642170e-04,5.531494129e-03,4.004003253e-03,-2.447379886e-04,3.759265264e-03,2.594317231e-03,-2.547227330e-04,2.339594498e-03,3.078911759e-03,-5.106561115e-04,2.568255648e-03,2.710361653e-03,-1.262975891e-04,2.584064064e-03,3.826353460e-03,-3.129622455e-04,3.513391214e-03,4.435355129e-03,-1.431699192e-04,4.292185210e-03,4.604460412e-03,8.395299914e-05,4.688413411e-03,5.411556142e-03,3.082568932e-04,5.719813036e-03,4.112907890e-03,2.784161617e-04,4.391324051e-03,5.156090582e-03,2.346244442e-04,5.390715026e-03,3.290742852e-03,-3.046346270e-04,2.986108225e-03,2.464910841e-03,-2.542564348e-05,2.439485197e-03,4.886067638e-03,3.560314651e-04,5.242099103e-03,8.355460413e-04,-1.886233195e-04,6.469227218e-04,1.059045181e-03,-1.046654480e-04,9.543797331e-04,3.912808108e-03,-2.489111556e-04,3.663896952e-03,3.632116702e-03,-2.658820325e-04,3.366234670e-03,4.782147933e-03,-6.332482113e-04,4.148899722e-03,4.040748572e-03,1.448272661e-05,4.055231298e-03,4.909598255e-03,1.156391038e-04,5.025237359e-03,5.582070928e-03,3.685411767e-04,5.950612105e-03,5.353506730e-03,3.175602853e-04,5.671067016e-03,5.602751717e-03,2.280729380e-04,5.830824655e-03,5.516543152e-03,1.913463725e-04,5.707889525e-03,5.215459312e-03,2.055793577e-04,5.421038670e-03,6.039135694e-03,3.102832046e-04,6.349418898e-03,6.782176868e-03,8.166605031e-04,7.598837371e-03
-8.2,2.262198488e-03,-2.134613511e-04,2.048737137e-03,2.226057032e-03,-7.324445350e-07,2.225324587e-03,6.602866019e-03,4.224561983e-04,7.025322218e-03,4.882674292e-03,2.049352130e-04,5.087609505e-03,5.022880105e-03,-3.701503447e-04,4.652729760e-03,2.849400849e-03,-1.324097940e-04,2.716991055e-03,3.953543396e-03,-1.715645636e-04,3.781978833e-03,4.472708965e-03,-5.726548642e-04,3.900054101e-03,5.582061125e-03,-1.474756773e-04,5.434585447e-03,3.885046761e-03,-2.522686579e-04,3.632778103e-03,2.510708060e-03,-2.627839559e-04,2.247924104e-03,3.005733778e-03,-5.086045469e-04,2.497129231e-03,2.666251570e-03,-1.517283818e-04,2.514523188e-03,3.754767629e-03,-3.128971588e-04,3.441870470e-03,4.298650248e-03,-1.249702181e-04,4.173680030e-03,4.521233766e-03,6.916139288e-05,4.590395159e-03,5.291236678e-03,2.942390432e-04,5.585475721e-03,4.036533960e-03,2.786731636e-04,4.315207124e-03,5.053554577e-03,2.271045939e-04,5.280659171e-03,3.195426121e-03,-3.114547738e-04,2.883971347e-03,2.360125519e-03,-2.979461755e-05,2.330330901e-03,4.831538329e-03,3.478840199e-04,5.179422349e-03,7.800413639e-04,-1.907892264e-04,5.892521375e-04,1.049915315e-03,-9.764446756e-05,9.522708475e-04,3.844021150e-03,-2.542658539e-04,3.589755296e-03,3.593661696e-03,-2.654296723e-04,3.328232024e-03,4.703228874e-03,-6.447667914e-04,4.058462083e-03,3.989365871e-03,-1.075489694e-06,3.988290381e-03,4.827290945e-03,1.060522424e-04,4.933343188e-03,5.486554211e-03,3.586229931e-04,5.845177204e-03,5.239402609e-03,3.021130927e-04,5.541515702e-03,5.506802061e-03,2.191866489e-04,5.725988710e-03,5.405212916e-03,1.804367350e-04,5.585649651e-03,5.123531574e-03,1.991407529e-04,5.322672326e-03,5.949689627e-03,2.803747376e-04,6.230064364e-03,6.646005550e-03,8.168149300e-04,7.462820480e-03
-8.1,2.238944592e-03,-2.104705134e-04,2.028474079e-03,2.162673051e-03,-6.140923770e-06,2.156532127e-03,6.608611973e-03,4.277165853e-04,7.036328558e-03,4.806292716e-03,2.065290031e-04,5.012821719e-03,4.940852099e-03,-3.758506928e-04,4.565001406e-03,2.733794405e-03,-1.353333355e-04,2.598461069e-03,3.860658888e-03,-1.772857169e-04,3.683373171e-03,4.347518737e-03,-5.766859871e-04,3.770832749e-03,5.484638741e-03,-1.579307499e-04,5.326707991e-03,3.758151362e-03,-2.595340074e-04,3.498617354e-03,2.423234156e-03,-2.704901024e-04,2.152744054e-03,2.925391677e-03,-5.057015283e-04,2.419690149e-03,2.616971724e-03,-1.770613509e-04,2.439910373e-03,3.674676391e-03,-3.125142100e-04,3.362162181e-03,4.150205632e-03,-1.060616017e-04,4.044144031e-03,4.428604217e-03,5.417564549e-05,4.482779862e-03,5.159802884e-03,2.789886518e-04,5.438791536e-03,3.951087781e-03,2.774021403e-04,4.228489921e-03,4.939398053e-03,2.189723516e-04,5.158370404e-03,3.092774519e-03,-3.178488696e-04,2.774925649e-03,2.251168035e-03,-3.428652102e-05,2.216881514e-03,4.769127357e-03,3.386113135e-04,5.107738671e-03,7.246088336e-04,-1.926316119e-04,5.319772217e-04,1.038129716e-03,-9.094708982e-05,9.471826264e-04,3.768253308e-03,-2.603478328e-04,3.507905475e-03,3.547171758e-03,-2.645256528e-04,3.282646106e-03,4.612744677e-03,-6.527605229e-04,3.959984154e-03,3.928038070e-03,-1.672930064e-05,3.911308769e-03,4.734319158e-03,9.616787300e-05,4.830487031e-03,5.379168888e-03,3.476149552e-04,5.726783843e-03,5.113832517e-03,2.853096909e-04,5.399142208e-03,5.399161308e-03,2.100357317e-04,5.609197040e-03,5.282525116e-03,1.694767518e-04,5.452001868e-03,5.021087397e-03,1.920613488e-04,5.213148745e-03,5.848429078e-03,2.523729528e-04,6.100802030e-03,6.499127121e-03,8.142305450e-04,7.313357666e-03
-8,2.209262278e-03,-2.076690441e-04,2.001593234e-03,2.094474555e-03,-1.189086516e-05,2.082583690e-03,6.597154241e-03,4.307554720e-04,7.027909713e-03,4.724047676e-03,2.075002459e-04,4.931547922e-03,4.852072890e-03,-3.809523742e-04,4.471120515e-03,2.613686180e-03,-1.382825374e-04,2.475403642e-03,3.760762152e-03,-1.828905185e-04,3.577871633e-03,4.213499504e-03,-5.793886069e-04,3.634110897e-03,5.376569922e-03,-1.685937436e-04,5.207976179e-03,3.623746467e-03,-2.664965968e-04,3.357249870e-03,2.332265281e-03,-2.778113984e-04,2.054453882e-03,2.838354326e-03,-5.019295181e-04,2.336424808e-03,2.562574370e-03,-2.019269137e-04,2.360647457e-03,3.586514962e-03,-3.118161790e-04,3.274698783e-03,3.991084824e-03,-8.668109205e-05,3.904403732e-03,4.326868444e-03,3.913354625e-05,4.366001990e-03,5.017813302e-03,2.626668632e-04,5.280480165e-03,3.856999344e-03,2.745937307e-04,4.131593074e-03,4.814165649e-03,2.102654469e-04,5.024431096e-03,2.983221307e-03,-3.237809246e-04,2.659440382e-03,2.138553280e-03,-3.890312552e-05,2.099650154e-03,4.699168224e-03,3.282398413e-04,5.027408065e-03,6.695322701e-04,-1.941396383e-04,4.753926318e-04,1.023935093e-03,-8.457528721e-05,9.393598056e-04,3.685740180e-03,-2.670014791e-04,3.418738701e-03,3.492822002e-03,-2.631483618e-04,3.229673640e-03,4.511127849e-03,-6.572325950e-04,3.853895254e-03,3.857014086e-03,-3.234794423e-05,3.824666142e-03,4.631019135e-03,8.604449384e-05,4.717063629e-03,5.260332744e-03,3.355372304e-04,5.595869974e-03,4.977350222e-03,2.672552496e-04,5.244605472e-03,5.280219157e-03,2.006815862e-04,5.480900743e-03,5.148898430e-03,1.585974202e-04,5.307495850e-03,4.908573343e-03,1.843968181e-04,5.092970162e-03,5.735635544e-03,2.264443307e-04,5.962079875e-03,6.342174754e-03,8.089108297e-04,7.151085583e-03
-7.9,2.173225619e-03,-2.050389916e-04,1.968186627e-03,2.021867556e-03,-1.794918427e-05,2.003918372e-03,6.568411247e-03,4.315876694e-04,6.999998917e-03,4.636364302e-03,2.078374039e-04,4.844201706e-03,4.756694577e-03,-3.854319619e-04,4.371262615e-03,2.489704187e-03,-1.412717348e-04,2.348432452e-03,3.654227681e-03,-1.883479323e-04,3.465879749e-03,4.071161552e-03,-5.807126543e-04,3.490448898e-03,5.257983344e-03,-1.794234288e-04,5.078559915e-03,3.482303041e-03,-2.731190314e-04,3.209184010e-03,2.238187066e-03,-2.847160438e-04,1.953471023e-03,2.745130430e-03,-4.972814579e-04,2.247848972e-03,2.503111166e-03,-2.259749736e-04,2.277136192e-03,3.490752026e-03,-3.108075796e-04,3.179944446e-03,3.822422739e-03,-6.706555634e-05,3.755357183e-03,4.216369318e-03,2.416415701e-05,4.240533475e-03,4.865875137e-03,2.454434748e-04,5.111318612e-03,3.754736281e-03,2.702620267e-04,4.024998307e-03,4.678454394e-03,2.010293679e-04,4.879483762e-03,2.867236899e-03,-3.292124502e-04,2.538024449e-03,2.022821242e-03,-4.364418198e-05,1.979177060e-03,4.622015895e-03,3.168053544e-04,4.938821249e-03,6.150905220e-04,-1.953037941e-04,4.197867279e-04,1.007585598e-03,-7.852882064e-05,9.290567772e-04,3.596745093e-03,-2.740520950e-04,3.322692998e-03,3.430833649e-03,-2.612811312e-04,3.169552518e-03,4.398928031e-03,-6.582416480e-04,3.740686383e-03,3.776581836e-03,-4.778825817e-05,3.728793578e-03,4.517766134e-03,7.574999601e-05,4.593516130e-03,5.130531454e-03,3.224153629e-04,5.452946817e-03,4.830558710e-03,2.480756327e-04,5.078634343e-03,5.150420202e-03,1.911806817e-04,5.341600884e-03,5.004803425e-03,1.479163359e-04,5.152719761e-03,4.786476384e-03,1.762075636e-04,4.962683948e-03,5.611659703e-03,2.026842564e-04,5.814343959e-03,6.175834866e-03,8.008462418e-04,6.976681107e-03
-7.8,2.130946350e-03,-2.025603546e-04,1.928385996e-03,1.945285172e-03,-2.427836069e-05,1.921006811e-03,6.522379420e-03,4.302415094e-04,6.952620929e-03,4.543682619e-03,2.075316879e-04,4.751214307e-03,4.654880070e-03,-3.892696690e-04,4.265610401e-03,2.362495993e-03,-1.443127345e-04,2.218183258e-03,3.541460878e-03,-1.936259283e-04,3.347834949e-03,3.921057474e-03,-5.806166442e-04,3.340440830e-03,5.129058469e-03,-1.903730039e-04,4.938685465e-03,3.334330776e-03,-2.793641232e-04,3.054966652e-03,2.141397861e-03,-2.911702605e-04,1.850227600e-03,2.646265740e-03,-4.917618983e-04,2.154503842e-03,2.438638020e-03,-2.488801913e-04,2.189757828e-03,3.387887270e-03,-3.094934993e-04,3.078393771e-03,3.645413722e-03,-4.745035151e-05,3.597963370e-03,4.097493405e-03,9.387384483e-06,4.106880789e-03,4.704640526e-03,2.274944963e-04,4.932135022e-03,3.644801633e-03,2.644424256e-04,3.909244059e-03,4.532907822e-03,1.913171428e-04,4.724224965e-03,2.745325444e-03,-3.341026570e-04,2.411222787e-03,1.904532100e-03,-4.850680097e-05,1.856025299e-03,4.538040851e-03,3.043535191e-04,4.842394370e-03,5.615553320e-04,-1.961156991e-04,3.654396329e-04,9.893397494e-04,-7.280536674e-05,9.165343826e-04,3.501560883e-03,-2.813115894e-04,3.220249293e-03,3.361470278e-03,-2.589116905e-04,3.102558587e-03,4.276809469e-03,-6.559141832e-04,3.620895286e-03,3.687068161e-03,-6.289902697e-05,3.624169134e-03,4.394972521e-03,6.536224132e-05,4.460334763e-03,4.990314637e-03,3.082806573e-04,5.298595295e-03,4.674105772e-03,2.279157141e-04,4.902021486e-03,5.010261546e-03,1.815839761e-04,5.191845522e-03,4.850763390e-03,1.375334113e-04,4.988296802e-03,4.655322688e-03,1.675576251e-04,4.822880313e-03,5.476920898e-03,1.811191999e-04,5.658040097e-03,6.000838060e-03,7.900177025e-04,6.790855763e-03
-7.7,2.082574230e-03,-2.002111890e-04,1.882363041e-03,1.865183951e-03,-3.083676991e-05,1.834347181e-03,6.459133742e-03,4.267588236e-04,6.885892566e-03,4.446451925e-03,2.065773116e-04,4.653029236e-03,4.546803016e-03,-3.924491867e-04,4.154353829e-03,2.232722357e-03,-1.474133306e-04,2.085309026e-03,3.422895168e-03,-1.986917511e-04,3.224203417e-03,3.763776874e-03,-5.790665984e-04,3.184710276e-03,4.990025438e-03,-2.013902133e-04,4.788635225e-03,3.180374695e-03,-2.851951046e-04,2.895179590e-03,2.042305059e-03,-2.971384860e-04,1.745166573e-03,2.542339101e-03,-4.853872720e-04,2.056951829e-03,2.369221313e-03,-2.703468833e-04,2.098874430e-03,3.278447376e-03,-3.078785003e-04,2.970568876e-03,3.461298867e-03,-2.806799544e-05,3.433230871e-03,3.970668906e-03,-5.086508758e-06,3.965582397e-03,4.534802341e-03,2.089993736e-04,4.743801715e-03,3.527731412e-03,2.571891594e-04,3.784920572e-03,4.378210488e-03,1.811885038e-04,4.559398992e-03,2.618020985e-03,-3.384089198e-04,2.279612065e-03,1.784260796e-03,-5.348489572e-05,1.730775900e-03,4.447622711e-03,2.909408081e-04,4.738563519e-03,5.091888509e-04,-1.965679317e-04,3.126209192e-04,9.694573737e-04,-6.740046531e-05,9.020569084e-04,3.400511194e-03,-2.885840893e-04,3.111927104e-03,3.285034138e-03,-2.560319784e-04,3.029002160e-03,4.145535701e-03,-6.504476919e-04,3.495088009e-03,3.588839343e-03,-7.752563506e-05,3.511313708e-03,4.263085380e-03,5.496878274e-05,4.318054163e-03,4.840289794e-03,2.931700362e-04,5.133459830e-03,4.508678862e-03,2.069365834e-04,4.715615445e-03,4.860288997e-03,1.719363992e-04,5.032225397e-03,4.687353108e-03,1.275280488e-04,4.814881157e-03,4.515674774e-03,1.585133266e-04,4.674188101e-03,5.331902304e-03,1.617115027e-04,5.493613807e-03,5.817946549e-03,7.764013512e-04,6.594347901e-03
-7.6,2.028296420e-03,-1.979677644e-04,1.830328656e-03,1.782039355e-03,-3.757903359e-05,1.744460322e-03,6.378826662e-03,4.211947077e-04,6.800021369e-03,4.345124585e-03,2.049721716e-04,4.550096756e-03,4.432646423e-03,-3.949575020e-04,4.037688921e-03,2.101049841e-03,-1.505762493e-04,1.950473592e-03,3.298987581e-03,-2.035122816e-04,3.095475299e-03,3.599939214e-03,-5.760351069e-04,3.023904107e-03,4.841163288e-03,-2.124176326e-04,4.628745655e-03,3.021010459e-03,-2.905759132e-04,2.730434546e-03,1.941320440e-03,-3.025836928e-04,1.638736748e-03,2.433956511e-03,-4.781852742e-04,1.955771237e-03,2.294946300e-03,-2.901151867e-04,2.004831113e-03,3.162979580e-03,-3.059658773e-04,2.857013703e-03,3.271351549e-03,-9.147221482e-06,3.262204328e-03,3.836362669e-03,-1.915787064e-05,3.817204799e-03,4.357087885e-03,1.901376497e-04,4.547225535e-03,3.404090351e-03,2.485728414e-04,3.652663193e-03,4.215081358e-03,1.707083184e-04,4.385789676e-03,2.485882618e-03,-3.420874087e-04,2.143795209e-03,1.662590614e-03,-5.856866085e-05,1.604021953e-03,4.351142958e-03,2.766354321e-04,4.627778390e-03,4.582406282e-04,-1.966538621e-04,2.615867661e-04,9.481960619e-04,-6.230738104e-05,8.858886808e-04,3.293950033e-03,-2.956713679e-04,2.998278665e-03,3.201861733e-03,-2.526386267e-04,2.949223106e-03,4.005946879e-03,-6.421061349e-04,3.363840744e-03,3.482302092e-03,-9.151519199e-05,3.390786900e-03,4.122582468e-03,4.466576044e-05,4.167248229e-03,4.681113626e-03,2.771254194e-04,4.958239046e-03,4.334998158e-03,1.853120327e-04,4.520310190e-03,4.701091465e-03,1.622760373e-04,4.863367502e-03,4.515194512e-03,1.179576766e-04,4.633152188e-03,4.368125730e-03,1.491415828e-04,4.517267313e-03,5.177139307e-03,1.443668887e-04,5.321506196e-03,5.627938590e-03,7.599728836e-04,6.387911474e-03
-7.5,1.968335601e-03,-1.958047870e-04,1.772530814e-03,1.696340153e-03,-4.445641397e-05,1.651883739e-03,6.281685246e-03,4.136170186e-04,6.695302265e-03,4.240148818e-03,2.027186288e-04,4.442867447e-03,4.312599775e-03,-3.967847012e-04,3.915815074e-03,1.968142532e-03,-1.537986520e-04,1.814343880e-03,3.170212597e-03,-2.080544605e-04,2.962158136e-03,3.430184652e-03,-5.715003920e-04,2.858684260e-03,4.682796543e-03,-2.233930746e-04,4.459403468e-03,2.856838225e-03,-2.954714814e-04,2.561366744e-03,1.838854580e-03,-3.074677641e-04,1.531386816e-03,2.321742866e-03,-4.701934040e-04,1.851549462e-03,2.215927251e-03,-3.079683147e-04,1.907958936e-03,3.042043302e-03,-3.037574183e-04,2.738285884e-03,3.076861077e-03,9.086930884e-06,3.085948008e-03,3.695075484e-03,-3.273890330e-05,3.662336580e-03,4.172250375e-03,1.710848938e-04,4.343335269e-03,3.274465406e-03,2.386780983e-04,3.513143504e-03,4.044265407e-03,1.599444772e-04,4.204209884e-03,2.349488647e-03,-3.450938452e-04,2.004394802e-03,1.540105800e-03,-6.374410236e-05,1.476361698e-03,4.248977154e-03,2.615179026e-04,4.510495057e-03,4.089442347e-04,-1.963675058e-04,2.125767289e-04,9.258070855e-04,-5.751702388e-05,8.682900616e-04,3.182259148e-03,-3.023783671e-04,2.879880781e-03,3.112318252e-03,-2.487338071e-04,2.863584445e-03,3.858939392e-03,-6.312140065e-04,3.227725385e-03,3.367904611e-03,-1.047217282e-04,3.263182883e-03,3.973966713e-03,3.455599142e-05,4.008522705e-03,4.513481049e-03,2.601930360e-04,4.773674085e-03,4.153807800e-03,1.632247415e-04,4.317032542e-03,4.533293956e-03,1.526329939e-04,4.685926950e-03,4.334949159e-03,1.088577215e-04,4.443806881e-03,4.213290695e-03,1.395079233e-04,4.352798619e-03,5.013202462e-03,1.289441035e-04,5.142146566e-03,5.431591278e-03,7.407111078e-04,6.172302386e-03
-7.4,1.902946980e-03,-1.936956943e-04,1.709251286e-03,1.608581945e-03,-5.141731649e-05,1.557164628e-03,6.168007063e-03,4.041056284e-04,6.572112691e-03,4.131960510e-03,1.998241299e-04,4.331784640e-03,4.186855189e-03,-3.979237300e-04,3.788931459e-03,1.834653239e-03,-1.570720313e-04,1.677581207e-03,3.037054789e-03,-2.122856863e-04,2.824769103e-03,3.255163798e-03,-5.654454784e-04,2.689718320e-03,4.515290796e-03,-2.342500717e-04,4.281040725e-03,2.688475468e-03,-2.998479422e-04,2.388627526e-03,1.735310837e-03,-3.117518837e-04,1.423558953e-03,2.206332069e-03,-4.614571822e-04,1.744874887e-03,2.132316578e-03,-3.237383483e-04,1.808578230e-03,2.916201057e-03,-3.012535681e-04,2.614947488e-03,2.879115153e-03,2.641205758e-05,2.905527210e-03,3.547335385e-03,-4.575456225e-05,3.501580823e-03,3.981059172e-03,1.520080478e-04,4.133067220e-03,3.139457562e-03,2.276012216e-04,3.367058783e-03,3.866523783e-03,1.489655480e-04,4.015489331e-03,2.209430216e-03,-3.473844269e-04,1.862045789e-03,1.417383709e-03,-6.899270649e-05,1.348391003e-03,4.141487448e-03,2.456807603e-04,4.387168208e-03,3.615138386e-04,-1.957034125e-04,1.658104261e-04,9.025310341e-04,-5.301804466e-05,8.495129894e-04,3.065843400e-03,-3.085187580e-04,2.757324642e-03,3.016791183e-03,-2.443259550e-04,2.772465228e-03,3.705452563e-03,-6.181525342e-04,3.087300029e-03,3.246136870e-03,-1.170109230e-04,3.129125947e-03,3.817760154e-03,2.474634460e-05,3.842506499e-03,4.338112826e-03,2.424231160e-04,4.580535942e-03,3.965866166e-03,1.408622688e-04,4.106728435e-03,4.357549974e-03,1.430281071e-04,4.500578081e-03,4.147308564e-03,1.002428905e-04,4.247551454e-03,4.051796749e-03,1.296744359e-04,4.181471185e-03,4.840679633e-03,1.152650078e-04,4.955944641e-03,5.229662873e-03,7.186012662e-04,5.948264140e-03
-7.3,1.832414607e-03,-1.916129773e-04,1.640801630e-03,1.519260348e-03,-5.840789576e-05,1.460852452e-03,6.038155492e-03,3.927515232e-04,6.430907015e-03,4.020974529e-03,1.963014861e-04,4.217276015e-03,4.055603553e-03,-3.983700448e-04,3.657233509e-03,1.701214588e-03,-1.603821919e-04,1.540832396e-03,2.900001171e-03,-2.161741114e-04,2.683827060e-03,3.075528088e-03,-5.578577831e-04,2.517670305e-03,4.339048145e-03,-2.449184430e-04,4.094129702e-03,2.516549578e-03,-3.036727537e-04,2.212876824e-03,1.631079687e-03,-3.153969642e-04,1.315682723e-03,2.088356915e-03,-4.520288089e-04,1.636328106e-03,2.044309348e-03,-3.373075854e-04,1.707001763e-03,2.786010129e-03,-2.984536994e-04,2.487556429e-03,2.679382293e-03,4.260762759e-05,2.721989921e-03,3.393689539e-03,-5.814266680e-05,3.335546872e-03,3.784289995e-03,1.330607256e-04,3.917350721e-03,2.999672909e-03,2.154478115e-04,3.215120721e-03,3.682623586e-03,1.378384779e-04,3.820462064e-03,2.066305064e-03,-3.489169286e-04,1.717388135e-03,1.294987073e-03,-7.429127209e-05,1.220695800e-03,4.029016085e-03,2.292272677e-04,4.258243352e-03,3.161411079e-04,-1.946565698e-04,1.214845381e-04,8.785935548e-04,-4.879713247e-05,8.297964223e-04,2.945124730e-03,-3.139200233e-04,2.631204707e-03,2.915684057e-03,-2.394302540e-04,2.676253803e-03,3.546460215e-03,-6.033565625e-04,2.943103653e-03,3.117529379e-03,-1.282641657e-04,2.989265214e-03,3.654498558e-03,1.534478246e-05,3.669843340e-03,4.155743467e-03,2.238701680e-04,4.379613635e-03,3.771936431e-03,1.184128119e-04,3.890349243e-03,4.174534341e-03,1.334716889e-04,4.308006030e-03,3.952984590e-03,9.210909741e-05,4.045093687e-03,3.884272805e-03,1.196980009e-04,4.003970806e-03,4.660162330e-03,1.031234001e-04,4.763285730e-03,5.022875595e-03,6.936388597e-04,5.716514455e-03
-7.2,1.757047542e-03,-1.895284624e-04,1.567519080e-03,1.428864314e-03,-6.537267042e-05,1.363491643e-03,5.892555266e-03,3.796558450e-04,6.272211111e-03,3.907576354e-03,1.921687082e-04,4.099745063e-03,3.919031666e-03,-3.981211305e-04,3.520910536e-03,1.568430623e-03,-1.637091167e-04,1.404721506e-03,2.759534371e-03,-2.196888107e-04,2.539845560e-03,2.891922335e-03,-5.487292229e-04,2.343193112e-03,4.154503372e-03,-2.553249698e-04,3.899178403e-03,2.341691156e-03,-3.069148351e-04,2.034776321e-03,1.526534129e-03,-3.183641470e-04,1.208169982e-03,1.968439968e-03,-4.419664503e-04,1.526473518e-03,1.952141958e-03,-3.486050718e-04,1.603536886e-03,2.652016334e-03,-2.953561891e-04,2.356660145e-03,2.478895508e-03,5.745581923e-05,2.536351327e-03,3.234696235e-03,-6.985325591e-05,3.164842979e-03,3.582716575e-03,1.143790769e-04,3.697095652e-03,2.855714077e-03,2.023304717e-04,3.058044549e-03,3.493328698e-03,1.266265104e-04,3.619955208e-03,1.920711955e-03,-3.496518632e-04,1.571060092e-03,1.173456921e-03,-7.961177988e-05,1.093845141e-03,3.911880357e-03,2.122692908e-04,4.124149648e-03,2.729927911e-04,-1.932222893e-04,7.977050175e-05,8.542016702e-04,-4.483944544e-05,8.093622248e-04,2.820535575e-03,-3.184274508e-04,2.502108124e-03,2.809411238e-03,-2.340688020e-04,2.575342436e-03,3.382961714e-03,-5.873084900e-04,2.795653224e-03,2.982650282e-03,-1.383816343e-04,2.844268648e-03,3.484728006e-03,6.457591756e-06,3.491185598e-03,3.967111153e-03,2.045938480e-04,4.171705001e-03,3.572778651e-03,9.606092003e-05,3.668839571e-03,3.984937467e-03,1.239625535e-04,4.108900021e-03,3.752702137e-03,8.443529873e-05,3.837137435e-03,3.711341200e-03,1.096292111e-04,3.820970411e-03,4.472238689e-03,9.229198288e-05,4.564530672e-03,4.811900429e-03,6.658345948e-04,5.477735023e-03
-7.1,1.677176444e-03,-1.874135303e-04,1.489762913e-03,1.337870030e-03,-7.225507870e-05,1.265614951e-03,5.731688849e-03,3.649289180e-04,6.096617767e-03,3.792115062e-03,1.874484877e-04,3.979563550e-03,3.777321129e-03,-3.971759454e-04,3.380145184e-03,1.436869542e-03,-1.670266856e-04,1.269842857e-03,2.616127469e-03,-2.227998573e-04,2.393327611e-03,2.704980124e-03,-5.380568549e-04,2.166923269e-03,3.962121349e-03,-2.653941811e-04,3.696727168e-03,2.164528617e-03,-3.095447933e-04,1.854983824e-03,1.422026511e-03,-3.206153589e-04,1.101411152e-03,1.847185828e-03,-4.313336364e-04,1.415852191e-03,1.856087457e-03,-3.576009304e-04,1.498486527e-03,2.514750393e-03,-2.919580978e-04,2.222792296e-03,2.278838317e-03,7.074390623e-05,2.349582223e-03,3.070918393e-03,-8.084735241e-05,2.990071041e-03,3.377104792e-03,9.607868830e-05,3.473183480e-03,2.708172912e-03,1.883666983e-04,2.896539610e-03,3.299393060e-03,1.153872924e-04,3.414780352e-03,1.773245989e-03,-3.495534991e-04,1.423692490e-03,1.053306474e-03,-8.492117742e-05,9.683852965e-04,3.790369309e-03,1.949247791e-04,3.985294089e-03,2.322091543e-04,-1.913961000e-04,4.081305426e-05,8.295411301e-04,-4.112904355e-05,7.884120866e-04,2.692512666e-03,-3.219067961e-04,2.370605870e-03,2.698393923e-03,-2.282701360e-04,2.470123787e-03,3.215968260e-03,-5.705264785e-04,2.645441781e-03,2.842100933e-03,-1.472838827e-04,2.694817050e-03,3.309004044e-03,-1.812921362e-06,3.307191122e-03,3.772950515e-03,1.846602060e-04,3.957610721e-03,3.369144085e-03,7.398349605e-05,3.443127581e-03,3.789461419e-03,1.144876163e-04,3.903949036e-03,3.547194749e-03,7.718498083e-05,3.624379729e-03,3.533612087e-03,9.951212596e-05,3.633124213e-03,4.277492007e-03,8.252811784e-05,4.360020125e-03,4.597345792e-03,6.352205945e-04,5.232566387e-03
-7,1.593150835e-03,-1.852393081e-04,1.407911526e-03,1.246735651e-03,-7.899801611e-05,1.167737635e-03,5.556093681e-03,3.486892387e-04,5.904782920e-03,3.674898364e-03,1.821676301e-04,3.857065994e-03,3.630648955e-03,-3.955343967e-04,3.235114558e-03,1.307057831e-03,-1.703023017e-04,1.136755530e-03,2.470240493e-03,-2.254783710e-04,2.244762122e-03,2.515321549e-03,-5.258442810e-04,1.989477268e-03,3.762395313e-03,-2.750492308e-04,3.487346082e-03,1.985683938e-03,-3.115352017e-04,1.674148737e-03,1.317886428e-03,-3.221138720e-04,9.957725559e-04,1.725174633e-03,-4.201983228e-04,1.304976310e-03,1.756450830e-03,-3.643011252e-04,1.392149705e-03,2.374726022e-03,-2.882543532e-04,2.086471669e-03,2.080333374e-03,8.226735525e-05,2.162600729e-03,2.902918703e-03,-9.109525383e-05,2.811823449e-03,3.168208908e-03,7.825284092e-05,3.246461749e-03,2.557624734e-03,1.736770845e-04,2.731301818e-03,3.101556774e-03,1.041711135e-04,3.205727887e-03,1.624494534e-03,-3.485906564e-04,1.275903877e-03,9.350159976e-04,-9.018117786e-05,8.448348197e-04,3.664742288e-03,1.773151181e-04,3.842057406e-03,1.939030920e-04,-1.891737149e-04,4.729377130e-06,8.047749211e-04,-3.764918784e-05,7.671257333e-04,2.561491983e-03,-3.242459264e-04,2.237246057e-03,2.583057063e-03,-2.220680737e-04,2.360988990e-03,3.046483851e-03,-5.535468264e-04,2.492937025e-03,2.696510120e-03,-1.549116551e-04,2.541598465e-03,3.127892315e-03,-9.370427176e-06,3.118521888e-03,3.573987421e-03,1.641428347e-04,3.738130255e-03,3.161771392e-03,5.234623518e-05,3.214117627e-03,3.588816833e-03,1.050221287e-04,3.693838962e-03,3.337201873e-03,7.030739726e-05,3.407509270e-03,3.351680134e-03,8.938468436e-05,3.441064818e-03,4.076501404e-03,7.357937247e-05,4.150080777e-03,4.379750530e-03,6.018570403e-04,4.981607570e-03
-6.9,1.505336747e-03,-1.829768593e-04,1.322359887e-03,1.155896733e-03,-8.554444068e-05,1.070352293e-03,5.366359627e-03,3.310623829e-04,5.697422010e-03,3.556189554e-03,1.763567334e-04,3.732546287e-03,3.479188943e-03,-3.931969192e-04,3.085992024e-03,1.179475429e-03,-1.734965917e-04,1.005978837e-03,2.322317613e-03,-2.276965972e-04,2.094621016e-03,2.323552101e-03,-5.121041177e-04,1.811447983e-03,3.555845042e-03,-2.842128440e-04,3.271632198e-03,1.805768744e-03,-3.128608493e-04,1.492907895e-03,1.214418887e-03,-3.228248436e-04,8.915940434e-04,1.602956377e-03,-4.086315820e-04,1.194324795e-03,1.653564926e-03,-3.687430209e-04,1.284821905e-03,2.232438072e-03,-2.842365803e-04,1.948201492e-03,1.884432802e-03,9.183325456e-05,1.976266056e-03,2.731255373e-03,-1.005747088e-04,2.630680665e-03,2.956768108e-03,6.097214456e-05,3.017740253e-03,2.404623789e-03,1.583838681e-04,2.563007657e-03,2.900543905e-03,9.301938971e-05,2.993563294e-03,1.475033235e-03,-3.467374092e-04,1.128295826e-03,8.190283414e-04,-9.534832648e-05,7.236800149e-04,3.535228916e-03,1.595624650e-04,3.694791381e-03,1.581594713e-04,-1.865511075e-04,-2.839163618e-05,7.800425796e-04,-3.438244805e-05,7.456601315e-04,2.427904863e-03,-3.253560282e-04,2.102548834e-03,2.463826614e-03,-2.155002796e-04,2.248326334e-03,2.875484406e-03,-5.369040052e-04,2.338580401e-03,2.546526297e-03,-1.612238032e-04,2.385302494e-03,2.941968365e-03,-1.612666558e-05,2.925841699e-03,3.370933825e-03,1.431234460e-04,3.514057271e-03,2.951383263e-03,3.130056872e-05,2.982683832e-03,3.383718779e-03,9.553045939e-05,3.479249238e-03,3.123465674e-03,6.373868237e-05,3.187204356e-03,3.166121588e-03,7.927942879e-05,3.245401017e-03,3.869841071e-03,6.518929004e-05,3.935030361e-03,4.159579918e-03,5.658377177e-04,4.725417635e-03
-6.8,1.414114115e-03,-1.805973526e-04,1.233516762e-03,1.065761962e-03,-9.183806539e-05,9.739238962e-04,5.163125706e-03,3.121797915e-04,5.475305497e-03,3.436205461e-03,1.700501731e-04,3.606255635e-03,3.323112646e-03,-3.901641607e-04,2.932948485e-03,1.054551325e-03,-1.765634358e-04,8.779878892e-04,2.172783881e-03,-2.294280423e-04,1.943355839e-03,2.130261629e-03,-4.968615614e-04,1.633400067e-03,3.343014043e-03,-2.928083190e-04,3.050205724e-03,1.625379904e-03,-3.134989303e-04,1.311880973e-03,1.111902088e-03,-3.227158565e-04,7.891862314e-04,1.481045440e-03,-3.967059278e-04,1.084339513e-03,1.547785197e-03,-3.709902358e-04,1.176794962e-03,2.088359572e-03,-2.798920546e-04,1.808467517e-03,1.692108636e-03,9.926429931e-05,1.791372935e-03,2.556477255e-03,-1.092693880e-04,2.447207867e-03,2.743501520e-03,4.428524217e-05,2.787786762e-03,2.249699138e-03,1.426097484e-04,2.392308887e-03,2.697060085e-03,8.196366694e-05,2.779023752e-03,1.325421596e-03,-3.439738044e-04,9.814477919e-04,7.057447480e-04,-1.003744693e-04,6.053702786e-04,3.402029578e-03,1.417871807e-04,3.543816759e-03,1.250343449e-04,-1.835246534e-04,-5.849030850e-05,7.554597628e-04,-3.131065386e-05,7.241491089e-04,2.292174468e-03,-3.251726786e-04,1.967001789e-03,2.341126350e-03,-2.086068934e-04,2.132519457e-03,2.703899267e-03,-5.211130730e-04,2.182786194e-03,2.392807105e-03,-1.661935854e-04,2.226613519e-03,2.751814662e-03,-2.200389376e-05,2.729810769e-03,3.164481286e-03,1.216916892e-04,3.286172975e-03,2.738681840e-03,1.098139209e-05,2.749663232e-03,3.174880296e-03,8.596729505e-05,3.260847591e-03,2.906725573e-03,5.740314303e-05,2.964128716e-03,2.977489752e-03,6.922418960e-05,3.046713942e-03,3.658076387e-03,5.710314931e-05,3.715179536e-03,3.937222988e-03,5.272932782e-04,4.464516266e-03
-6.7,1.319873451e-03,-1.780721827e-04,1.141801268e-03,9.767088310e-04,-9.782407705e-05,8.788847540e-04,4.947075621e-03,2.921774147e-04,5.239253035e-03,3.315114625e-03,1.632862410e-04,3.478400867e-03,3.162589276e-03,-3.864367504e-04,2.776152526e-03,9.326591555e-04,-1.794504648e-04,7.532086907e-04,2.022040946e-03,-2.306476679e-04,1.791393278e-03,1.936022908e-03,-4.801586054e-04,1.455864303e-03,3.124465466e-03,-3.007605451e-04,2.823704921e-03,1.445094356e-03,-3.134291926e-04,1.131665164e-03,1.010584642e-03,-3.217574745e-04,6.888271671e-04,1.359914918e-03,-3.844931916e-04,9.754217264e-04,1.439481743e-03,-3.711254927e-04,1.068356250e-03,1.942937575e-03,-2.752033298e-04,1.667734245e-03,1.504241763e-03,1.044040874e-04,1.608645850e-03,2.379117466e-03,-1.171675827e-04,2.261949884e-03,2.529100952e-03,2.822030624e-05,2.557321258e-03,2.093350458e-03,1.264767204e-04,2.219827178e-03,2.491788601e-03,7.102533374e-05,2.562813935e-03,1.176197872e-03,-3.402865003e-04,8.359113718e-04,5.955206554e-04,-1.052075335e-04,4.903131219e-04,3.265315613e-03,1.241055148e-04,3.389421128e-03,9.455396042e-05,-1.800912668e-04,-8.553730636e-05,7.311177125e-04,-2.841477426e-05,7.027029382e-04,2.154711898e-03,-3.236566228e-04,1.831055275e-03,2.215373763e-03,-2.014292140e-04,2.013944549e-03,2.532595651e-03,-5.066551585e-04,2.025940493e-03,2.236007200e-03,-1.698048976e-04,2.066202302e-03,2.558014525e-03,-2.693756791e-05,2.531076957e-03,2.955293130e-03,9.994428189e-05,3.055237412e-03,2.524342183e-03,-8.494050555e-06,2.515848133e-03,2.963003688e-03,7.627914465e-05,3.039282832e-03,2.687709364e-03,5.121538187e-05,2.738924746e-03,2.786308272e-03,5.924249958e-05,2.845550772e-03,3.441757371e-03,4.907348628e-05,3.490830857e-03,3.712990091e-03,4.863918769e-04,4.199381968e-03
-6.6,1.223011718e-03,-1.753730748e-04,1.047638643e-03,8.890792366e-04,-1.034498252e-04,7.856294114e-04,4.718932124e-03,2.711942238e-04,4.990126348e-03,3.193035380e-03,1.561071987e-04,3.349142579e-03,2.997784690e-03,-3.820151480e-04,2.615769542e-03,8.141127581e-04,-1.820999641e-04,6.320127940e-04,1.870462009e-03,-2.313321358e-04,1.639129873e-03,1.741389500e-03,-4.620580063e-04,1.279331494e-03,2.900777022e-03,-3.079969594e-04,2.592780063e-03,1.265463414e-03,-3.126340272e-04,9.528293871e-04,9.106824948e-04,-3.199237832e-04,5.907587117e-04,1.239990771e-03,-3.720620812e-04,8.679286899e-04,1.329029534e-03,-3.692422050e-04,9.597873288e-04,1.796588498e-03,-2.701487822e-04,1.526439716e-03,1.321608784e-03,1.071244261e-04,1.428733210e-03,2.199685629e-03,-1.242608743e-04,2.075424755e-03,2.314221678e-03,1.278720635e-05,2.327008884e-03,1.936043692e-03,1.101046065e-04,2.046148298e-03,2.285384685e-03,6.021596932e-05,2.345600654e-03,1.027873454e-03,-3.356691524e-04,6.922043018e-04,4.886615438e-04,-1.097924810e-04,3.788690628e-04,3.125228921e-03,1.066276339e-04,3.231856555e-03,6.671378535e-05,-1.762485225e-04,-1.095347372e-04,7.070825505e-04,-2.567484595e-05,6.814077045e-04,2.015911940e-03,-3.207940811e-04,1.695117859e-03,2.086974988e-03,-1.940083007e-04,1.892966687e-03,2.362363556e-03,-4.939622333e-04,1.868401323e-03,2.076767078e-03,-1.720507479e-04,1.904716330e-03,2.361144139e-03,-3.087890077e-05,2.330265238e-03,2.743996309e-03,7.798362686e-05,2.821979936e-03,2.309004272e-03,-2.702607114e-05,2.281978200e-03,2.748770406e-03,6.640618116e-05,2.815176587e-03,2.467121175e-03,4.508368553e-05,2.512204861e-03,2.593063124e-03,4.935374279e-05,2.642416867e-03,3.221411256e-03,4.086545908e-05,3.262276715e-03,3.487110700e-03,4.433373740e-04,3.930448074e-03
-6.5,1.123927622e-03,-1.724722320e-04,9.514553900e-04,8.031752143e-04,-1.086654886e-04,6.945097257e-04,4.479450625e-03,2.493706592e-04,4.728821284e-03,3.070033944e-03,1.485590006e-04,3.218592945e-03,2.828860089e-03,-3.768995748e-04,2.451960514e-03,6.991621711e-04,-1.844500406e-04,5.147121304e-04,1.718386865e-03,-2.314600625e-04,1.486926803e-03,1.546892729e-03,-4.426458812e-04,1.104246848e-03,2.672535542e-03,-3.144483539e-04,2.358087188e-03,1.087007142e-03,-3.110984475e-04,7.759086945e-04,8.123761205e-04,-3.171928625e-04,4.951832579e-04,1.121646346e-03,-3.594757527e-04,7.621705934e-04,1.216799280e-03,-3.654373279e-04,8.513619519e-04,1.649694061e-03,-2.647038848e-04,1.384990176e-03,1.144868588e-03,1.073336774e-04,1.252202266e-03,2.018659936e-03,-1.305429907e-04,1.888116945e-03,2.099472495e-03,-2.019812514e-06,2.097452683e-03,1.778206942e-03,9.360918257e-05,1.871816125e-03,2.078468646e-03,4.953813186e-05,2.128006778e-03,8.809273409e-04,-3.301224959e-04,5.508048450e-04,3.854193395e-04,-1.140724359e-04,2.713469036e-04,2.981881367e-03,8.945591161e-05,3.071337278e-03,4.147794642e-05,-1.719948124e-04,-1.305168660e-04,6.833945691e-04,-2.307007990e-05,6.603244892e-04,1.876148999e-03,-3.165966489e-04,1.559552350e-03,1.956319110e-03,-1.863835315e-04,1.769935578e-03,2.193900480e-03,-4.833993170e-04,1.710501163e-03,1.915704915e-03,-1.729349663e-04,1.742769949e-03,2.161764542e-03,-3.379687648e-05,2.127967665e-03,2.531174416e-03,5.591612553e-05,2.587090542e-03,2.093264889e-03,-4.453157612e-05,2.048733312e-03,2.532830755e-03,5.628464786e-05,2.589115403e-03,2.245628555e-03,3.891421261e-05,2.284542768e-03,2.398194974e-03,3.957331806e-05,2.437768292e-03,2.997536683e-03,3.226191596e-05,3.029798599e-03,3.259732836e-03,3.983656554e-04,3.658098492e-03
-6.4,1.023016807e-03,-1.693425356e-04,8.536742711e-04,7.192552797e-04,-1.134247336e-04,6.058305461e-04,4.229412701e-03,2.268471451e-04,4.456259846e-03,2.946122853e-03,1.406905530e-04,3.086813407e-03,2.655971330e-03,-3.710899837e-04,2.284881346e-03,5.879909232e-04,-1.864358756e-04,4.015550476e-04,1.566118161e-03,-2.310122258e-04,1.335105935e-03,1.353038137e-03,-4.220319791e-04,9.310061577e-04,2.440332079e-03,-3.200495212e-04,2.120282558e-03,9.102096180e-04,-3.088099688e-04,6.013996492e-04,7.158087247e-04,-3.135471742e-04,4.022615505e-04,1.005198202e-03,-3.467896894e-04,6.584085126e-04,1.103151446e-03,-3.598082575e-04,7.433431888e-04,1.502599094e-03,-2.588427251e-04,1.243756369e-03,9.745519633e-04,1.049836077e-04,1.079535571e-03,1.836481033e-03,-1.360094179e-04,1.700471616e-03,1.885406877e-03,-1.621908565e-05,1.869187791e-03,1.620227261e-03,7.710009102e-05,1.697327352e-03,1.871619131e-03,3.898657108e-05,1.910605702e-03,7.358014389e-04,-3.236541441e-04,4.121472947e-04,2.859901639e-04,-1.179900620e-04,1.680001020e-04,2.835354728e-03,7.268331908e-05,2.908038047e-03,1.877950866e-05,-1.673295568e-04,-1.485500481e-04,6.600677906e-04,-2.057919847e-05,6.394885921e-04,1.735773643e-03,-3.111006255e-04,1.424673017e-03,1.823772715e-03,-1.785913854e-04,1.645181330e-03,2.027798279e-03,-4.752477553e-04,1.552550523e-03,1.753411504e-03,-1.724759732e-04,1.580935531e-03,1.960415314e-03,-3.567928085e-05,1.924736033e-03,2.317363215e-03,3.385046482e-05,2.351213680e-03,1.877671202e-03,-6.094268909e-05,1.816728513e-03,2.315795031e-03,4.585018235e-05,2.361645214e-03,2.023852003e-03,3.261506525e-05,2.056467068e-03,2.202093855e-03,2.991315577e-05,2.232007011e-03,2.770602098e-03,2.306756113e-05,2.793669659e-03,3.030926523e-03,3.517399306e-04,3.382666454e-03
-6.3,9.206675777e-04,-1.659577427e-04,7.547098351e-04,6.375318640e-04,-1.176853086e-04,5.198465554e-04,3.969620384e-03,2.037627797e-04,4.173383164e-03,2.821260356e-03,1.325525642e-04,2.953812920e-03,2.479269773e-03,-3.645859994e-04,2.114683773e-03,4.807155932e-04,-1.879909217e-04,2.927246715e-04,1.413919973e-03,-2.299716718e-04,1.183948301e-03,1.160302390e-03,-4.003472335e-04,7.599551567e-04,2.204758422e-03,-3.247398067e-04,1.880018615e-03,7.355159139e-04,-3.057584967e-04,4.297574172e-04,6.210861564e-04,-3.089738876e-04,3.121122688e-04,8.909043295e-04,-3.340500918e-04,5.568542376e-04,9.884345151e-04,-3.524546629e-04,6.359798523e-04,1.355612131e-03,-2.525392863e-04,1.103072845e-03,8.110567835e-04,1.000730387e-04,9.111298222e-04,1.653549795e-03,-1.406581715e-04,1.512891624e-03,1.672517146e-03,-2.983810362e-05,1.642679042e-03,1.462449050e-03,6.067904199e-05,1.523128092e-03,1.665368056e-03,2.855002993e-05,1.693918086e-03,5.928973636e-04,-3.162781027e-04,2.766192609e-04,1.905140434e-04,-1.214891481e-04,6.902489530e-05,2.685702059e-03,5.639188111e-05,2.742093940e-03,-1.478121855e-06,-1.622534218e-04,-1.637315437e-04,6.370901483e-04,-1.818091915e-05,6.189092291e-04,1.595109981e-03,-3.043651687e-04,1.290744813e-03,1.689676076e-03,-1.706647187e-04,1.519011357e-03,1.864534237e-03,-4.696942068e-04,1.394840030e-03,1.590447576e-03,-1.707109757e-04,1.419736600e-03,1.757611175e-03,-3.653246015e-05,1.721078715e-03,2.103049572e-03,1.189617648e-05,2.114945748e-03,1.662717632e-03,-7.620533170e-05,1.586512300e-03,2.098227581e-03,3.504232653e-05,2.133269908e-03,1.802359374e-03,2.609991349e-05,1.828459287e-03,2.005098111e-03,2.038266506e-05,2.025480776e-03,2.541049700e-03,1.311173134e-05,2.554161432e-03,2.800693528e-03,3.037456369e-04,3.104439165e-03
-6.2,8.172577880e-04,-1.622926386e-04,6.549651494e-04,5.581702302e-04,-1.214095079e-04,4.367607222e-04,3.700891963e-03,1.802542319e-04,3.881146195e-03,2.695351690e-03,1.241962299e-04,2.819547920e-03,2.298905206e-03,-3.573868153e-04,1.941518391e-03,3.773883362e-04,-1.890480912e-04,1.883402450e-04,1.262019186e-03,-2.283237299e-04,1.033695456e-03,9.691313814e-04,-3.777389065e-04,5.913924749e-04,1.966405350e-03,-3.284636333e-04,1.637941717e-03,5.633311759e-04,-3.019363186e-04,2.613948573e-04,5.282787226e-04,-3.034651678e-04,2.248135548e-04,7.789651893e-04,-3.212928440e-04,4.576723453e-04,8.729854498e-04,-3.434823399e-04,5.295031099e-04,1.209008835e-03,-2.457683055e-04,9.632405300e-04,6.546494315e-04,9.264826913e-05,7.472977006e-04,1.470230025e-03,-1.444916977e-04,1.325738328e-03,1.461232811e-03,-4.290972737e-05,1.418323083e-03,1.305174296e-03,4.443900991e-05,1.349613306e-03,1.460198395e-03,1.821366419e-05,1.478412059e-03,4.525749974e-04,-3.080140402e-04,1.445609572e-04,9.907661620e-05,-1.245161558e-04,-2.543953965e-05,2.532950998e-03,4.065134259e-05,2.573602341e-03,-1.941869353e-05,-1.567684891e-04,-1.761871827e-04,6.144246275e-04,-1.585440051e-05,5.985702270e-04,1.454454014e-03,-2.964688902e-04,1.157985123e-03,1.554342225e-03,-1.626327272e-04,1.391709498e-03,1.704466215e-03,-4.668260546e-04,1.237640161e-03,1.427343021e-03,-1.676997509e-04,1.259643270e-03,1.553841787e-03,-3.638005557e-05,1.517461731e-03,1.888673460e-03,-9.837391821e-06,1.878836068e-03,1.448846517e-03,-9.027804101e-05,1.358568476e-03,1.880644003e-03,2.380996780e-05,1.904453971e-03,1.581665394e-03,1.929140028e-05,1.600956795e-03,1.807498551e-03,1.098990148e-05,1.818488453e-03,2.309303587e-03,2.250145014e-06,2.311553732e-03,2.568983392e-03,2.546851796e-04,2.823668572e-03
-6.1,7.131530625e-04,-1.583231539e-04,5.548299086e-04,4.812889313e-04,-1.245645349e-04,3.567243964e-04,3.424059366e-03,1.564548125e-04,3.580514179e-03,2.568252869e-03,1.156720912e-04,2.683924961e-03,2.115030439e-03,-3.494911130e-04,1.765539326e-03,2.780021280e-04,-1.895410621e-04,8.846106586e-05,1.110609081e-03,-2.260560078e-04,8.845530731e-04,7.799392129e-04,-3.543641215e-04,4.255750913e-04,1.725862024e-03,-3.311709996e-04,1.394691024e-03,3.940213139e-04,-2.973381670e-04,9.668314691e-05,4.374243574e-04,-2.970184115e-04,1.404059459e-04,6.695267339e-04,-3.085427998e-04,3.609839341e-04,7.571285681e-04,-3.330045908e-04,4.241239773e-04,1.063036969e-03,-2.385057315e-04,8.245312375e-04,5.054716339e-04,8.280077635e-05,5.882724102e-04,1.286854702e-03,-1.475192743e-04,1.139335427e-03,1.251922548e-03,-5.546833261e-05,1.196454216e-03,1.148664327e-03,2.846466820e-05,1.177128995e-03,1.256544827e-03,7.961740608e-06,1.264506568e-03,3.151524334e-04,-2.988864355e-04,1.626599793e-05,1.171224362e-05,-1.270214844e-04,-1.153092408e-04,2.377108855e-03,2.551821122e-05,2.402627066e-03,-3.518988444e-05,-1.508783935e-04,-1.860682779e-04,5.920114258e-04,-1.357950535e-05,5.784319205e-04,1.314072781e-03,-2.875052862e-04,1.026567495e-03,1.418059040e-03,-1.545216527e-04,1.263537387e-03,1.547831167e-03,-4.666312616e-04,1.081199906e-03,1.264596867e-03,-1.635270322e-04,1.101069834e-03,1.349573647e-03,-3.526147113e-05,1.314312176e-03,1.674631367e-03,-3.124184178e-05,1.643389525e-03,1.236451373e-03,-1.031311322e-04,1.133320241e-03,1.663510047e-03,1.211679958e-05,1.675626846e-03,1.362234420e-03,1.212421859e-05,1.374358638e-03,1.609546403e-03,1.742720090e-06,1.611289123e-03,2.075777716e-03,-9.633131525e-06,2.066144584e-03,2.335712010e-03,2.048727286e-04,2.540584738e-03
-6,6.087059318e-04,-1.540264718e-04,4.546794600e-04,4.069614522e-04,-1.271228690e-04,2.798385832e-04,3.139966344e-03,1.324936893e-04,3.272460033e-03,2.439776625e-03,1.070293102e-04,2.546805935e-03,1.927806252e-03,-3.408970866e-04,1.586909165e-03,1.824973218e-04,-1.894056483e-04,-6.908326573e-06,9.598536971e-04,-2.231584371e-04,7.366952600e-04,5.931069629e-04,-3.303827498e-04,2.627242130e-04,1.483715338e-03,-3.328179044e-04,1.150897434e-03,2.279141746e-04,-2.919612421e-04,-6.404706743e-05,3.485321339e-04,-2.896364166e-04,5.889571736e-05,5.626837029e-04,-2.958127865e-04,2.668709163e-04,6.411714797e-04,-3.211398673e-04,3.200316123e-04,9.179207678e-04,-2.307288162e-04,6.871919516e-04,3.635503796e-04,7.066312474e-05,4.342135043e-04,1.103732448e-03,-1.497589169e-04,9.539735309e-04,1.044898056e-03,-6.754635012e-05,9.773517062e-04,9.931424970e-04,1.283341815e-05,1.005975915e-03,1.054795974e-03,-2.219941189e-06,1.052576033e-03,1.809065170e-04,-2.889237315e-04,-1.080172145e-04,-7.159234246e-05,-1.289604201e-04,-2.005527626e-04,2.218168536e-03,1.103525000e-05,2.229203786e-03,-4.895990959e-05,-1.445884853e-04,-1.935483949e-04,5.697707541e-04,-1.133689280e-05,5.584338613e-04,1.174203555e-03,-2.775778504e-04,8.966257041e-04,1.281092771e-03,-1.463558156e-04,1.134736956e-03,1.394746525e-03,-4.690010535e-04,9.257454714e-04,1.102676011e-03,-1.583021012e-04,9.443739100e-04,1.145251927e-03,-3.323064913e-05,1.112021278e-03,1.461279145e-03,-5.221051484e-05,1.409068630e-03,1.025880586e-03,-1.147461422e-04,9.111344442e-04,1.447240309e-03,-5.426436139e-08,1.447186044e-03,1.144483704e-03,4.547278101e-06,1.149030982e-03,1.411461680e-03,-7.350185350e-06,1.404111495e-03,1.840878720e-03,-2.262245596e-05,1.818256265e-03,2.100777782e-03,1.546291478e-04,2.255406930e-03
-5.9,5.042551353e-04,-1.493811128e-04,3.548740226e-04,3.352184379e-04,-1.290626696e-04,2.061557683e-04,2.849466340e-03,1.084952369e-04,2.957961577e-03,2.309699442e-03,9.831539030e-05,2.408014832e-03,1.737405291e-03,-3.316025804e-04,1.405802711e-03,9.076790946e-05,-1.885811082e-04,-9.781319874e-05,8.098915171e-04,-2.196233813e-04,5.902681358e-04,4.089804966e-04,-3.059507188e-04,1.030297779e-04,1.240548271e-03,-3.333666751e-04,9.071815963e-04,6.530021363e-05,-2.858051373e-04,-2.205049237e-04,2.615852762e-04,-2.813274908e-04,-1.974221458e-05,4.584818706e-04,-2.831017994e-04,1.753800713e-04,5.254001094e-04,-3.080079497e-04,2.173921597e-04,7.738631130e-04,-2.224159416e-04,5.514471713e-04,2.288080211e-04,5.640449369e-05,2.852125148e-04,9.211514981e-04,-1.512380888e-04,7.699134093e-04,8.404179669e-04,-7.917161053e-05,7.612463564e-04,8.387971485e-04,-2.383838273e-06,8.364133102e-04,8.552963738e-04,-1.234226789e-05,8.429541059e-04,5.007326326e-05,-2.781575329e-04,-2.280842696e-04,-1.508945268e-04,-1.302939114e-04,-2.811884382e-04,2.056114277e-03,-2.768588984e-06,2.053345688e-03,-6.091441155e-05,-1.379060287e-04,-1.988204403e-04,5.476056676e-04,-9.108043524e-06,5.384976240e-04,1.035052011e-03,-2.667954511e-04,7.682565594e-04,1.143690705e-03,-1.381581228e-04,1.005532582e-03,1.245212979e-03,-4.737345811e-04,7.714783974e-04,9.420115602e-04,-1.521551561e-04,7.898564040e-04,9.413003386e-04,-3.035512106e-05,9.109452175e-04,1.248933242e-03,-7.263951053e-05,1.176293732e-03,8.174398588e-04,-1.251154843e-04,6.923243745e-04,1.232195972e-03,-1.269837495e-05,1.219497597e-03,9.287851176e-04,-3.475370071e-06,9.253097475e-04,1.213439046e-03,-1.627847090e-05,1.197160575e-03,1.605001829e-03,-3.676644107e-05,1.568235388e-03,1.864073070e-03,1.042766648e-04,1.968349734e-03
-5.8,4.001245350e-04,-1.443669455e-04,2.557575895e-04,2.660499935e-04,-1.303681224e-04,1.356818711e-04,2.553419426e-03,8.457850588e-05,2.637997932e-03,2.177768715e-03,8.957618104e-05,2.267344896e-03,1.544014206e-03,-3.216052883e-04,1.222408918e-03,2.666821123e-06,-1.870115047e-04,-1.843446836e-04,6.608378151e-04,-2.154457938e-04,4.453920213e-04,2.278675174e-04,-2.812147592e-04,-5.334724184e-05,9.969369284e-04,-3.327862184e-04,6.641507100e-04,-9.356766773e-05,-2.788717267e-04,-3.724393944e-04,1.765433525e-04,-2.721055220e-04,-9.556216950e-05,3.569192999e-04,-2.703926060e-04,8.652669397e-05,4.100751403e-04,-2.937266919e-04,1.163484483e-04,6.310452239e-04,-2.135464779e-04,4.174987460e-04,1.010709157e-04,4.022674868e-05,1.412976644e-04,7.393805634e-04,-1.519932442e-04,5.873873192e-04,6.386907775e-04,-9.036572359e-05,5.483250539e-04,6.857842895e-04,-1.712247749e-05,6.686618120e-04,6.583468693e-04,-2.241162221e-05,6.359352471e-04,-7.715215948e-05,-2.666218021e-04,-3.437739616e-04,-2.262927279e-04,-1.309892579e-04,-3.572819858e-04,1.890926562e-03,-1.587785745e-05,1.875048705e-03,-7.125384789e-05,-1.308403727e-04,-2.020942206e-04,5.254044561e-04,-6.875285705e-06,5.185291704e-04,8.967889805e-04,-2.552679751e-04,6.415210055e-04,1.006081586e-03,-1.299495035e-04,8.761320821e-04,1.099116541e-03,-4.805449339e-04,6.185716076e-04,7.829934267e-04,-1.452314008e-04,6.377620259e-04,7.381185968e-04,-2.671512958e-05,7.114034672e-04,1.037870396e-03,-9.242899014e-05,9.454414059e-04,6.113929937e-04,-1.342423522e-04,4.771506415e-04,1.018682206e-03,-2.578782849e-05,9.928943780e-04,7.154645284e-04,-1.196466066e-05,7.034998677e-04,1.015650487e-03,-2.502980334e-05,9.906206832e-04,1.368521955e-03,-5.207428012e-05,1.316447675e-03,1.625491867e-03,5.413276864e-05,1.679624636e-03
-5.7,2.966215002e-04,-1.389651253e-04,1.576563749e-04,1.994078131e-04,-1.310296206e-04,6.837819249e-05,2.252688251e-03,6.085676491e-05,2.313545016e-03,2.043709490e-03,8.085591773e-05,2.124565408e-03,1.347834112e-03,-3.109029800e-04,1.036931132e-03,-8.198940457e-05,-1.846473750e-04,-2.666367796e-04,5.127857997e-04,-2.106234299e-04,3.021623699e-04,5.003449164e-05,-2.563089496e-04,-2.062744580e-04,7.534465889e-04,-3.310522091e-04,4.223943798e-04,-2.484748331e-04,-2.711651264e-04,-5.196399595e-04,9.334380530e-05,-2.619899934e-04,-1.686461881e-04,2.579476053e-04,-2.576496546e-04,2.979506694e-07,2.954304219e-04,-2.784094826e-04,1.702093926e-05,4.896248152e-04,-2.041010606e-04,2.855237546e-04,-1.992358058e-05,2.236126562e-05,2.437685042e-06,5.586676679e-04,-1.520687035e-04,4.065989644e-04,4.398765642e-04,-1.011435363e-04,3.387330279e-04,5.342298010e-04,-3.132431833e-05,5.029054827e-04,4.642032394e-04,-3.242903576e-05,4.317742037e-04,-2.006157220e-04,-2.543520243e-04,-4.549677463e-04,-2.979237028e-04,-1.310206605e-04,-4.289443632e-04,1.722586231e-03,-2.829004837e-05,1.694296183e-03,-8.019131382e-05,-1.234030369e-04,-2.035943508e-04,5.030424688e-04,-4.621870040e-06,4.984205988e-04,7.595462199e-04,-2.431019614e-04,5.164442585e-04,8.684739900e-04,-1.217475341e-04,7.467264558e-04,9.562290401e-04,-4.890658935e-04,4.671631466e-04,6.259645209e-04,-1.376839256e-04,4.882805953e-04,5.360785502e-04,-2.240283759e-05,5.136757126e-04,8.283265915e-04,-1.114847260e-04,7.168418655e-04,4.079617671e-04,-1.421409372e-04,2.658208299e-04,8.069461411e-04,-3.927263528e-05,7.676735058e-04,5.047991431e-04,-2.092738965e-05,4.838717534e-04,8.182458817e-04,-3.359015238e-05,7.846557294e-04,1.131783071e-03,-6.851372404e-05,1.063269347e-03,1.384935419e-03,4.503312792e-06,1.389438732e-03
-5.6,1.940350139e-04,-1.331580585e-04,6.087695546e-05,1.352072194e-04,-1.310437723e-04,4.163447021e-06,1.948133440e-03,3.743705664e-05,1.985570496e-03,1.907230709e-03,7.219705449e-05,1.979427763e-03,1.149079995e-03,-2.994937280e-04,8.495862673e-04,-1.634159147e-04,-1.814477266e-04,-3.448636412e-04,3.658072493e-04,-2.051570935e-04,1.606501558e-04,-1.242958104e-04,-2.313526497e-04,-3.556484601e-04,5.106274199e-04,-3.281471893e-04,1.824802306e-04,-3.992455398e-04,-2.626917808e-04,-6.619373207e-04,1.190328102e-05,-2.510058792e-04,-2.391025982e-04,1.614741096e-04,-2.448179524e-04,-8.334384280e-05,1.816728468e-04,-2.621630602e-04,-8.049021340e-05,3.497342349e-04,-1.940625084e-04,1.556717265e-04,-1.345211347e-04,3.066364139e-06,-1.314547706e-04,3.792385085e-04,-1.515151961e-04,2.277233124e-04,2.440880978e-04,-1.115135369e-04,1.325745609e-04,3.842315064e-04,-4.493802234e-05,3.392934841e-04,2.730740828e-04,-4.238965769e-05,2.306844251e-04,-3.202045520e-04,-2.413844278e-04,-5.615889797e-04,-3.659598982e-04,-1.303695763e-04,-4.963294745e-04,1.551078032e-03,-4.001490476e-05,1.511063127e-03,-8.795048372e-05,-1.156077165e-04,-2.035582002e-04,4.803835577e-04,-2.332190055e-06,4.780513677e-04,6.234124690e-04,-2.303963816e-04,3.930160874e-04,7.310537695e-04,-1.135649951e-04,6.174887743e-04,8.162084791e-04,-4.988591987e-04,3.173492804e-04,4.712151448e-04,-1.296657888e-04,3.415493560e-04,3.355206543e-04,-1.752160660e-05,3.179990477e-04,6.204965887e-04,-1.297198408e-04,4.907767479e-04,2.073262039e-04,-1.488369558e-04,5.848924809e-05,5.971760563e-04,-5.308204931e-05,5.440940070e-04,2.970139246e-04,-3.035747630e-05,2.666564483e-04,6.213530958e-04,-4.194451710e-05,5.794085787e-04,8.950878962e-04,-8.601072920e-05,8.090771670e-04,1.142317141e-03,-4.432450553e-05,1.097992635e-03
-5.5,9.263396566e-05,-1.269294900e-04,-3.429552432e-05,7.332944479e-05,-1.304132735e-04,-5.708382866e-05,1.640609141e-03,1.441975732e-05,1.655028898e-03,1.768031199e-03,6.363972684e-05,1.831670926e-03,9.479799626e-04,-2.873760813e-04,6.606038812e-04,-2.418542538e-04,-1.773819938e-04,-4.192362476e-04,2.199536050e-04,-1.990508141e-04,2.090279085e-05,-2.949451918e-04,-2.064493923e-04,-5.013945841e-04,2.690107249e-04,-3.240605422e-04,-5.504981725e-05,-5.457427407e-04,-2.534606379e-04,-7.992033786e-04,-6.788055560e-05,-2.391833727e-04,-3.070639283e-04,6.736556518e-05,-2.318230936e-04,-1.644575284e-04,6.898344011e-05,-2.450857956e-04,-1.761023555e-04,2.114800371e-04,-1.834172539e-04,2.806278318e-05,-2.431441511e-04,-1.737518304e-05,-2.605193341e-04,2.012957596e-04,-1.503881240e-04,5.090763557e-05,5.139271743e-05,-1.214788732e-04,-7.008615579e-05,2.358619074e-04,-5.791978756e-05,1.779421198e-04,8.511956554e-05,-5.228272209e-05,3.283684346e-05,-4.358459285e-04,-2.277554620e-04,-6.636013905e-04,-4.306062181e-04,-1.290249428e-04,-5.596311609e-04,1.376394015e-03,-5.107365762e-05,1.325320358e-03,-9.476320891e-05,-1.074702483e-04,-2.022334572e-04,4.572815215e-04,7.764357069e-09,4.572892859e-04,4.884315264e-04,-2.172393963e-04,2.711921301e-04,5.939818702e-04,-1.054090030e-04,4.885728671e-04,6.786030306e-04,-5.094235213e-04,1.691795093e-04,3.189779516e-04,-1.213217890e-04,1.976561625e-04,1.367522942e-04,-1.218501845e-05,1.245672757e-04,4.145356587e-04,-1.470566875e-04,2.674789711e-04,9.626602109e-06,-1.543683255e-04,-1.447417234e-04,3.895026859e-04,-6.712654815e-05,3.223761377e-04,9.227876583e-05,-4.023693858e-05,5.204182725e-05,4.250793540e-04,-5.007761311e-05,3.750017409e-04,6.586895613e-04,-1.044502031e-04,5.542393582e-04,8.975685428e-04,-9.208828172e-05,8.054802611e-04
-5.4,-7.333835779e-06,-1.202647137e-04,-1.275985495e-04,1.362457520e-05,-1.291466322e-04,-1.155220570e-04,1.330959504e-03,-8.101805085e-06,1.322857699e-03,1.625805882e-03,5.522082117e-05,1.681026703e-03,7.447753728e-04,-2.745491235e-04,4.702262493e-04,-3.175661242e-04,-1.724314522e-04,-4.899975764e-04,7.525852211e-05,-1.923118162e-04,-1.170532940e-04,-4.617784957e-04,-1.816864769e-04,-6.434649726e-04,2.910664973e-05,-3.187883674e-04,-2.896817177e-04,-6.878663466e-04,-2.434833737e-04,-9.313497203e-04,-1.461259689e-04,-2.265574769e-04,-3.726834458e-04,-2.454587822e-05,-2.185725579e-04,-2.431184361e-04,-4.248031591e-05,-2.272664847e-04,-2.697468007e-04,7.494509533e-05,-1.721569769e-04,-9.721188161e-05,-3.462841023e-04,-3.865876183e-05,-3.849428641e-04,2.502063138e-05,-1.487457491e-04,-1.237251178e-04,-1.381835047e-04,-1.310385028e-04,-2.692220075e-04,8.917217715e-05,-7.023435425e-05,1.893782290e-05,-9.954758163e-05,-6.209193571e-05,-1.616395173e-04,-5.475046618e-04,-2.135016422e-04,-7.610063040e-04,-4.920954634e-04,-1.269833906e-04,-6.190788540e-04,1.198537309e-03,-6.149810291e-05,1.137039206e-03,-1.008663653e-04,-9.900855249e-05,-1.998749178e-04,4.335820342e-04,2.409782685e-06,4.359918169e-04,3.546035593e-04,-2.037066682e-04,1.508968911e-04,4.573936781e-04,-9.728106176e-05,3.601126163e-04,5.428630555e-04,-5.202071361e-04,2.265591945e-05,1.694247343e-04,-1.127813052e-04,5.664342903e-05,-5.995082851e-05,-6.515197704e-06,-6.646602621e-05,2.105648762e-04,-1.634286957e-04,4.713618056e-05,-1.850317299e-04,-1.587856389e-04,-3.438173689e-04,1.840041821e-04,-8.130008877e-05,1.027040933e-04,-1.092913397e-04,-5.053602700e-05,-1.598273667e-04,2.295156971e-04,-5.797413788e-05,1.715415593e-04,4.227877235e-04,-1.236775811e-04,2.991101424e-04,6.506484460e-04,-1.385549346e-04,5.120935114e-04
-5.3,-1.056415038e-04,-1.131508193e-04,-2.187923230e-04,-4.408451061e-05,-1.272576945e-04,-1.713422051e-04,1.020016698e-03,-3.004161671e-05,9.899750810e-04,1.480252687e-03,4.697283860e-05,1.527225526e-03,5.397225113e-04,-2.610124299e-04,2.787100814e-04,-3.908260577e-04,-1.665898039e-04,-5.574158616e-04,-6.825751262e-05,-1.849502622e-04,-2.532077748e-04,-6.246996144e-04,-1.571347833e-04,-7.818343977e-04,-2.085961515e-04,-3.123333356e-04,-5.209294871e-04,-8.255495935e-04,-2.327746447e-04,-1.058324238e-03,-2.229624747e-04,-2.131675362e-04,-4.361300109e-04,-1.144542632e-04,-2.049583914e-04,-3.194126546e-04,-1.525809781e-04,-2.087832296e-04,-3.613642077e-04,-5.980634745e-05,-1.602801987e-04,-2.200865461e-04,-4.444924182e-04,-6.046008192e-05,-5.049525001e-04,-1.494224726e-04,-1.466475941e-04,-2.960700667e-04,-3.246483745e-04,-1.401880661e-04,-4.648364406e-04,-5.580257172e-05,-8.185608137e-05,-1.376586531e-04,-2.808580755e-04,-7.179585436e-05,-3.526539299e-04,-6.551788412e-04,-1.986596185e-04,-8.538384597e-04,-5.506820706e-04,-1.242494562e-04,-6.749315268e-04,1.017526698e-03,-7.132927165e-05,9.461974261e-04,-1.064978717e-04,-9.024252893e-05,-1.967404006e-04,4.091255130e-04,4.882883393e-06,4.140083964e-04,2.218896488e-04,-1.898607673e-04,3.202888145e-05,3.214006858e-04,-8.917801986e-05,2.322226660e-04,4.083628254e-04,-5.306244231e-04,-1.222615977e-04,2.266662811e-05,-1.041535432e-04,-8.148691507e-05,-2.543397785e-04,-6.403154794e-07,-2.549800940e-04,8.679886981e-06,-1.787818177e-04,-1.701019307e-04,-3.765709103e-04,-1.621520526e-04,-5.387229629e-04,-1.928426303e-05,-9.548284176e-05,-1.147671048e-04,-3.076310173e-04,-6.121285599e-05,-3.688438733e-04,3.474538687e-05,-6.561856362e-05,-3.087317675e-05,1.875313610e-04,-1.435013777e-04,4.402998324e-05,4.015564070e-04,-1.835233765e-04,2.180330305e-04
-5.2,-2.020816947e-04,-1.055769094e-04,-3.076586041e-04,-9.999713213e-05,-1.247649932e-04,-2.247621253e-04,7.086004402e-04,-5.132112373e-05,6.572793165e-04,1.331080426e-03,3.892292231e-05,1.370003348e-03,3.330955684e-04,-2.467660379e-04,8.632953049e-05,-4.619132867e-04,-1.598630216e-04,-6.217763083e-04,-2.105808446e-04,-1.769788944e-04,-3.875597391e-04,-7.836457047e-04,-1.328484638e-04,-9.164941684e-04,-4.436293136e-04,-3.047045614e-04,-7.483338750e-04,-9.587539352e-04,-2.213523083e-04,-1.180106243e-03,-2.985249817e-04,-1.990567594e-04,-4.975817412e-04,-2.025696347e-04,-1.908612889e-04,-3.934309236e-04,-2.611966450e-04,-1.897021632e-04,-4.508988082e-04,-1.927217351e-04,-1.477936123e-04,-3.405153473e-04,-5.383700065e-04,-8.243702412e-05,-6.208070306e-04,-3.218788797e-04,-1.441529941e-04,-4.660318737e-04,-5.080334418e-04,-1.489203470e-04,-6.569537888e-04,-1.990371014e-04,-9.276974910e-05,-2.918068505e-04,-4.587791290e-04,-8.136798598e-05,-5.401471150e-04,-7.588946123e-04,-1.832662258e-04,-9.421608380e-04,-6.066345705e-04,-1.208356901e-04,-7.274702605e-04,8.334018618e-04,-8.061546293e-05,7.527863989e-04,-1.118922719e-04,-8.119389089e-05,-1.930861628e-04,3.837510105e-04,7.433079447e-06,3.911840900e-04,9.021869374e-05,-1.757508352e-04,-8.553214145e-05,1.860944779e-04,-8.109352987e-05,1.050009480e-04,2.744292046e-04,-5.400740429e-04,-2.656448384e-04,-1.212421871e-04,-9.552505896e-05,-2.167672461e-04,-4.461849837e-04,5.308218265e-06,-4.408767655e-04,-1.910389608e-04,-1.930752484e-04,-3.841142092e-04,-5.649313191e-04,-1.645424352e-04,-7.294737544e-04,-2.203573693e-04,-1.095446552e-04,-3.299020244e-04,-5.027139222e-04,-7.221364156e-05,-5.749275638e-04,-1.591451538e-04,-7.299465592e-05,-2.321398097e-04,-4.697202990e-05,-1.636969659e-04,-2.106689958e-04,1.503481359e-04,-2.268254374e-04,-7.647730154e-05
-5.1,-2.964644414e-04,-9.753430324e-05,-3.939987447e-04,-1.543290442e-04,-1.216910542e-04,-2.760200984e-04,3.975182404e-04,-7.186929002e-05,3.256489504e-04,1.178017225e-03,3.109234435e-05,1.209109570e-03,1.251897495e-04,-2.318105514e-04,-1.066208020e-04,-5.311035877e-04,-1.522687639e-04,-6.833723516e-04,-3.516978980e-04,-1.684127053e-04,-5.201106032e-04,-9.385804524e-04,-1.088649461e-04,-1.047445398e-03,-6.755432054e-04,-2.959174609e-04,-9.714606663e-04,-1.087463577e-03,-2.092375211e-04,-1.296701098e-03,-3.729478631e-04,-1.842717320e-04,-5.572195950e-04,-2.891073500e-04,-1.761559463e-04,-4.652632963e-04,-3.682160987e-04,-1.700763514e-04,-5.382924501e-04,-3.237536623e-04,-1.347128287e-04,-4.584664910e-04,-6.285550880e-04,-1.042328645e-04,-7.327879525e-04,-4.921962876e-04,-1.413195398e-04,-6.335158274e-04,-6.883831191e-04,-1.572254262e-04,-8.456085453e-04,-3.405096851e-04,-1.029708339e-04,-4.434805190e-04,-6.333056237e-04,-9.077681579e-05,-7.240824395e-04,-8.587009387e-04,-1.673584242e-04,-1.026059363e-03,-6.602277796e-04,-1.167625891e-04,-7.769903686e-04,6.462284559e-04,-8.940968930e-05,5.568187666e-04,-1.172765255e-04,-7.188596231e-05,-1.891624878e-04,3.573006958e-04,1.006350260e-05,3.673641984e-04,-4.050440692e-05,-1.614122849e-04,-2.019166918e-04,5.155191491e-05,-7.301937789e-05,-2.146746298e-05,1.403721362e-04,-5.479564980e-04,-4.075843618e-04,-2.622985562e-04,-8.695853888e-05,-3.492570951e-04,-6.352686551e-04,1.119810171e-05,-6.240705534e-04,-3.885180564e-04,-2.062813699e-04,-5.947994263e-04,-7.500630129e-04,-1.660419079e-04,-9.161049208e-04,-4.192261040e-04,-1.233493629e-04,-5.425754669e-04,-6.945392683e-04,-8.347430326e-05,-7.780135715e-04,-3.520561122e-04,-8.008496892e-05,-4.321410811e-04,-2.806438299e-04,-1.840118090e-04,-4.646556389e-04,-1.028510787e-04,-2.683255747e-04,-3.711766533e-04
-5,-3.886149444e-04,-8.901676615e-05,-4.776317106e-04,-2.073065077e-04,-1.180617903e-04,-3.253682980e-04,8.756519580e-05,-9.162258386e-05,-4.057388058e-06,1.020818638e-03,2.349646612e-05,1.044315105e-03,-8.367680729e-05,-2.161474110e-04,-2.998242183e-04,-5.986620970e-04,-1.438356366e-04,-7.424977335e-04,-4.915894732e-04,-1.592686689e-04,-6.508581421e-04,-1.089487232e-03,-8.520602487e-05,-1.174693257e-03,-9.039061342e-04,-2.859935416e-04,-1.189899676e-03,-1.211680756e-03,-1.964546668e-04,-1.408135423e-03,-4.463599912e-04,-1.688619063e-04,-6.152218975e-04,-3.742784570e-04,-1.607170862e-04,-5.349955433e-04,-4.735344619e-04,-1.499453933e-04,-6.234798553e-04,-4.528556855e-04,-1.210623182e-04,-5.739180037e-04,-7.157095804e-04,-1.254825954e-04,-8.411921757e-04,-6.602192615e-04,-1.382013833e-04,-7.984206448e-04,-8.657453286e-04,-1.650907823e-04,-1.030836111e-03,-4.801965880e-04,-1.124651036e-04,-5.926616916e-04,-8.044512848e-04,-9.998607264e-05,-9.044373575e-04,-9.546650994e-04,-1.509731889e-04,-1.105638288e-03,-7.117356661e-04,-1.120584119e-04,-8.237940780e-04,4.561021574e-04,-9.776689806e-05,3.583352593e-04,-1.228665063e-04,-6.234347547e-05,-1.852099818e-04,3.296242563e-04,1.277477040e-05,3.423990267e-04,-1.703902097e-04,-1.468668942e-04,-3.172571039e-04,-8.216021153e-05,-6.494600664e-05,-1.471062182e-04,5.512387933e-06,-5.536894545e-04,-5.481770666e-04,-4.005433141e-04,-7.849235374e-05,-4.790356678e-04,-8.213793710e-04,1.689779958e-05,-8.044815714e-04,-5.836853150e-04,-2.183852027e-04,-8.020705177e-04,-9.319195690e-04,-1.667441012e-04,-1.098663670e-03,-6.159056782e-04,-1.367599123e-04,-7.526655905e-04,-8.831189372e-04,-9.492303351e-05,-9.780419707e-04,-5.438675029e-04,-8.687053847e-05,-6.307380413e-04,-5.134212815e-04,-2.041724593e-04,-7.175937408e-04,-3.578381782e-04,-3.079198952e-04,-6.657580734e-04
-4.9,-4.783720037e-04,-8.002074850e-05,-5.583927522e-04,-2.591607777e-04,-1.139059976e-04,-3.730667753e-04,-2.204775114e-04,-1.105248931e-04,-3.310024044e-04,8.592745169e-04,1.614500489e-05,8.754195218e-04,-2.931630652e-04,-1.997792652e-04,-4.929423304e-04,-6.648380000e-04,-1.346023589e-04,-7.994403589e-04,-6.302269586e-04,-1.495655157e-04,-7.797924744e-04,-1.236363118e-03,-6.188017021e-05,-1.298243288e-03,-1.128304784e-03,-2.749601179e-04,-1.403264902e-03,-1.331422298e-03,-1.830311385e-04,-1.514453437e-03,-5.188811902e-04,-1.528790942e-04,-6.717602843e-04,-4.582824989e-04,-1.444252166e-04,-6.027077155e-04,-5.770496363e-04,-1.293361504e-04,-7.063857867e-04,-5.799807973e-04,-1.068747003e-04,-6.868554976e-04,-8.005052259e-04,-1.458224131e-04,-9.463276390e-04,-8.257869333e-04,-1.348474788e-04,-9.606344121e-04,-1.040164862e-03,-1.725016112e-04,-1.212666473e-03,-6.180680682e-04,-1.212675262e-04,-7.393355944e-04,-9.722414286e-04,-1.089553171e-04,-1.081196746e-03,-1.046869273e-03,-1.341473848e-04,-1.181016658e-03,-7.614254484e-04,-1.067589135e-04,-8.681843619e-04,2.631512722e-04,-1.057413994e-04,1.574098727e-04,-1.288644088e-04,-5.259236269e-05,-1.814567715e-04,3.005826805e-04,1.556547282e-05,3.161481533e-04,-2.995565122e-04,-1.321236638e-04,-4.316801760e-04,-2.149822505e-04,-5.686182239e-05,-2.718440729e-04,-1.307955227e-04,-5.567195118e-04,-6.875150345e-04,-5.360540664e-04,-7.014087596e-05,-6.061949424e-04,-1.004309984e-03,2.227785571e-05,-9.820321284e-04,-7.764683532e-04,-2.293837140e-04,-1.005852067e-03,-1.110455026e-03,-1.667494300e-04,-1.277204456e-03,-8.104063343e-04,-1.496439357e-04,-9.600502701e-04,-1.068467711e-03,-1.064828517e-04,-1.174950563e-03,-7.344365812e-04,-9.333098249e-05,-8.277675637e-04,-7.452446314e-04,-2.238939973e-04,-9.691386286e-04,-6.143313487e-04,-3.455343829e-04,-9.598657316e-04
-4.8,-5.655874566e-04,-7.054556776e-05,-6.361330243e-04,-3.101233960e-04,-1.092548708e-04,-4.193782668e-04,-5.258456859e-04,-1.285273992e-04,-6.543730851e-04,6.932142017e-04,9.042421203e-06,7.022566229e-04,-5.029071106e-04,-1.827103714e-04,-6.856174820e-04,-7.298615288e-04,-1.246167388e-04,-8.544782676e-04,-7.675705073e-04,-1.393235743e-04,-9.068940815e-04,-1.379214573e-03,-3.888531544e-05,-1.418099889e-03,-1.348345749e-03,-2.628499750e-04,-1.611195724e-03,-1.446717374e-03,-1.689970293e-04,-1.615714404e-03,-5.906200122e-04,-1.363769889e-04,-7.269970011e-04,-5.413031306e-04,-1.271715977e-04,-6.684747283e-04,-6.786594086e-04,-1.082649645e-04,-7.869243731e-04,-7.050816798e-04,-9.218973550e-05,-7.972714153e-04,-8.836104596e-04,-1.649009740e-04,-1.048511434e-03,-9.887342423e-04,-1.312998557e-04,-1.120034098e-03,-1.211679529e-03,-1.794414236e-04,-1.391120953e-03,-7.540859403e-04,-1.294007042e-04,-8.834866446e-04,-1.136707838e-03,-1.176407044e-04,-1.254348543e-03,-1.135408170e-03,-1.169175953e-04,-1.252325765e-03,-8.095531500e-04,-1.009068802e-04,-9.104600302e-04,6.753793307e-05,-1.133847719e-04,-4.584683886e-05,-1.354570105e-04,-4.265949512e-05,-1.781165056e-04,2.700511527e-04,1.843268494e-05,2.884838376e-04,-4.281211574e-04,-1.171805692e-04,-5.453017266e-04,-3.468604793e-04,-4.875157017e-05,-3.956120494e-04,-2.691444476e-04,-5.565308244e-04,-8.256752720e-04,-6.689386875e-04,-6.189555311e-05,-7.308342406e-04,-1.183858204e-03,2.721208994e-05,-1.156646114e-03,-9.667951553e-04,-2.392850179e-04,-1.206080173e-03,-1.285623434e-03,-1.661634041e-04,-1.451786838e-03,-1.002727495e-03,-1.618788555e-04,-1.164606351e-03,-1.250597439e-03,-1.180736879e-04,-1.368671127e-03,-9.235986460e-04,-9.944516801e-05,-1.023043814e-03,-9.760433818e-04,-2.428925716e-04,-1.218935953e-03,-8.719765780e-04,-3.811220261e-04,-1.253098604e-03
-4.7,-6.501265913e-04,-6.059352637e-05,-7.107201176e-04,-3.604223695e-04,-1.041414874e-04,-4.645638569e-04,-8.277964926e-04,-1.455884916e-04,-9.733849842e-04,5.225099775e-04,2.188251154e-06,5.246982287e-04,-7.125296288e-04,-1.649469990e-04,-8.774766278e-04,-7.939428573e-04,-1.139344600e-04,-9.078773174e-04,-9.035686029e-04,-1.285647132e-04,-1.032133316e-03,-1.518055095e-03,-1.621110160e-05,-1.534266196e-03,-1.563657624e-03,-2.497009705e-04,-1.813358594e-03,-1.557606017e-03,-1.543847387e-04,-1.711990755e-03,-6.616724098e-04,-1.194107031e-04,-7.810831129e-04,-6.235057220e-04,-1.088624864e-04,-7.323682084e-04,-7.782594467e-04,-8.674172204e-05,-8.650011687e-04,-8.281116475e-04,-7.705318038e-05,-9.051648279e-04,-9.656777766e-04,-1.823906239e-04,-1.148068401e-03,-1.148895708e-03,-1.275922414e-04,-1.276487949e-03,-1.380318599e-03,-1.858927839e-04,-1.566211383e-03,-8.882024155e-04,-1.368931960e-04,-1.025095612e-03,-1.297885499e-03,-1.259957621e-04,-1.423881261e-03,-1.220387317e-03,-9.931990780e-05,-1.319707225e-03,-8.563604415e-04,-9.455130914e-05,-9.509117506e-04,-1.305417093e-04,-1.207443132e-04,-2.512860225e-04,-1.428145163e-04,-3.257236141e-05,-1.753868777e-04,2.379210809e-04,2.137240629e-05,2.592934872e-04,-5.561963625e-04,-1.020270319e-04,-6.582233945e-04,-4.777468734e-04,-4.059448129e-05,-5.183413547e-04,-4.100571556e-04,-5.526537725e-04,-9.627109280e-04,-7.993293526e-04,-5.372719519e-05,-8.530565478e-04,-1.359827877e-03,3.157872182e-05,-1.328249155e-03,-1.154595912e-03,-2.481071888e-04,-1.402703100e-03,-1.457379647e-03,-1.650947313e-04,-1.622474378e-03,-1.192855000e-03,-1.733555364e-04,-1.366210536e-03,-1.429514284e-03,-1.296141467e-04,-1.559128431e-03,-1.111169750e-03,-1.051923842e-04,-1.216362135e-03,-1.205721504e-03,-2.609005708e-04,-1.466622075e-03,-1.130359104e-03,-4.146592216e-04,-1.545018326e-03
-4.6,-7.318691580e-04,-5.017004206e-05,-7.820392001e-04,-4.102789726e-04,-9.860030809e-05,-5.088792807e-04,-1.125613539e-03,-1.616737974e-04,-1.287287337e-03,3.470790598e-04,-4.422767396e-06,3.426562924e-04,-9.216378998e-04,-1.464978295e-04,-1.068135729e-03,-8.572717001e-04,-1.026178494e-04,-9.598895495e-04,-1.038158063e-03,-1.173123257e-04,-1.155470389e-03,-1.652904364e-03,6.160134699e-06,-1.646744229e-03,-1.773892859e-03,-2.355555333e-04,-2.009448393e-03,-1.664137760e-03,-1.392284432e-04,-1.803366204e-03,-7.321206659e-04,-1.020362619e-04,-8.341569278e-04,-7.050355122e-04,-8.942275933e-05,-7.944582715e-04,-8.757422087e-04,-6.477594600e-05,-9.405181547e-04,-9.490253217e-04,-6.151542037e-05,-1.010540742e-03,-1.047330725e-03,-1.979971224e-04,-1.245327847e-03,-1.306109783e-03,-1.237493053e-04,-1.429859088e-03,-1.546102367e-03,-1.918381115e-04,-1.737940479e-03,-1.020359875e-03,-1.437780132e-04,-1.164137889e-03,-1.455810364e-03,-1.339721955e-04,-1.589782560e-03,-1.301921283e-03,-8.138972390e-05,-1.383311007e-03,-9.020721093e-04,-8.774625621e-05,-9.898183655e-04,-3.308577041e-04,-1.278620148e-04,-4.587197189e-04,-1.510895326e-04,-2.235874788e-05,-1.734482805e-04,2.041015296e-04,2.437982273e-05,2.284813523e-04,-6.838843349e-04,-8.664659546e-05,-7.705309303e-04,-6.075991392e-04,-3.236256734e-05,-6.399617065e-04,-5.539679160e-04,-5.446769922e-04,-1.098644908e-03,-9.273755594e-04,-4.559045462e-05,-9.729660140e-04,-1.532028932e-03,3.526172359e-05,-1.496767208e-03,-1.339804167e-03,-2.558765115e-04,-1.595680679e-03,-1.625679476e-03,-1.636529799e-04,-1.789332456e-03,-1.380759479e-03,-1.839802552e-04,-1.564739734e-03,-1.605217208e-03,-1.410229217e-04,-1.746240130e-03,-1.296949573e-03,-1.105536112e-04,-1.407503184e-03,-1.434142979e-03,-2.776822284e-04,-1.711825207e-03,-1.389014880e-03,-4.461418837e-04,-1.835156764e-03
-4.5,-8.107103922e-04,-3.928386048e-05,-8.499942527e-04,-4.599046697e-04,-9.266674757e-05,-5.525714173e-04,-1.418611928e-03,-1.767563293e-04,-1.595368257e-03,1.668846949e-04,-1.080083953e-05,1.560838554e-04,-1.129829160e-03,-1.273743185e-04,-1.257203479e-03,-9.200162780e-04,-9.073470416e-05,-1.010750982e-03,-1.171263383e-03,-1.055912211e-04,-1.276854604e-03,-1.783787736e-03,2.825370018e-05,-1.755534035e-03,-1.978728531e-03,-2.204600476e-04,-2.199188579e-03,-1.766369698e-03,-1.235634095e-04,-1.889933107e-03,-8.020318491e-04,-8.431003390e-05,-8.863418830e-04,-7.860151092e-04,-6.879882368e-05,-8.548139329e-04,-9.709958480e-04,-4.238426920e-05,-1.013380117e-03,-1.067778156e-03,-4.562977471e-05,-1.113407931e-03,-1.129149899e-03,-2.114672213e-04,-1.340617120e-03,-1.460221855e-03,-1.197864238e-04,-1.580008278e-03,-1.709041023e-03,-1.972605527e-04,-1.906301576e-03,-1.150491284e-03,-1.500912226e-04,-1.300582506e-03,-1.610516841e-03,-1.415209138e-04,-1.752037754e-03,-1.380131051e-03,-6.316166399e-05,-1.443292715e-03,-9.468932304e-04,-8.054956142e-05,-1.027442792e-03,-5.331463160e-04,-1.347740706e-04,-6.679203865e-04,-1.604157107e-04,-1.204647646e-05,-1.724621872e-04,1.685204508e-04,2.744934633e-05,1.959697971e-04,-8.112732197e-04,-7.101923744e-05,-8.822924571e-04,-7.363801287e-04,-2.401922184e-05,-7.603993506e-04,-7.012031163e-04,-5.322627272e-04,-1.233465844e-03,-1.053234820e-03,-3.743079221e-05,-1.090665612e-03,-1.700274645e-03,3.815287563e-05,-1.662121769e-03,-1.522355247e-03,-2.626253022e-04,-1.784980549e-03,-1.790477434e-03,-1.619458081e-04,-1.952423242e-03,-1.566393054e-03,-1.936754677e-04,-1.760068521e-03,-1.777695548e-03,-1.522194078e-04,-1.929914956e-03,-1.480722516e-03,-1.155123584e-04,-1.596234874e-03,-1.661118870e-03,-2.930463780e-04,-1.954165248e-03,-1.647437975e-03,-4.755805370e-04,-2.123018512e-03
-4.4,-8.865614503e-04,-2.794732778e-05,-9.145087781e-04,-5.094976762e-04,-8.637678319e-05,-5.958744594e-04,-1.706142526e-03,-1.908166739e-04,-1.896959200e-03,-1.806278316e-05,-1.696144547e-05,-3.502422863e-05,-1.336692385e-03,-1.075909763e-04,-1.444283361e-03,-9.823208148e-04,-7.835710077e-05,-1.060677916e-03,-1.302794591e-03,-9.342735578e-05,-1.396221947e-03,-1.910734442e-03,5.010354948e-05,-1.860630892e-03,-2.177865460e-03,-2.044641751e-04,-2.382329635e-03,-1.864363375e-03,-1.074252431e-04,-1.971788618e-03,-8.714552977e-04,-6.628815721e-05,-9.377434549e-04,-8.665407638e-04,-4.696077211e-05,-9.135015359e-04,-1.063901701e-03,-1.959768339e-05,-1.083499385e-03,-1.184324347e-03,-2.945049401e-05,-1.213774841e-03,-1.211657754e-03,-2.225943512e-04,-1.434252106e-03,-1.611084607e-03,-1.157097706e-04,-1.726794378e-03,-1.869131062e-03,-2.021448291e-04,-2.071275891e-03,-1.278520820e-03,-1.558702611e-04,-1.434391081e-03,-1.762033550e-03,-1.485934085e-04,-1.910626959e-03,-1.455140118e-03,-4.466955215e-05,-1.499809671e-03,-9.910054828e-04,-7.302160870e-05,-1.064027092e-03,-7.371094335e-04,-1.415108715e-04,-8.786203050e-04,-1.709058807e-04,-1.663194585e-06,-1.725690753e-04,1.311260673e-04,3.057453514e-05,1.617006025e-04,-9.384323690e-04,-5.512315292e-05,-9.935555219e-04,-8.640554406e-04,-1.551865492e-05,-8.795740955e-04,-8.519639378e-04,-5.151623744e-04,-1.367126312e-03,-1.177061233e-03,-2.919261058e-05,-1.206253843e-03,-1.864375915e-03,4.015454415e-05,-1.824221371e-03,-1.702181097e-03,-2.683896047e-04,-1.970570702e-03,-1.951721301e-03,-1.600761205e-04,-2.111797422e-03,-1.749683081e-03,-2.023796949e-04,-1.952062776e-03,-1.946923822e-03,-1.631232030e-04,-2.110047025e-03,-1.662255510e-03,-1.200548901e-04,-1.782310400e-03,-1.886395990e-03,-3.068536191e-04,-2.193249609e-03,-1.905082289e-03,-5.029936545e-04,-2.408075943e-03
-4.3,-9.593489052e-04,-1.617663455e-05,-9.755255398e-04,-5.592390176e-04,-7.976655357e-05,-6.390055712e-04,-1.987595028e-03,-2.038431262e-04,-2.191438154e-03,-2.077042794e-04,-2.292560735e-05,-2.306298868e-04,-1.541808436e-03,-8.716557300e-05,-1.628974009e-03,-1.044301654e-03,-6.556013366e-05,-1.109861787e-03,-1.432643750e-03,-8.084747073e-05,-1.513491220e-03,-2.033773500e-03,7.175298634e-05,-1.962020514e-03,-2.371025934e-03,-1.876202080e-04,-2.558646142e-03,-1.958180554e-03,-9.084922930e-05,-2.049029783e-03,-9.404193185e-04,-4.802603631e-05,-9.884453549e-04,-9.466777578e-04,-2.390377442e-05,-9.705815323e-04,-1.154329853e-03,3.532893492e-06,-1.150796960e-03,-1.298613579e-03,-1.303062143e-05,-1.311644200e-03,-1.295303017e-03,-2.312226484e-04,-1.526525665e-03,-1.758555621e-03,-1.115167599e-04,-1.870072381e-03,-2.026349067e-03,-2.064778677e-04,-2.232826935e-03,-1.404364022e-03,-1.611517880e-04,-1.565515810e-03,-1.910376923e-03,-1.551433556e-04,-2.065520279e-03,-1.527069713e-03,-2.594640544e-05,-1.553016118e-03,-1.034562873e-03,-6.522408272e-05,-1.099786955e-03,-9.424134927e-04,-1.480972204e-04,-1.090510713e-03,-1.826499509e-04,8.763820977e-06,-1.738861299e-04,9.188849969e-05,3.374810371e-05,1.256366034e-04,-1.065406569e-03,-3.893625200e-05,-1.104342821e-03,-9.905887200e-04,-6.806781672e-06,-9.973955017e-04,-1.006315575e-03,-4.932278853e-04,-1.499543460e-03,-1.298993339e-03,-2.082651285e-05,-1.319819852e-03,-2.024133845e-03,4.118253076e-05,-1.982951314e-03,-1.879202865e-03,-2.732071071e-04,-2.152409972e-03,-2.109344416e-03,-1.581397252e-04,-2.267484141e-03,-1.930524536e-03,-2.100464472e-04,-2.140570983e-03,-2.112853631e-03,-1.736527307e-04,-2.286506362e-03,-1.841292828e-03,-1.241701310e-04,-1.965462959e-03,-2.109647502e-03,-3.190173627e-04,-2.428664865e-03,-2.161358668e-03,-5.284005368e-04,-2.689759205e-03
-4.2,-1.029013418e-03,-3.991964072e-06,-1.033005382e-03,-6.092884320e-04,-7.287199254e-05,-6.821604245e-04,-2.262399951e-03,-2.158317118e-04,-2.478231663e-03,-4.019297846e-04,-2.871978645e-05,-4.306495711e-04,-1.744749677e-03,-6.611931823e-05,-1.810868995e-03,-1.106043205e-03,-5.242052702e-05,-1.158463732e-03,-1.560681359e-03,-6.787873237e-05,-1.628560091e-03,-2.152927998e-03,9.325444718e-05,-2.059673551e-03,-2.557950999e-03,-1.699825087e-04,-2.727933508e-03,-2.047878596e-03,-7.386988511e-05,-2.121748481e-03,-1.008928007e-03,-2.957790481e-05,-1.038505912e-03,-1.026456222e-03,3.514374714e-07,-1.026104784e-03,-1.242134135e-03,2.693310384e-05,-1.215201031e-03,-1.410587835e-03,3.579954212e-06,-1.407007880e-03,-1.380446547e-03,-2.372491468e-04,-1.617695693e-03,-1.902493444e-03,-1.071970119e-04,-2.009690455e-03,-2.180644750e-03,-2.102491221e-04,-2.390893872e-03,-1.527926818e-03,-1.659694583e-04,-1.693896277e-03,-2.055543762e-03,-1.611282159e-04,-2.216671978e-03,-1.596033991e-03,-7.024410367e-06,-1.603058401e-03,-1.077687842e-03,-5.721861899e-05,-1.134906461e-03,-1.148688605e-03,-1.545524718e-04,-1.303241076e-03,-1.957131368e-04,1.920785751e-05,-1.765052792e-04,5.080136351e-05,3.696213764e-05,8.776350115e-05,-1.192209824e-03,-2.243767084e-05,-1.214647495e-03,-1.115935652e-03,2.176347805e-06,-1.113759304e-03,-1.164185976e-03,-4.664145663e-04,-1.630600542e-03,-1.419142851e-03,-1.229470355e-05,-1.431437554e-03,-2.179333481e-03,4.116828534e-05,-2.138165196e-03,-2.053323950e-03,-2.771155379e-04,-2.330439488e-03,-2.263257976e-03,-1.562238950e-04,-2.419481871e-03,-2.108774157e-03,-2.166423411e-04,-2.325416498e-03,-2.275405270e-03,-1.837237173e-04,-2.459128987e-03,-2.017550599e-03,-1.278496651e-04,-2.145400264e-03,-2.330467418e-03,-3.295003357e-04,-2.659967753e-03,-2.415631312e-03,-5.518162191e-04,-2.967447531e-03
-4.1,-1.095508069e-03,8.582453661e-06,-1.086925616e-03,-6.597807397e-04,-6.572859307e-05,-7.255093328e-04,-2.530030159e-03,-2.267860805e-04,-2.756816239e-03,-6.005766461e-04,-3.437524844e-05,-6.349518945e-04,-1.945080491e-03,-4.447705097e-05,-1.989557542e-03,-1.167595388e-03,-3.901499044e-05,-1.206610378e-03,-1.686754180e-03,-5.454843051e-05,-1.741302610e-03,-2.268209506e-03,1.146682630e-04,-2.153541243e-03,-2.738398428e-03,-1.516070384e-04,-2.890005466e-03,-2.133506512e-03,-5.652075547e-05,-2.190027268e-03,-1.076959200e-03,-1.099639830e-05,-1.087955598e-03,-1.105868848e-03,2.575901023e-05,-1.080109838e-03,-1.327148891e-03,5.050326115e-05,-1.276645630e-03,-1.520179413e-03,2.033586001e-05,-1.499843553e-03,-1.467350367e-03,-2.406242126e-04,-1.707974580e-03,-2.042753852e-03,-1.027339920e-04,-2.145487844e-03,-2.331935908e-03,-2.134506961e-04,-2.545386604e-03,-1.649103630e-03,-1.703522311e-04,-1.819455861e-03,-2.197504778e-03,-1.665107624e-04,-2.364015541e-03,-1.662136001e-03,1.206499519e-05,-1.650071006e-03,-1.120468669e-03,-4.906539634e-05,-1.169534065e-03,-1.355528665e-03,-1.608905747e-04,-1.516419239e-03,-2.101350015e-04,2.964293793e-05,-1.804920636e-04,7.882883683e-06,4.020842406e-05,4.809130774e-05,-1.318819801e-03,-5.609445306e-06,-1.324429246e-03,-1.240038266e-03,1.149310616e-05,-1.228545159e-03,-1.325373087e-03,-4.347734422e-04,-1.760146530e-03,-1.537585296e-03,-3.575068533e-06,-1.541160364e-03,-2.329741649e-03,4.006045137e-05,-2.289681198e-03,-2.224425849e-03,-2.801516069e-04,-2.504577456e-03,-2.413345804e-03,-1.544066985e-04,-2.567752502e-03,-2.284248801e-03,-2.221448856e-04,-2.506393687e-03,-2.434462501e-03,-1.932485595e-04,-2.627711061e-03,-2.190714310e-03,-1.310879641e-04,-2.321802274e-03,-2.548371769e-03,-3.383082935e-04,-2.886680062e-03,-2.667218397e-03,-5.732494550e-04,-3.240467852e-03
-4,-1.158796893e-03,2.151835905e-05,-1.137278534e-03,-7.108232495e-04,-5.837130443e-05,-7.691945539e-04,-2.790002395e-03,-2.367172659e-04,-3.026719661e-03,-8.034292350e-04,-3.992693944e-05,-8.433561745e-04,-2.142359556e-03,-2.226742501e-05,-2.164626981e-03,-1.228973471e-03,-2.541836548e-05,-1.254391836e-03,-1.810685315e-03,-4.088376873e-05,-1.851569084e-03,-2.379613912e-03,1.360604882e-04,-2.243553424e-03,-2.912141964e-03,-1.325509525e-04,-3.044692917e-03,-2.215102375e-03,-3.883442961e-05,-2.253936804e-03,-1.144464078e-03,7.667873167e-06,-1.136796205e-03,-1.184871002e-03,5.224876640e-05,-1.132622236e-03,-1.409189014e-03,7.411775457e-05,-1.335071260e-03,-1.627310537e-03,3.719674343e-05,-1.590113794e-03,-1.556170610e-03,-2.413506309e-04,-1.797521241e-03,-2.179187582e-03,-9.810723122e-05,-2.277294814e-03,-2.480106837e-03,-2.160774575e-04,-2.696184295e-03,-1.767775692e-03,-1.743234717e-04,-1.942099163e-03,-2.336200685e-03,-1.712605440e-04,-2.507461229e-03,-1.725464744e-03,3.129079360e-05,-1.694173951e-03,-1.162958538e-03,-4.082186617e-05,-1.203780404e-03,-1.562492896e-03,-1.671202185e-04,-1.729613115e-03,-2.259295323e-04,4.004396694e-05,-1.858855653e-04,-3.682384259e-05,4.347875039e-05,6.654907801e-06,-1.445173994e-03,1.156185373e-05,-1.433612140e-03,-1.362820646e-03,2.120461930e-05,-1.341616026e-03,-1.489556632e-03,-3.984361911e-04,-1.887992824e-03,-1.654352860e-03,5.335223141e-06,-1.649017637e-03,-2.475110214e-03,3.782628446e-05,-2.437283929e-03,-2.392367663e-03,-2.823504441e-04,-2.674718107e-03,-2.559463069e-03,-1.527565018e-04,-2.712219571e-03,-2.456728601e-03,-2.265403623e-04,-2.683268963e-03,-2.589872095e-03,-2.021373109e-04,-2.792009406e-03,-2.360440983e-03,-1.338827527e-04,-2.494323736e-03,-2.762807764e-03,-3.454819527e-04,-3.108289717e-03,-2.915399746e-03,-5.927026901e-04,-3.508102436e-03
-3.9,-1.218853978e-03,3.478357623e-05,-1.184070402e-03,-7.624945395e-04,-5.083444288e-05,-8.133289824e-04,-3.041879100e-03,-2.456433090e-04,-3.287522409e-03,-1.010220537e-03,-4.541207043e-05,-1.055632607e-03,-2.336143859e-03,4.769583764e-07,-2.335666901e-03,-1.290160150e-03,-1.170188438e-05,-1.301862034e-03,-1.932276519e-03,-2.691179049e-05,-1.959188310e-03,-2.487118954e-03,1.574999030e-04,-2.329619050e-03,-3.078971894e-03,-1.128722487e-04,-3.191844142e-03,-2.292692281e-03,-2.084273088e-05,-2.313535012e-03,-1.211368379e-03,2.636669892e-05,-1.185001681e-03,-1.263382729e-03,7.972653641e-05,-1.183656193e-03,-1.488053386e-03,9.762618689e-05,-1.390427199e-03,-1.731894337e-03,5.412690927e-05,-1.677767428e-03,-1.646954706e-03,-2.394815538e-04,-1.886436260e-03,-2.311640160e-03,-9.329466261e-05,-2.404934823e-03,-2.625010152e-03,-2.181272103e-04,-2.843137362e-03,-1.883811128e-03,-1.779005857e-04,-2.061711713e-03,-2.471541459e-03,-1.753551262e-04,-2.646896586e-03,-1.786093426e-03,5.062183363e-05,-1.735471593e-03,-1.205176233e-03,-3.254174536e-05,-1.237717978e-03,-1.769108963e-03,-1.732452042e-04,-1.942354167e-03,-2.430862283e-04,5.038688038e-05,-1.926993479e-04,-8.325162565e-05,4.676510925e-05,-3.648651639e-05,-1.571168486e-03,2.908410500e-05,-1.542084381e-03,-1.484186506e-03,3.136750155e-05,-1.452819004e-03,-1.656311808e-03,-3.575976181e-04,-2.013909426e-03,-1.769429412e-03,1.441650839e-05,-1.755012904e-03,-2.615183793e-03,3.445320777e-05,-2.580730585e-03,-2.556988660e-03,-2.837454973e-04,-2.840734157e-03,-2.701439105e-03,-1.513311663e-04,-2.852770271e-03,-2.625963739e-03,-2.298221980e-04,-2.855785937e-03,-2.741447699e-03,-2.103000481e-04,-2.951747747e-03,-2.526365708e-03,-1.362354351e-04,-2.662601143e-03,-2.973169315e-03,-3.510883636e-04,-3.324257678e-03,-3.159431132e-03,-6.101723803e-04,-3.769603513e-03
-3.8,-1.275663250e-03,4.834225723e-05,-1.227320992e-03,-8.148446769e-04,-4.315149735e-05,-8.579961742e-04,-3.285270466e-03,-2.535887659e-04,-3.538859232e-03,-1.220635682e-03,-5.086869584e-05,-1.271504378e-03,-2.525993918e-03,2.371950480e-05,-2.502274413e-03,-1.351109134e-03,2.068158557e-06,-1.349040976e-03,-2.051312144e-03,-1.265946256e-05,-2.063971606e-03,-2.590683291e-03,1.790544255e-04,-2.411628865e-03,-3.238696540e-03,-9.262943221e-05,-3.331325972e-03,-2.366290582e-03,-2.577007146e-06,-2.368867589e-03,-1.277574788e-03,4.505454382e-05,-1.232520244e-03,-1.341292029e-03,1.080740132e-04,-1.233218016e-03,-1.563531142e-03,1.208569391e-04,-1.442674203e-03,-1.833836827e-03,7.109442769e-05,-1.762742399e-03,-1.739642933e-03,-2.351174921e-04,-1.974760425e-03,-2.439953669e-03,-8.827464622e-05,-2.528228315e-03,-2.766471045e-03,-2.196008247e-04,-2.986071869e-03,-1.997067424e-03,-1.810948017e-04,-2.178162226e-03,-2.603408683e-03,-1.787808581e-04,-2.782189541e-03,-1.844078800e-03,7.002624875e-05,-1.774052551e-03,-1.247108177e-03,-2.427422949e-05,-1.271382406e-03,-1.974877563e-03,-1.792649665e-04,-2.154142529e-03,-2.615719510e-04,6.064881403e-05,-2.009231370e-04,-1.313109901e-04,5.005979493e-05,-8.125119518e-05,-1.696659630e-03,4.695965979e-05,-1.649699970e-03,-1.604018772e-03,4.203136941e-05,-1.561987402e-03,-1.825125314e-03,-3.124990970e-04,-2.137624411e-03,-1.882748199e-03,2.362452790e-05,-1.859123672e-03,-2.749709218e-03,2.995009335e-05,-2.719759125e-03,-2.718112364e-03,-2.843687684e-04,-3.002481132e-03,-2.839083143e-03,-1.501770080e-04,-2.989260151e-03,-2.791682621e-03,-2.319902414e-04,-3.023672862e-03,-2.888976649e-03,-2.176496477e-04,-3.106626297e-03,-2.688110916e-03,-1.381515411e-04,-2.826262457e-03,-3.178815490e-03,-3.552132065e-04,-3.534028697e-03,-3.398562608e-03,-6.256490047e-04,-4.024211613e-03
-3.7,-1.329218742e-03,6.215520742e-05,-1.267063534e-03,-8.678966145e-04,-3.535482561e-05,-9.032514401e-04,-3.519836470e-03,-2.605841369e-04,-3.780420607e-03,-1.434317053e-03,-5.633456959e-05,-1.490651623e-03,-2.711479339e-03,4.741967214e-05,-2.664059667e-03,-1.411749382e-03,1.583125909e-05,-1.395918123e-03,-2.167563727e-03,1.846127017e-06,-2.165717600e-03,-2.690246867e-03,2.007873598e-04,-2.489459508e-03,-3.391144040e-03,-7.188114028e-05,-3.463025180e-03,-2.435900792e-03,1.593158880e-05,-2.419969203e-03,-1.342965870e-03,6.368874448e-05,-1.279277126e-03,-1.418459012e-03,1.371491178e-04,-1.281309894e-03,-1.635409888e-03,1.436229214e-04,-1.491786967e-03,-1.933039460e-03,8.807034973e-05,-1.844969110e-03,-1.834073651e-03,-2.284029536e-04,-2.062476605e-03,-2.563969320e-03,-8.302772221e-05,-2.646997042e-03,-2.904292725e-03,-2.205022201e-04,-3.124794945e-03,-2.107395567e-03,-1.839109905e-04,-2.291306558e-03,-2.731660220e-03,-1.815330477e-04,-2.913193268e-03,-1.899461201e-03,8.947102230e-05,-1.809990179e-03,-1.288711318e-03,-1.606335255e-05,-1.304774670e-03,-2.179278140e-03,-1.851751095e-04,-2.364453250e-03,-2.813331035e-04,7.080826295e-05,-2.105248405e-04,-1.808927343e-04,5.335534399e-05,-1.275373903e-04,-1.821468053e-03,6.518618705e-05,-1.756281866e-03,-1.722181081e-03,5.323731917e-05,-1.668943762e-03,-1.995413953e-03,-2.634154124e-04,-2.258829366e-03,-1.994193192e-03,3.289043010e-05,-1.961302762e-03,-2.878443936e-03,2.434776712e-05,-2.854096169e-03,-2.875550384e-03,-2.842510898e-04,-3.159801474e-03,-2.972191076e-03,-1.493278024e-04,-3.121518878e-03,-2.953599149e-03,-2.330509669e-04,-3.186650116e-03,-3.032227721e-03,-2.241041189e-04,-3.256331840e-03,-2.845296113e-03,-1.396410731e-04,-2.984937186e-03,-3.379088686e-03,-3.579545555e-04,-3.737043242e-03,-3.632057334e-03,-6.391169705e-04,-4.271174305e-03
-3.6,-1.379524888e-03,7.618018993e-05,-1.303344699e-03,-9.216482326e-04,-2.747532179e-05,-9.491235544e-04,-3.745288414e-03,-2.666652262e-04,-4.011953640e-03,-1.650870303e-03,-6.184645496e-05,-1.712716758e-03,-2.892183682e-03,7.153311807e-05,-2.820650564e-03,-1.471989043e-03,2.953316620e-05,-1.442455877e-03,-2.280794057e-03,1.657756398e-05,-2.264216493e-03,-2.785731767e-03,2.227538646e-04,-2.562977902e-03,-3.536163579e-03,-5.068567907e-05,-3.586849258e-03,-2.501516402e-03,3.465192303e-05,-2.466864479e-03,-1.407406792e-03,8.222966841e-05,-1.325177124e-03,-1.494720494e-03,1.667877906e-04,-1.327932703e-03,-1.703485105e-03,1.657285401e-04,-1.537756564e-03,-2.029401696e-03,1.050285651e-04,-1.924373131e-03,-1.929990962e-03,-2.195230034e-04,-2.149513966e-03,-2.683529308e-03,-7.753830779e-05,-2.761067616e-03,-3.038261571e-03,-2.208381698e-04,-3.259099741e-03,-2.214644515e-03,-1.863476619e-04,-2.400992177e-03,-2.856135977e-03,-1.836155826e-04,-3.039751560e-03,-1.952264599e-03,1.089216871e-04,-1.843342912e-03,-1.329916048e-03,-7.947521483e-06,-1.337863570e-03,-2.381775022e-03,-1.909678990e-04,-2.572742921e-03,-3.022976715e-04,8.084519316e-05,-2.214524783e-04,-2.318707336e-04,5.664428518e-05,-1.752264485e-04,-1.945383518e-03,8.375758578e-05,-1.861625932e-03,-1.838520643e-03,6.501722105e-05,-1.773503421e-03,-2.166544424e-03,-2.106461367e-04,-2.377190560e-03,-2.103604346e-03,4.212324484e-05,-2.061481101e-03,-3.001161583e-03,1.769874360e-05,-2.983462839e-03,-3.029104390e-03,-2.834221405e-04,-3.312526530e-03,-3.100551253e-03,-1.488039054e-04,-3.249355159e-03,-3.111417453e-03,-2.330181381e-04,-3.344435591e-03,-3.170957597e-03,-2.295880259e-04,-3.400545623e-03,-2.997545608e-03,-1.407185712e-04,-3.138264179e-03,-3.573329865e-03,-3.594175664e-04,-3.932747432e-03,-3.859206913e-03,-6.505546408e-04,-4.509761553e-03
-3.5,-1.426596377e-03,9.037219157e-05,-1.336224185e-03,-9.760744220e-04,-1.954211758e-05,-9.956165396e-04,-3.961389524e-03,-2.718724041e-04,-4.233261928e-03,-1.869870443e-03,-6.743985140e-05,-1.937310294e-03,-3.067707791e-03,9.601198974e-05,-2.971695801e-03,-1.531718266e-03,4.312606032e-05,-1.488592206e-03,-2.390759803e-03,3.150699024e-05,-2.359252813e-03,-2.877042261e-03,2.449976499e-04,-2.632044611e-03,-3.673625445e-03,-2.910049913e-05,-3.702725944e-03,-2.563120946e-03,5.355281694e-05,-2.509568129e-03,-1.470747229e-03,1.006408332e-04,-1.370106395e-03,-1.569894425e-03,1.968074331e-04,-1.373086991e-03,-1.767570001e-03,1.869771928e-04,-1.580592808e-03,-2.122822845e-03,1.219462597e-04,-2.000876585e-03,-2.027054581e-03,-2.086983400e-04,-2.235752921e-03,-2.798477096e-03,-7.179619368e-05,-2.870273290e-03,-3.168150495e-03,-2.206179319e-04,-3.388768426e-03,-2.318664873e-03,-1.883973246e-04,-2.507062198e-03,-2.976663014e-03,-1.850401368e-04,-3.161703150e-03,-2.002496093e-03,1.283420532e-04,-1.874154040e-03,-1.370628469e-03,4.072863319e-08,-1.370587740e-03,-2.581823183e-03,-1.966327207e-04,-2.778455904e-03,-3.243768561e-04,9.074110851e-05,-2.336357476e-04,-2.841044001e-04,5.991880259e-05,-2.241855976e-04,-2.068168981e-03,1.026640508e-04,-1.965504930e-03,-1.952871376e-03,7.739328336e-05,-1.875478093e-03,-2.337853870e-03,-1.545092575e-04,-2.492363127e-03,-2.210785570e-03,5.121417183e-05,-2.159571398e-03,-3.117654235e-03,1.007649424e-05,-3.107577741e-03,-3.178565573e-03,-2.819101248e-04,-3.460475698e-03,-3.223948078e-03,-1.486113763e-04,-3.372559454e-03,-3.264833444e-03,-2.319134309e-04,-3.496746875e-03,-3.304914417e-03,-2.340327469e-04,-3.538947164e-03,-3.144492553e-03,-1.414027988e-04,-3.285895352e-03,-3.760888772e-03,-3.597096170e-04,-4.120598389e-03,-4.079339572e-03,-6.599349098e-04,-4.739274482e-03
