Time,S1D1HbO,S1D1HbR,S1D1HbT,S2D2HbO,S2D2HbR,S2D2HbT,S3D3HbO,S3D3HbR,S3D3HbT,S4D4HbO,S4D4HbR,S4D4HbT,S5D5HbO,S5D5HbR,S5D5HbT,S6D6HbO,S6D6HbR,S6D6HbT,S7D7HbO,S7D7HbR,S7D7HbT,S8D8HbO,S8D8HbR,S8D8HbT,S9D9HbO,S9D9HbR,S9D9HbT,S10D10HbO,S10D10HbR,S10D10HbT,S11D11HbO,S11D11HbR,S11D11HbT,S12D12HbO,S12D12HbR,S12D12HbT,S13D13HbO,S13D13HbR,S13D13HbT,S14D14HbO,S14D14HbR,S14D14HbT,S15D15HbO,S15D15HbR,S15D15HbT,S16D16HbO,S16D16HbR,S16D16HbT,S17D17HbO,S17D17HbR,S17D17HbT,S18D18HbO,S18D18HbR,S18D18HbT,S19D19HbO,S19D19HbR,S19D19HbT,S20D20HbO,S20D20HbR,S20D20HbT,S21D21HbO,S21D21HbR,S21D21HbT,S22D22HbO,S22D22HbR,S22D22HbT,S23D23HbO,S23D23HbR,S23D23HbT,S24D24HbO,S24D24HbR,S24D24HbT,S25D25HbO,S25D25HbR,S25D25HbT,S26D26HbO,S26D26HbR,S26D26HbT,S27D27HbO,S27D27HbR,S27D27HbT,S28D28HbO,S28D28HbR,S28D28HbT,S29D29HbO,S29D29HbR,S29D29HbT,S30D30HbO,S30D30HbR,S30D30HbT,S31D31HbO,S31D31HbR,S31D31HbT,S32D32HbO,S32D32HbR,S32D32HbT,S33D33HbO,S33D33HbR,S33D33HbT,S34D34HbO,S34D34HbR,S34D34HbT,S35D35HbO,S35D35HbR,S35D35HbT,S36D36HbO,S36D36HbR,S36D36HbT
0.0,-0.0007493226841,0.0001374813578,-0.0006118413263,0.0001022424153,-0.0004707509984,-0.0003685085831,0.0004692584862,9.61028516e-05,0.0005653613378,0.0003521181341,3.283345724e-05,0.0003849515914,0.0005881986899,-0.0002680280768,0.000320170613,-0.0004741179896,0.0002015912938,-0.0002725266958,0.000438832455,-4.401736909e-05,0.0003948150859,0.00100904731,-0.0005310568723,0.000477990438,0.00133095449,-0.0002498838065,0.001081070684,-0.0005546567375,-0.0001028173698,-0.0006574741073,0.0004665882426,-0.0003070424245,0.0001595458182,0.002368045238,0.0002022460492,0.002570291287,0.001365460873,0.0001137389055,0.001479199779,0.002720652653,-0.0006997743509,0.002020878302,0.00126720481,-0.0004288571811,0.0008383476286,0.002002529759,-9.983799656e-05,0.001902691762,0.001428549171,0.0001459721274,0.001574521298,0.0006876675345,-0.0001442082349,0.0005434592996,0.0005765588435,-0.000323306828,0.0002532520155,-0.001042294262,-0.0003005787484,-0.00134287301,1.755388933e-05,-0.0003865302004,-0.0003689763111,-0.0001908500101,0.000394920119,0.0002040701089,0.0003270274568,-8.652074378e-05,0.000240506713,0.0004190302168,7.709341482e-05,0.0004961236316,0.003335873256,0.0009683249584,0.004304198214,0.001354495798,0.0003922421194,0.001746737918,0.004190785378,0.0009556969475,0.005146482326,0.001956207731,-5.528829364e-05,0.001900919438,0.001620061935,-0.0002052365201,0.001414825414,-0.0002751874127,-0.0001385187589,-0.0004137061716,0.0009425050565,4.385940253e-05,0.0009863644591,-0.0005056691479,-0.0002008740459,-0.0007065431939,-0.001036890285,-0.0003715668261,-0.001408457111,-0.001659482372,-6.776445501e-05,-0.001727246827,-0.0005105811707,3.314283142e-05,-0.0004774383393,-0.0009434704316,0.0002950442844,-0.0006484261472
0.1,-0.0007381823121,0.0001434608728,-0.0005947214393,0.000114697693,-0.0004706497149,-0.0003559520219,0.0004900899895,0.0001010445468,0.0005911345363,0.0003869159645,3.638225473e-05,0.0004232982192,0.0006003461709,-0.0002747942735,0.0003255518975,-0.0004837870597,0.0002039660806,-0.0002798209791,0.0004327283126,-4.659312383e-05,0.0003861351888,0.000989993416,-0.0005480947136,0.0004418987024,0.00135421105,-0.000254410359,0.001099800691,-0.0005761916051,-0.0001009646268,-0.0006771562319,0.0004872675151,-0.0003120392167,0.0001752282984,0.002407794563,0.000198436241,0.002606230804,0.001398219764,0.0001018550626,0.001500074827,0.002756776491,-0.0007145930687,0.002042183422,0.00128698312,-0.0004381022525,0.0008488808678,0.001986589644,-9.979035974e-05,0.001886799285,0.001390094414,0.0001109649814,0.001501059395,0.000667192485,-0.000152603298,0.000514589187,0.0005579626853,-0.0003311240974,0.0002268385879,-0.001047303793,-0.0003032641095,-0.001350567902,7.508653496e-05,-0.0003891736599,-0.0003140871249,-0.0001686553773,0.0003834153116,0.0002147599343,0.0003424818047,-8.189962927e-05,0.0002605821754,0.0004485431053,6.952882554e-05,0.0005180719309,0.003390912568,0.0009749450299,0.004365857597,0.001369671074,0.0004009226598,0.001770593734,0.004205740506,0.0009664749035,0.005172215409,0.001971666113,-6.612233815e-05,0.001905543775,0.0015923034,-0.0001970733147,0.001395230085,-0.0002482801522,-0.0001394174673,-0.0003876976195,0.0009181644293,4.277710206e-05,0.0009609415314,-0.000499818788,-0.0001861118451,-0.0006859306331,-0.001079442523,-0.0003702965316,-0.001449739055,-0.00170828035,-5.552609658e-05,-0.001763806447,-0.0005022974306,1.84504621e-05,-0.0004838469685,-0.0009683169623,0.0003216225337,-0.0006466944286
0.2,-0.0007246942223,0.0001495206842,-0.0005751735381,0.000130290097,-0.0004696434173,-0.0003393533203,0.0005118065654,0.0001057382314,0.0006175447968,0.0004240875962,3.973928123e-05,0.0004638268775,0.0006140513535,-0.0002814909174,0.0003325604361,-0.0004902739787,0.0002058973046,-0.0002843766741,0.0004280070886,-4.931663596e-05,0.0003786904526,0.0009688598427,-0.0005624632058,0.0004063966368,0.001378149664,-0.0002591113625,0.001119038302,-0.0005949176922,-9.950714165e-05,-0.0006944248339,0.0005090097541,-0.000317125395,0.0001918843591,0.002446449648,0.0001943586267,0.002640808275,0.001430592974,9.136742299e-05,0.001521960397,0.002790984955,-0.0007284254816,0.002062559474,0.001307444691,-0.0004475306839,0.0008599140071,0.001971312782,-0.0001001790828,0.001871133699,0.001358522276,7.234457629e-05,0.001430866852,0.0006494037359,-0.0001611117191,0.0004882920168,0.0005427375459,-0.0003388560815,0.0002038814644,-0.00104839674,-0.0003057875303,-0.001354184271,0.0001355447465,-0.0003918148761,-0.0002562701295,-0.0001416860682,0.000369851926,0.0002281658578,0.0003595932164,-7.757400096e-05,0.0002820192154,0.0004799595178,6.056023726e-05,0.000540519755,0.003449952502,0.0009788914571,0.004428843959,0.001386380497,0.0004092436335,0.00179562413,0.004220057437,0.000977035073,0.00519709251,0.00198655542,-7.643178331e-05,0.001910123637,0.001565133746,-0.0001877748556,0.00137735889,-0.0002175143201,-0.0001410183085,-0.0003585326286,0.0008968728079,4.199051159e-05,0.0009388633194,-0.0004896191579,-0.0001691159328,-0.0006587350907,-0.001113998206,-0.0003655522108,-0.001479550417,-0.001750401706,-4.25498664e-05,-0.001792951572,-0.0004864079099,3.528725758e-06,-0.0004828791842,-0.0009837241691,0.0003450429539,-0.0006386812153
0.3,-0.0007089548883,0.0001556542274,-0.0005533006609,0.0001489519608,-0.0004677368467,-0.000318784886,0.0005343436662,0.0001101588193,0.0006445024855,0.0004635366316,4.288689481e-05,0.0005064235264,0.0006292873631,-0.0002881179083,0.0003411694548,-0.0004935179437,0.0002073197072,-0.0002861982366,0.000424673119,-5.216773037e-05,0.0003725053886,0.0009456051492,-0.0005741288334,0.0003714763159,0.001402774373,-0.0002639863509,0.001138788022,-0.0006108461095,-9.847296317e-05,-0.0007093190727,0.000531766778,-0.0003223033099,0.0002094634681,0.002483867846,0.0001900808706,0.002673948717,0.001462484388,8.238246609e-05,0.001544866854,0.002823210362,-0.0007412740949,0.002081936267,0.001328564626,-0.0004571320411,0.0008714325847,0.001956924513,-0.0001010686752,0.001855855838,0.001333757884,3.077445102e-05,0.001364532335,0.0006344183094,-0.0001696950859,0.0004647232235,0.0005308286572,-0.0003464721124,0.0001843565448,-0.001045678977,-0.0003082186217,-0.001353897598,0.0001986598816,-0.0003944788035,-0.0001958189219,-0.0001102329229,0.0003546438901,0.0002444109672,0.0003783626651,-7.360055321e-05,0.0003047621118,0.0005132420988,5.023680521e-05,0.000563478904,0.003513072412,0.0009798631061,0.004492935518,0.001404716083,0.0004171678819,0.001821883965,0.004233966173,0.0009872299722,0.005221196145,0.002000967585,-8.617897008e-05,0.001914788615,0.001538817315,-0.000177476832,0.001361340483,-0.0001830527192,-0.0001432698695,-0.0003263225887,0.0008785278315,4.165027187e-05,0.0009201781033,-0.0004750859279,-0.0001500343904,-0.0006251203183,-0.001140218664,-0.0003577933836,-0.001498012048,-0.001785639527,-2.896139824e-05,-0.001814600925,-0.0004631676735,-1.158582107e-05,-0.0004747534946,-0.0009894553971,0.0003651044759,-0.0006243509212
0.4,-0.0006910733324,0.0001618553969,-0.0005292179355,0.0001705992274,-0.0004649429578,-0.0002943437305,0.0005576283907,0.0001142836575,0.0006719120482,0.0005051472569,4.581024788e-05,0.0005509575048,0.0006460151256,-0.0002946752139,0.0003513399117,-0.000493470608,0.0002081548848,-0.0002853157232,0.0004227215768,-5.51234922e-05,0.0003675980846,0.0009202427827,-0.0005831129525,0.0003371298302,0.001428084379,-0.0002690327298,0.00115905165,-0.0006240044233,-9.788645953e-05,-0.0007218908828,0.0005554822962,-0.0003275742386,0.0002279080576,0.002519948605,0.0001856348024,0.002705583407,0.001493813453,7.498943042e-05,0.001568802884,0.002853394896,-0.0007531423728,0.002100252523,0.001350312022,-0.000466896024,0.0008834159975,0.001943651006,-0.000102522045,0.001841128961,0.001315582978,-1.301426484e-05,0.001302568713,0.0006223348653,-0.0001783248147,0.0004440100506,0.0005221508666,-0.0003539461201,0.0001682047464,-0.001039282254,-0.0003106225987,-0.001349904853,0.0002641473754,-0.0003971872904,-0.0001330399151,-7.468196572e-05,0.0003382675534,0.0002635855877,0.0003987789384,-7.003240146e-05,0.0003287465369,0.0005483333439,3.861888264e-05,0.0005869522266,0.00358031811,0.0009775861373,0.004557904247,0.00142475762,0.0004246558364,0.001849413456,0.004247664214,0.0009969383409,0.005244602555,0.002014984185,-9.53149629e-05,0.001919669222,0.001513623389,-0.000166341086,0.001347282303,-0.0001450792208,-0.0001461119533,-0.0002911911741,0.0008630069638,4.190050838e-05,0.0009049074722,-0.0004562553455,-0.0001290576727,-0.0005853130182,-0.001157822854,-0.000347459396,-0.00150528225,-0.001813805874,-1.490293162e-05,-0.001828708806,-0.0004328836849,-2.685294723e-05,-0.0004597366321,-0.0009853758071,0.0003816763606,-0.0006036994464
0.5,-0.0006711693752,0.0001681185461,-0.0005030508291,0.0001951345866,-0.0004612852402,-0.0002661506536,0.0005815806769,0.0001180928698,0.0006996735467,0.0005487852643,4.849750567e-05,0.0005972827699,0.000664184377,-0.000301162985,0.000363021392,-0.0004901002007,0.0002083159431,-0.0002817842576,0.0004221394543,-5.815853007e-05,0.0003639809242,0.0008928454974,-0.0005894934599,0.0003033520375,0.001454074082,-0.0002742458,0.001179828282,-0.0006344356662,-9.776785571e-05,-0.0007322035219,0.0005800925123,-0.0003329383703,0.000247154142,0.002554635823,0.0001810165838,0.002735652407,0.001524517061,6.925734106e-05,0.001593774402,0.002881489874,-0.0007640328305,0.002117457043,0.00137265136,-0.0004768131705,0.00089583819,0.001931717199,-0.0001046003621,0.001827116837,0.001303649773,-5.824705492e-05,0.001245402718,0.0006132330253,-0.0001869804192,0.0004262526061,0.0005165915006,-0.0003612571343,0.0001553343662,-0.001029364761,-0.0003130577966,-0.001342422557,0.0003317093315,-0.0003999589126,-6.824958104e-05,-3.549606973e-05,0.0003212350404,0.0002857389706,0.0004208178898,-6.691845046e-05,0.0003538994393,0.0005851539146,2.577664621e-05,0.0006109305608,0.003651698441,0.0009718265251,0.004623524966,0.001446572881,0.0004316657634,0.001878238645,0.004261317442,0.0010060684,0.005267385842,0.002028671157,-0.0001037775663,0.00192489359,0.001489820974,-0.000154551029,0.001335269945,-0.0001037968157,-0.0001494785859,-0.0002532754016,0.0008501756897,4.286922143e-05,0.0008930449111,-0.0004331940786,-0.0001064059356,-0.0005396000141,-0.001166599872,-0.00033495846,-0.001501558332,-0.001834735431,-5.283291051e-07,-0.001835263761,-0.0003959113382,-4.222381399e-05,-0.0004381351522,-0.0009714639536,0.0003947018442,-0.0005767621093
0.6,-0.0006493727253,0.0001744384441,-0.0004749342813,0.0002224494766,-0.0004568003242,-0.0002343508476,0.0006061136169,0.0001215696929,0.0007276833098,0.000594298443,5.094002723e-05,0.0006452384702,0.0006837335925,-0.0003075816241,0.0003761519685,-0.0004833960583,0.0002077121395,-0.0002756839188,0.0004229053661,-6.124535091e-05,0.0003616600152,0.0008635452448,-0.000593403633,0.0002701416119,0.00148073221,-0.0002796187554,0.001201113455,-0.0006421978443,-9.813300659e-05,-0.0007403308509,0.0006055259902,-0.0003383947892,0.000267131201,0.002587914276,0.0001761901089,0.002764104385,0.001554548956,6.523320971e-05,0.001619782166,0.00290745443,-0.0007739466694,0.00213350776,0.001395542695,-0.0004868749342,0.0009086677604,0.001921341521,-0.0001073621463,0.001813979375,0.001297494277,-0.0001041264133,0.001193367863,0.0006071709076,-0.0001956473353,0.0004115235723,0.000514012783,-0.0003683894876,0.0001456232954,-0.00101611057,-0.0003155750486,-0.001331685619,0.0004010363272,-0.0004028090315,-1.772704326e-06,6.809703112e-06,0.0003040590835,0.0003108687866,0.0004444408702,-6.430286934e-05,0.0003801380009,0.0006236008634,1.178813158e-05,0.000635388995,0.003727179763,0.0009624006146,0.004689580378,0.001470215456,0.000438154522,0.001908369978,0.004275060315,0.001014557688,0.005289618002,0.0020420726,-0.0001114911124,0.001930581487,0.001467671793,-0.0001423054773,0.001325366316,-5.942652546e-05,-0.0001533004143,-0.0002127269398,0.0008398937394,4.465976885e-05,0.0008845535082,-0.0004060071369,-8.231782259e-05,-0.0004883249595,-0.001166418589,-0.0003206664467,-0.001487085036,-0.001848290505,1.400082078e-05,-0.001834289685,-0.0003526501587,-5.764064929e-05,-0.000410290808,-0.0009478222197,0.0004042024038,-0.0005436198159
0.7,-0.0006258228987,0.0001808103709,-0.0004450125278,0.000252424879,-0.0004515404203,-0.0001991155414,0.0006311330978,0.0001247007863,0.0007558338841,0.0006415164745,5.313242707e-05,0.0006946489016,0.0007045891813,-0.0003139317927,0.0003906573887,-0.0004733730236,0.0002062532151,-0.0002671198085,0.0004249884883,-6.435487202e-05,0.0003606336163,0.0008325292569,-0.0005950288157,0.0002375004412,0.001508040453,-0.0002851426953,0.001222897758,-0.0006473638013,-9.899328514e-05,-0.0007463570865,0.0006317030578,-0.0003439415039,0.0002877615538,0.002619801508,0.0001710919979,0.002790893506,0.001583877305,6.294184944e-05,0.001646819154,0.002931254751,-0.0007828853747,0.002148369376,0.001418941263,-0.0004970734262,0.0009218678367,0.00191272792,-0.0001108617253,0.001801866194,0.001296550301,-0.0001498486319,0.001146701669,0.0006041813768,-0.0002043146244,0.0003998667523,0.0005142545506,-0.0003753326801,0.0001389218704,-0.0009997277127,-0.0003182187038,-0.001317946416,0.00047180857,-0.0004057499289,6.60586411e-05,5.169375804e-05,0.000287218126,0.000338911884,0.0004695928678,-6.222462198e-05,0.0004073682458,0.0006635461026,-3.262625625e-06,0.000660283477,0.003806679044,0.0009491830585,0.004755862102,0.001495720434,0.0004440788796,0.001939799313,0.004288994641,0.001022369597,0.005311364239,0.002055205597,-0.0001183680512,0.001936837546,0.001447422085,-0.0001298113315,0.001317610753,-1.220676253e-05,-0.0001575069223,-0.0001697136849,0.0008320191969,4.734481538e-05,0.0008793640123,-0.0003748432519,-5.704169404e-05,-0.000431884946,-0.001157238088,-0.0003049277257,-0.001462165814,-0.001854366528,2.851771609e-05,-0.001825848812,-0.0003035385135,-7.30408053e-05,-0.0003765793188,-0.0009146851988,0.0004102813968,-0.000504403802
0.8,-0.000600669515,0.0001872303441,-0.000413439171,0.0002849312041,-0.0004455750673,-0.0001606438632,0.0006565373165,0.0001274764607,0.0007840137772,0.0006902507634,5.507241735e-05,0.0007453231807,0.0007266646386,-0.0003202143996,0.0004064502391,-0.0004600752361,0.0002038535689,-0.0002562216672,0.0004283472058,-6.745704949e-05,0.0003608901563,0.0008000328927,-0.0005946006729,0.0002054322198,0.001535972208,-0.0002908066243,0.001245165583,-0.0006500212051,-0.0001003553482,-0.0007503765533,0.000658535244,-0.0003495754988,0.0003089597452,0.002650337541,0.0001656372821,0.002815974823,0.001612481078,6.23871885e-05,0.001674868266,0.002952864796,-0.0007908538966,0.002162010899,0.001442797447,-0.0005074011527,0.0009353962945,0.001906056597,-0.0001151470174,0.00179090958,0.001300167687,-0.0001946208892,0.001105546798,0.0006042680486,-0.0002129728205,0.000391295228,0.0005171371337,-0.0003820801909,0.0001350569428,-0.0009804450271,-0.0003210285437,-0.001301473571,0.0005436968248,-0.0004087908647,0.0001349059601,9.860717e-05,0.0002711333862,0.0003697405562,0.0004962010821,-6.071705298e-05,0.0004354840291,0.0007048353537,-1.928663748e-05,0.0006855487162,0.003890056856,0.0009321120365,0.004822168893,0.001523099147,0.0004493973818,0.001972496529,0.004303187421,0.001029487729,0.00533267515,0.00206805793,-0.0001243123895,0.001943745541,0.001429294452,-0.0001172758297,0.001312018623,3.76067834e-05,-0.0001620282519,-0.0001244214685,0.0008264108702,5.096347621e-05,0.0008773743464,-0.0003398972781,-3.083004659e-05,-0.0003707273247,-0.001139120894,-0.0002880505176,-0.001427171411,-0.00185289874,4.285308438e-05,-0.001810045656,-0.0002490473187,-8.836290663e-05,-0.0003374102253,-0.0008724250078,0.0004131247825,-0.0004593002253
0.9,-0.0005740723161,0.0001936953324,-0.0003803769837,0.0003198279023,-0.0004389917002,-0.0001191637979,0.0006822167875,0.0001298907963,0.0008121075838,0.0007402947467,5.676042721e-05,0.0007970551739,0.0007498603643,-0.0003264305892,0.0004234297751,-0.0004435788646,0.000200436204,-0.0002431426606,0.0004329281827,-7.052164856e-05,0.0003624065342,0.0007663298261,-0.0005923884038,0.0001739414223,0.001564491912,-0.0002965974245,0.001267894488,-0.0006502723455,-0.0001022206464,-0.0007524929919,0.0006859252078,-0.0003552927689,0.0003306324389,0.002679574446,0.0001597258638,0.00283930031,0.001640346179,6.355431867e-05,0.001703900498,0.0029722688,-0.0007978644129,0.002174404387,0.001467057641,-0.0005178508914,0.0009492067493,0.001901475201,-0.00012025658,0.001781218621,0.001307637472,-0.0002376812838,0.001069956188,0.000607402353,-0.0002216121913,0.0003857901617,0.0005224646335,-0.0003886273404,0.0001338372931,-0.0009585082456,-0.0003240417504,-0.001282549996,0.0006163636644,-0.0004119381451,0.0002044255193,0.0001470012979,0.0002561653592,0.0004031666572,0.0005241744972,-5.980757822e-05,0.000464366919,0.0007472877935,-3.619000447e-05,0.000711097789,0.003977112465,0.0009111915028,0.004888303967,0.001552334622,0.0004540727745,0.002006407396,0.004317670107,0.001035908723,0.00535357883,0.002080590096,-0.0001292248459,0.00195136525,0.001413481021,-0.0001048991644,0.001308581857,8.974021294e-05,-0.0001667960991,-7.705588619e-05,0.0008229297336,5.55211773e-05,0.0008784509109,-0.0003014097699,-3.936863364e-06,-0.0003053466333,-0.00111224497,-0.0002702979973,-0.001382542968,-0.001843869736,5.683895332e-05,-0.001787030783,-0.0001896733341,-0.0001035521025,-0.0002932254366,-0.0008215518357,0.0004129972991,-0.0004085545366
1.0,-0.0005462004788,0.0002002033502,-0.0003459971286,0.0003569631266,-0.0004318944789,-7.493135228e-05,0.000708055115,0.000131941681,0.000839996796,0.0007914249969,5.819914115e-05,0.0008496241381,0.0007740643917,-0.0003325817095,0.0004414826821,-0.0004239934975,0.0001959361219,-0.0002280573756,0.0004386662974,-7.351916506e-05,0.0003651471323,0.0007317207679,-0.0005886872984,0.0001430334695,0.001593554976,-0.0003024998555,0.00129105512,-0.0006482335466,-0.0001045847962,-0.0007528183428,0.0007137672744,-0.0003610883599,0.0003526789145,0.002707566604,0.000153249967,0.002860816571,0.001667462543,6.641107317e-05,0.001733873616,0.002989465098,-0.0008039397776,0.00218552532,0.00149166576,-0.0005284157082,0.0009632500514,0.001899091821,-0.0001262162916,0.00177287553,0.001318222531,-0.0002783204019,0.001039902129,0.0006135227473,-0.0002302218044,0.0003833009429,0.000530029709,-0.0003949694353,0.0001350602737,-0.0009341759153,-0.0003272942888,-0.001261470204,0.0006894653003,-0.00041519539,0.0002742699103,0.0001963250696,0.0002426271014,0.0004389521711,0.0005534044331,-5.951750822e-05,0.0004938869248,0.0007906963591,-5.387303429e-05,0.0007368233248,0.00406758281,0.0008864904074,0.004954073217,0.001583378814,0.0004580748463,0.00204145366,0.004332441446,0.001041633539,0.005374074986,0.002092741671,-0.0001330088803,0.00195973279,0.001400138353,-9.286801756e-05,0.001307270335,0.0001438990286,-0.0001717435095,-2.784448092e-05,0.0008214401032,6.099109405e-05,0.0008824311973,-0.0002596646958,2.338339344e-05,-0.0002362813023,-0.001076911256,-0.0002518796515,-0.001328790908,-0.001827316171,7.031265303e-05,-0.001757003518,-0.0001259316593,-0.0001185639387,-0.000244495598,-0.0007627091834,0.0004102355849,-0.0003524735985
1.1,-0.0005172313586,0.0002067534471,-0.0003104779115,0.0003961730204,-0.0004244010872,-2.822806687e-05,0.0007339302023,0.0001336307994,0.0008675610016,0.0008434029062,5.939312786e-05,0.000902796034,0.0007991535652,-0.0003386692505,0.0004604843147,-0.000401462555,0.0001903031614,-0.0002111593936,0.0004454852398,-7.642184881e-05,0.000369063391,0.0006965217711,-0.0005838058296,0.0001127159414,0.001623107796,-0.0003084966581,0.001314611138,-0.0006440342486,-0.0001074371152,-0.0007514713638,0.000741948258,-0.0003669564675,0.0003749917905,0.002734361096,0.0001461023467,0.002880463443,0.001693822838,7.090810984e-05,0.001764730948,0.003004470181,-0.0008091163777,0.002195353804,0.001516564329,-0.0005390889335,0.0009774753957,0.001898970017,-0.0001330362616,0.001765933755,0.001331188883,-0.0003159010855,0.001015287798,0.0006225360793,-0.0002387895571,0.0003837465222,0.0005396204321,-0.0004011012958,0.0001385191363,-0.0009077160591,-0.0003308211355,-0.001238537195,0.0007626536699,-0.0004185639871,0.0003440896828,0.0002460179249,0.0002308037566,0.0004768216815,0.0005837655035,-5.98619681e-05,0.0005239035355,0.0008348281684,-7.222832565e-05,0.0007625998427,0.004161145435,0.0008581388937,0.005019284328,0.001616151822,0.0004613829778,0.0020775348,0.004347472793,0.001046658391,0.005394131184,0.00210444004,-0.000135576297,0.001968863743,0.001389383536,-8.135031814e-05,0.001308033218,0.0001997645094,-0.0001768038109,2.296069853e-05,0.0008218104174,6.731636908e-05,0.0008891267864,-0.000214986379,5.087636667e-05,-0.0001641100123,-0.001033550616,-0.0002329427713,-0.001266493387,-0.001803333807,8.312044246e-05,-0.001720213365,-5.834780705e-05,-0.0001333674597,-0.0001917152667,-0.0006966644092,0.0004052405431,-0.000291423866
1.2,-0.0004873492015,0.0002133456625,-0.000274003539,0.0004372799551,-0.0004166379997,2.064195539e-05,0.0007597152214,0.000134963566,0.0008946787875,0.00089597637,6.034860751e-05,0.0009563249775,0.0008249943545,-0.0003446947963,0.0004802995582,-0.0003761634858,0.0001835043849,-0.0001926591009,0.0004532982066,-7.920485657e-05,0.00037409335,0.0006610523264,-0.000578052352,8.299997436e-05,0.00165308732,-0.0003145687562,0.001338518564,-0.0006378160084,-0.0001107605617,-0.0007485765702,0.0007703480732,-0.0003728905913,0.000397457482,0.002759987477,0.0001381844958,0.002898171972,0.001719422163,7.697734354e-05,0.001796399507,0.003017321476,-0.0008134462363,0.002203875239,0.001541694056,-0.0005498637272,0.0009918303293,0.001901125098,-0.0001407083924,0.001760416705,0.001345833403,-0.0003498744914,0.0009959589121,0.0006343197365,-0.0002473026792,0.0003870170574,0.0005510278153,-0.000407018015,0.0001440098003,-0.0008794046619,-0.0003346547325,-0.001214059394,0.0008355781759,-0.000422043502,0.000413534674,0.0002955032622,0.0002209694518,0.000516472714,0.0006151163367,-6.084985651e-05,0.0005542664802,0.000879424602,-9.113793367e-05,0.0007882866683,0.004257423633,0.0008263214169,0.00508374505,0.00165054257,0.000463987331,0.002114529901,0.004362712252,0.001050968049,0.005413680301,0.002115608488,-0.000136851672,0.001978756816,0.001381290728,-7.049141124e-05,0.001310799317,0.0002569897088,-0.0001819090005,7.50807083e-05,0.0008239130367,7.44127267e-05,0.0008983257634,-0.0001677361739,7.828842177e-05,-8.944775208e-05,-0.0009827358321,-0.0002135628352,-0.001196298667,-0.001772081776,9.512115901e-05,-0.001676960617,1.254672299e-05,-0.0001479455576,-0.0001353988346,-0.0006242947065,0.0003984687319,-0.0002258259746
1.3,-0.0004567442722,0.0002199809628,-0.0002367633094,0.0004800895211,-0.0004087352076,7.13543135e-05,0.0007852788559,0.0001359489698,0.0009212278257,0.0009488809789,6.107329369e-05,0.001009954273,0.0008514427679,-0.0003506600285,0.0005007827394,-0.0003483081437,0.0001755257354,-0.0001727824083,0.000462008319,-8.184764441e-05,0.0003801606746,0.0006256232068,-0.0005717221687,5.390103819e-05,0.001683419898,-0.0003206954832,0.001362724415,-0.0006297316879,-0.0001145320739,-0.0007442637619,0.0007988398168,-0.0003788836661,0.0004199561507,0.002784447085,0.0001294140156,0.002913861101,0.001744257233,8.452967434e-05,0.001828786907,0.003028077434,-0.0008169979029,0.002211079531,0.001566991644,-0.0005607320448,0.001006259599,0.001905521247,-0.0001492049343,0.001756316312,0.001361505935,-0.0003797924326,0.0009817135022,0.0006487231803,-0.0002557480993,0.000392975081,0.0005640515276,-0.0004127159365,0.0001513355912,-0.0008495264859,-0.0003388216184,-0.001188348104,0.0009078867419,-0.0004256318897,0.0004822548522,0.000344183864,0.0002133997928,0.0005575836568,0.0006472997797,-6.248383196e-05,0.0005848159478,0.0009242014491,-0.0001104704967,0.0008137309524,0.004355991234,0.0007912679753,0.00514725921,0.001686410154,0.0004658882207,0.002152298375,0.004378084784,0.001054533547,0.005432618331,0.002126171629,-0.0001367756108,0.001989396018,0.001375888064,-6.041177391e-05,0.00131547629,0.0003151960953,-0.0001869878357,0.0001282082596,0.0008276229082,8.217107443e-05,0.0009097939826,-0.0001183091937,0.0001053673115,-1.294188222e-05,-0.0009251972719,-0.0001937353567,-0.001118932629,-0.001733786885,0.0001061900446,-0.00162759684,8.621127924e-05,-0.0001622896961,-7.607841685e-05,-0.0005465681221,0.0003904209828,-0.0001561471393
1.4,-0.0004256124779,0.0002266611338,-0.0001989513441,0.0005243866183,-0.0004008211097,0.0001235655086,0.0008104847926,0.0001365993378,0.0009470841304,0.001001840579,6.15762694e-05,0.001063416848,0.0008783434172,-0.0003565667524,0.0005217766648,-0.0003181433444,0.0001663728399,-0.0001517705045,0.0004715087101,-8.433555634e-05,0.0003871731538,0.0005905244865,-0.000565085802,2.543868455e-05,0.001714019639,-0.0003268547896,0.00138716485,-0.000619944948,-0.0001187231194,-0.0007386680673,0.0008272893652,-0.000384928112,0.0004423612531,0.002807702825,0.0001197309512,0.002927433776,0.001768323739,9.345369162e-05,0.00186177743,0.003036814619,-0.0008198558049,0.002216958815,0.001592386616,-0.0005716832468,0.001020703369,0.001912070022,-0.0001584784508,0.001753591571,0.001377624805,-0.000405316283,0.0009723085217,0.0006655689639,-0.0002641128459,0.000401456118,0.0005785021029,-0.0004181930706,0.0001603090323,-0.000818377618,-0.0003433381502,-0.001161715768,0.0009792263483,-0.0004293256182,0.0005499007301,0.0003914391606,0.0002083819849,0.0005998211454,0.000680142779,-6.47603567e-05,0.0006153824224,0.0009688500064,-0.0001300793144,0.000838770692,0.004456374829,0.0007532459544,0.005209620784,0.001723585222,0.0004670941804,0.002190679403,0.004393488093,0.001057313912,0.005450802005,0.002136058243,-0.0001353070114,0.002000751232,0.001373155349,-5.120614837e-05,0.001321949201,0.0003739716313,-0.0001919639359,0.0001820076954,0.0008328156563,9.045966808e-05,0.0009232753244,-6.713212147e-05,0.0001318633643,6.473124286e-05,-0.0008618347493,-0.0001733722771,-0.001035207026,-0.001688747401,0.0001162219042,-0.001572525497,0.0001620867157,-0.0001763902522,-1.430353645e-05,-0.000464519728,0.0003816272445,-8.289248342e-05
1.5,-0.0003941552278,0.0002333886555,-0.0001607665723,0.0005699312885,-0.000393017815,0.0001769134736,0.0008351908637,0.0001369300678,0.0009721209315,0.001054567431,6.186790917e-05,0.00111643534,0.0009055282985,-0.0003624168728,0.0005431114256,-0.0002859512645,0.0001560713438,-0.0001298799207,0.00048168247,-8.666134441e-05,0.0003950211256,0.0005560148002,-0.0005583795471,-2.364746885e-06,0.001744786845,-0.0003330234738,0.001411763371,-0.0006086297979,-0.0001233003439,-0.0007319301418,0.0008555548969,-0.0003910158301,0.0004645390667,0.002829670362,0.0001091034997,0.002938773862,0.001791611917,0.0001036166448,0.001895228562,0.003043622536,-0.0008221179285,0.002221504608,0.001617798445,-0.0005827027434,0.001035095701,0.001920631209,-0.0001684634744,0.001752167734,0.001393685262,-0.0004262220498,0.0009674632118,0.000684654445,-0.0002723850789,0.0004122693662,0.000594199373,-0.0004234487576,0.0001707506155,-0.0007862684031,-0.0003482064938,-0.001134474897,0.001049243563,-0.000433119886,0.0006161236771,0.0004366243454,0.0002062229496,0.000642847295,0.0007134565092,-6.766980409e-05,0.0006457867051,0.001013039663,-0.0001498016961,0.0008632379672,0.004558053423,0.0007125536367,0.00527060706,0.001761871388,0.0004676195794,0.002229490968,0.004408786846,0.001059259797,0.005468046642,0.002145202859,-0.000132424323,0.002012778536,0.001373023063,-4.294369736e-05,0.001330079366,0.0004328707121,-0.0001967542337,0.0002361164784,0.0008393658565,9.912577548e-05,0.000938491632,-1.466277728e-05,0.0001575317556,0.0001428689783,-0.0007937194094,-0.0001523027574,-0.0009460221669,-0.00163733503,0.0001251328365,-0.001512202193,0.0002395853585,-0.0001902275098,4.935784873e-05,-0.0003792239866,0.0003726279649,-6.596021687e-06
1.6,-0.0003625790057,0.0002401666281,-0.0001224123776,0.0006164552128,-0.0003854369883,0.0002310182245,0.0008592485197,0.0001369593647,0.0009962078844,0.001106762574,6.195981967e-05,0.001168722393,0.0009328161854,-0.0003682122828,0.0005646039026,-0.00025204872,0.0001446669433,-0.0001073817766,0.0004924029121,-8.882634703e-05,0.000403576565,0.0005223135529,-0.0005517993962,-2.948584334e-05,0.001775607348,-0.0003391775077,0.001436429841,-0.0005959696117,-0.0001282263728,-0.0007241959845,0.0008834869795,-0.0003971382103,0.0004863487692,0.002850211702,9.753350724e-05,0.002947745209,0.001814101931,0.0001148675169,0.001928969448,0.003048597311,-0.0008238916792,0.002224705632,0.001643135214,-0.0005937709279,0.001049364286,0.001931016589,-0.0001790796566,0.001751936932,0.001409262058,-0.0004424010516,0.0009668610064,0.0007057550108,-0.0002805556768,0.0004251993339,0.0006109680031,-0.0004284827105,0.0001824852925,-0.0007535253781,-0.0003534114619,-0.00110693684,0.001117585653,-0.0004370089284,0.0006805767247,0.000479072497,0.0002072532233,0.0006863257203,0.0007470374887,-7.119659273e-05,0.000675840896,0.001056422005,-0.0001694593798,0.0008869626251,0.004660458144,0.0006695139277,0.005329972071,0.001801047473,0.000467482387,0.00226852986,0.00442380896,0.001060317409,0.005484126369,0.0021535471,-0.000128125505,0.002025421595,0.0013753733,-3.566902635e-05,0.001339704273,0.0004914160955,-0.0002012679184,0.0002901481771,0.0008471457838,0.0001079973736,0.0009551431574,3.861021616e-05,0.0001821350013,0.0002207452175,-0.0007220838285,-0.0001302766939,-0.0008523605224,-0.001579993972,0.0001328607385,-0.001447133233,0.0003180840898,-0.0002037667911,0.0001143172987,-0.0002917652996,0.0003639533738,7.218807419e-05
1.7,-0.0003310940383,0.0002469987639,-8.409527439e-05,0.000663659951,-0.00037817632,0.000285483631,0.0008825033568,0.0001367079627,0.001019211319,0.001158117144,6.186471634e-05,0.00121998186,0.0009600135191,-0.0003739547095,0.0005860588096,-0.000216784158,0.0001322247131,-8.455944489e-05,0.0005035347462,-9.084120552e-05,0.0004126935406,0.0004895976566,-0.0005454988189,-5.590116235e-05,0.00180635341,-0.0003452924618,0.001461060949,-0.0005821550991,-0.0001334607882,-0.0007156158873,0.0009109297899,-0.0004032861671,0.0005076436227,0.002869132346,8.506186925e-05,0.002954194215,0.001835761121,0.0001270409596,0.001962802081,0.003051835482,-0.0008252883176,0.002226547164,0.001668294455,-0.0006048625137,0.001063431941,0.001942996534,-0.0001902357235,0.001752760811,0.001424008788,-0.0004538560133,0.0009701527743,0.0007286287828,-0.0002886196099,0.0004400091729,0.0006286319567,-0.0004332939523,0.0001953380044,-0.0007204912919,-0.0003589181498,-0.001079409442,0.001183902714,-0.0004409862419,0.000742916472,0.0005181015639,0.0002118245893,0.0007299261532,0.0007806701623,-7.531932707e-05,0.0007053508353,0.001098636184,-0.0001888596644,0.0009097765194,0.004762975112,0.0006244671649,0.005387442276,0.001840871489,0.0004667023368,0.002307573826,0.004438347081,0.001060432557,0.005498779638,0.002161041247,-0.0001224266043,0.002038614643,0.001380043183,-2.940424961e-05,0.001350638933,0.0005491028715,-0.0002054057664,0.0003436971051,0.0008560242865,0.0001168859167,0.0009729102033,9.217028464e-05,0.0002054443255,0.0002976146102,-0.000648301143,-0.0001069701636,-0.0007552713066,-0.0015172362,0.0001393650796,-0.00137787112,0.0003969212743,-0.0002169571381,0.0001799641361,-0.0002032091397,0.0003561027236,0.0001528935839
1.8,-0.0002999117211,0.0002538893438,-4.602237731e-05,0.0007112175542,-0.0003713166267,0.0003399009275,0.0009047970373,0.0001361987854,0.001040995823,0.001208315129,6.159620094e-05,0.00126991133,0.000986917082,-0.0003796456035,0.0006072714786,-0.0001805322834,0.0001188275279,-6.170475554e-05,0.0005149364407,-9.272612889e-05,0.0004222103118,0.0004580026394,-0.0005395897378,-8.158709841e-05,0.001836886148,-0.0003513439532,0.001485542195,-0.0005673812466,-0.000138961163,-0.0007063424096,0.0009377235565,-0.0004094501585,0.000528273398,0.002886183027,7.177340647e-05,0.002957956434,0.001856544167,0.0001399609714,0.001996505139,0.003053428877,-0.0008264170175,0.00222701186,0.001693165999,-0.0006159464328,0.001077219566,0.001956308707,-0.000201833411,0.001754475296,0.001437654956,-0.0004606919861,0.0009769629703,0.0007530224547,-0.0002965765553,0.0004564458994,0.0006470099718,-0.0004378804333,0.0002091295385,-0.0006875230403,-0.0003646702503,-0.001052193291,0.00124785089,-0.0004450446709,0.000802806219,0.0005530274161,0.0002203001074,0.0007733275234,0.0008141307697,-8.001098185e-05,0.0007341197879,0.001139315138,-0.0002077969758,0.0009315181618,0.004864952749,0.0005777639931,0.005442716742,0.001881086414,0.0004652996057,0.002346386019,0.004452166398,0.001059554887,0.005511721286,0.002167646847,-0.0001153601013,0.002052286746,0.001386830647,-2.415209253e-05,0.001362678554,0.0006054042068,-0.0002090594963,0.0003963447105,0.000865865088,0.0001255911486,0.0009914562366,0.0001454786894,0.0002272403961,0.0003727190855,-0.0005738546956,-8.199348309e-05,-0.0006558481786,-0.001449632899,0.0001446262103,-0.001305006689,0.0004753972619,-0.0002297311428,0.0002456661191,-0.0001145754954,0.0003495250666,0.0002349495711
1.9,-0.0002692410874,0.0002608430221,-8.398065355e-06,0.0007587733054,-0.0003649197738,0.0003938535317,0.00092597024,0.0001354565366,0.001061426777,0.001257037285,6.116852093e-05,0.001318205806,0.001013317799,-0.0003852861035,0.0006280316951,-0.0001436877332,0.0001045741239,-3.911360932e-05,0.0005264634303,-9.451073544e-05,0.0004319526949,0.0004276261687,-0.0005341455076,-0.0001065193389,0.001867058722,-0.0003573080467,0.001509750675,-0.0005518437989,-0.0001446840364,-0.0006965278353,0.0009637076845,-0.000415620161,0.0005480875235,0.002901065712,5.780025029e-05,0.002958865962,0.001876395765,0.0001534438049,0.002029839569,0.003053460362,-0.0008273791785,0.002226081183,0.001717636012,-0.0006269865243,0.001090649488,0.001970667559,-0.0002137707122,0.001756896847,0.001449998768,-0.000463101233,0.0009868975351,0.0007786777224,-0.0003044308609,0.0004742468615,0.0006659133026,-0.0004422397112,0.0002236735914,-0.0006549880065,-0.000370589299,-0.001025577306,0.001309096266,-0.0004491765185,0.0008599197479,0.0005831827586,0.0002330346786,0.0008162174372,0.0008471916983,-8.523917611e-05,0.0007619525222,0.001178092292,-0.0002260549958,0.0009520372962,0.004965712693,0.0005297596976,0.005495472391,0.001921426595,0.0004632939713,0.002384720567,0.004465016652,0.001057642421,0.005522659073,0.002173340909,-0.0001069748633,0.002066366046,0.00139550165,-1.989953494e-05,0.001375602115,0.0006597780015,-0.0002121106955,0.0004476673059,0.0008765241042,0.0001339080411,0.001010432145,0.0001979814756,0.000247315105,0.0004452965806,-0.0005003004687,-5.490358835e-05,-0.0005552040571,-0.001377803036,0.000148644326,-0.00122915871,0.0005527777997,-0.0002420041434,0.0003107736563,-2.681525949e-05,0.0003446018668,0.0003177866073
2.0,-0.000239285137,0.000267864513,2.857937598e-05,0.0008059497084,-0.0003590277199,0.0004469219885,0.0009458658016,0.0001345072632,0.001080373065,0.001303965372,6.059643352e-05,0.001364561805,0.001039004493,-0.0003908770377,0.0006481274557,-0.0001066594625,8.957766498e-05,-1.70817975e-05,0.0005379712862,-9.623340733e-05,0.0004417378788,0.0003985324421,-0.0005292056074,-0.0001306731652,0.00189671929,-0.0003631616097,0.00153355768,-0.0005357360062,-0.0001505858672,-0.0006863218734,0.0009887237421,-0.0004217856402,0.0005669381019,0.00291344233,4.33227248e-05,0.002956765055,0.001895254411,0.0001673000785,0.00206255449,0.003051999322,-0.0008282630826,0.002223736239,0.001741591256,-0.0006379431026,0.001103648153,0.001985773069,-0.0002259441363,0.001759828933,0.001460894246,-0.0004613438333,0.0009995504128,0.0008053373618,-0.0003121912317,0.0004931461301,0.0006851457894,-0.0004463703221,0.0002387754673,-0.0006232594496,-0.0003765754088,-0.0009998348584,0.001367318678,-0.0004533738247,0.0009139448537,0.0006079392854,0.0002503466192,0.0008582859046,0.0008796254071,-9.09665325e-05,0.0007886588746,0.001214608471,-0.0002434097502,0.0009711987209,0.005064562353,0.0004808101293,0.005545372482,0.001961623446,0.0004607041483,0.002422327594,0.004476643227,0.001054667195,0.005531310422,0.002178120358,-9.733820661e-05,0.002080782151,0.001405797469,-1.662127828e-05,0.001389176191,0.0007116736211,-0.0002144295166,0.0004972441045,0.0008878461859,0.0001416347791,0.001029480965,0.0002491154686,0.0002654752498,0.0005145907184,-0.000429226564,-2.522232384e-05,-0.0004544488878,-0.001302399974,0.0001514375004,-0.001150962473,0.0006282992513,-0.0002536724998,0.0003746267515,5.920983057e-05,0.0003416318588,0.0004008416894
2.1,-0.0002102378618,0.0002749583256,6.472046377e-05,0.0008523506726,-0.0003536625922,0.0004986880803,0.0009643313044,0.0001333779268,0.001097709231,0.001348785898,5.989519821e-05,0.001408681097,0.001063766721,-0.0003964189113,0.0006673478094,-6.98663665e-05,7.396519655e-05,4.098830043e-06,0.0005493178851,-9.794005456e-05,0.0004513778305,0.0003707571217,-0.00052478235,-0.0001540252282,0.001925713141,-0.0003688826454,0.001556830496,-0.0005192461401,-0.0001566240369,-0.000675870177,0.001012617723,-0.0004279355684,0.0005846821542,0.002922944964,2.856691003e-05,0.002951511874,0.001913055776,0.0001813364591,0.002094392236,0.003049096662,-0.0008291394946,0.002219957168,0.001764922783,-0.000648775145,0.001116147638,0.002001317809,-0.0002382502689,0.00176306754,0.001470235466,-0.0004557291426,0.001014506324,0.0008327498416,-0.0003198702681,0.0005128795735,0.0007045050915,-0.0004502728651,0.0002542322263,-0.0005927112466,-0.0003825099609,-0.0009752212074,0.001422214742,-0.000457628716,0.0009645860256,0.0006267277246,0.000272486612,0.0008992143366,0.0009112073866,-9.715108299e-05,0.0008140563036,0.001248518552,-0.000259633694,0.0009888848584,0.005160806646,0.0004312686919,0.005592075338,0.002001409747,0.0004575469229,0.00245895667,0.004486793192,0.001050622395,0.005537415588,0.002182004707,-8.653877471e-05,0.002095465932,0.001417440963,-1.428266752e-05,0.001403158296,0.0007605387094,-0.0002158744568,0.0005446642526,0.0008996621552,0.0001485802051,0.00104824236,0.000298311893,0.000281548046,0.000579859939,-0.0003622141743,7.539329015e-06,-0.0003546748453,-0.001224096962,0.0001530380488,-0.001071058913,0.0007011747699,-0.0002646120049,0.000436562765,0.0001427415333,0.0003408202846,0.0004835618179
2.2,-0.0001822823552,0.0002821286574,9.984630215e-05,0.0008975652026,-0.0003488273922,0.0005487378104,0.0009812208154,0.0001320959855,0.001113316801,0.001391192958,5.90805853e-05,0.001450273543,0.00108739644,-0.0004019118835,0.0006854845567,-3.373341761e-05,5.787749848e-05,2.414408086e-05,0.0005603640968,-9.968234918e-05,0.0004606817477,0.0003443115779,-0.0005208681427,-0.0001765565649,0.001953883973,-0.000374450581,0.001579433393,-0.000502555956,-0.0001627578101,-0.0006653137661,0.001035241439,-0.0004340584708,0.000601182968,0.002929186933,1.379857217e-05,0.002942985505,0.001929734564,0.0001953575187,0.002125092082,0.003044780305,-0.0008300592868,0.002214721018,0.001787528571,-0.000659442551,0.00112808602,0.002016992643,-0.0002505873434,0.001766405299,0.001477942482,-0.0004466023643,0.001031340118,0.0008606717641,-0.0003274836085,0.0005331881556,0.0007237830537,-0.0004539495742,0.0002698334795,-0.000563712135,-0.0003882601673,-0.0009519723023,0.001473499811,-0.0004619335982,0.001011566213,0.0006390513543,0.0002996123916,0.0009386637459,0.0009417181448,-0.0001037467074,0.0008379714374,0.001279497354,-0.0002745003596,0.001004996994,0.005253757109,0.0003814841501,0.005635241259,0.002040522588,0.0004538360163,0.002494358604,0.0044952161,0.001045529601,0.005540745702,0.00218503612,-7.468864898e-05,0.002110347471,0.001430141518,-1.284218257e-05,0.001417299336,0.0008058265957,-0.0002162947849,0.0005895318108,0.0009117864101,0.000154569721,0.001066356131,0.0003449977629,0.0002953878825,0.0006403856454,-0.0003008013692,4.385404277e-05,-0.0002569473265,-0.001143573877,0.0001534883629,-0.0009900855137,0.0007706002293,-0.0002746768142,0.0004959234151,0.0002231306082,0.0003422751295,0.0005654057378
2.3,-0.0001555898482,0.0002893794145,0.0001337895663,0.0009411706024,-0.0003445070652,0.0005966635373,0.0009963959541,0.0001306889938,0.001127084948,0.001430890292,5.816877189e-05,0.001489059064,0.001109688912,-0.0004073557532,0.0007023331589,1.31261424e-06,4.146859513e-05,4.278120937e-05,0.0005709732508,-0.0001015156598,0.000469457591,0.0003191838041,-0.0005174400277,-0.0001982562236,0.001981074694,-0.0003798464602,0.001601228234,-0.000485839983,-0.000168949027,-0.00065478901,0.001056453307,-0.0004401424376,0.0006163108689,0.002931774198,-6.856000977e-07,0.002931088598,0.001945224564,0.0002091685177,0.002154393082,0.003039052305,-0.0008310534493,0.002207998856,0.001809314866,-0.0006699078662,0.001139407,0.002032492051,-0.0002628573704,0.00176963468,0.001483951233,-0.0004343364141,0.001049614819,0.0008888680926,-0.0003350483499,0.0005538197427,0.0007427638819,-0.0004574018279,0.000285362054,-0.0005366199271,-0.0003936847298,-0.0009303046569,0.001520909108,-0.0004662811249,0.001054627983,0.00064449358,0.0003317728516,0.0009762664316,0.000970944652,-0.0001107036351,0.000860241017,0.001307244752,-0.0002877892226,0.001019455529,0.00534273854,0.0003317989641,0.005674537504,0.002078705203,0.0004495809741,0.002528286177,0.004501661962,0.001039444007,0.005541105969,0.0021872774,-6.192376057e-05,0.002125353639,0.001443599113,-1.225354598e-05,0.001431345567,0.0008470046342,-0.0002155361603,0.0006314684739,0.0009240145781,0.0001594498033,0.001083464381,0.0003885967937,0.0003068831791,0.0006954799728,-0.0002464498938,8.415423223e-05,-0.0001622956616,-0.001061508341,0.0001528385456,-0.0009086697955,0.000835758166,-0.0002836974512,0.0005520607149,0.0002998326957,0.0003460108949,0.0006458435906
2.4,-0.0001303191436,0.0002967142919,0.0001663951483,0.0009827356143,-0.0003406696309,0.0006420659834,0.001009726833,0.0001291842621,0.001138911095,0.00146759307,5.71761025e-05,0.001524769172,0.001130443566,-0.0004127499296,0.0007176936367,3.484809821e-05,2.490461571e-05,5.975271393e-05,0.0005810101674,-0.0001034968452,0.0004775133222,0.000295335071,-0.0005144600326,-0.0002191249616,0.002007128407,-0.000385053043,0.001622075364,-0.0004692652015,-0.0001751624165,-0.000644427618,0.001076119057,-0.0004461750906,0.0006299439666,0.00293031665,-1.456761645e-05,0.002915749034,0.001959457361,0.0002225797384,0.0021820371,0.003031888267,-0.0008321348639,0.002199753404,0.001830196557,-0.0006801371658,0.001150059391,0.002047519865,-0.0002749688663,0.001772550999,0.001488207541,-0.0004193271352,0.001068880406,0.0009171108735,-0.0003425808924,0.0005745299812,0.0007612210647,-0.000460626437,0.0003005946277,-0.0005117761862,-0.0003986398127,-0.0009104159989,0.001564198627,-0.0004706640788,0.001093534548,0.0006427233317,0.0003689008147,0.001011624146,0.0009986819354,-0.0001179690318,0.0008807129036,0.001331490533,-0.0002992906625,0.00103219987,0.005427095301,0.0002825475491,0.00570964285,0.002115708424,0.0004447864227,0.002560494846,0.004505878821,0.001032456487,0.005538335309,0.002188808724,-4.840217915e-05,0.002140406545,0.001457508162,-1.246714045e-05,0.001445041021,0.0008835638245,-0.0002134489524,0.0006701148721,0.0009361208341,0.0001630919942,0.001099212828,0.0004285314657,0.0003159623009,0.0007444937666,-0.0002005171205,0.0001288173948,-7.169972568e-05,-0.0009785714509,0.0001511462131,-0.0008274252379,0.0008958199245,-0.0002914771672,0.0006043427573,0.000372397736,0.0003519580012,0.0007243557372
2.5,-0.0001066157755,0.000304136915,0.0001975211395,0.001021823943,-0.0003372668403,0.0006845571031,0.001021093568,0.0001276086084,0.001148702177,0.001501030076,5.611877492e-05,0.001557148851,0.001149465707,-0.000418093348,0.0007313723588,6.645805683e-05,8.361745577e-06,7.481980241e-05,0.0005903406393,-0.0001056819328,0.0004846587065,0.0002726945103,-0.0005118729788,-0.0002391784686,0.002031890244,-0.0003900548864,0.001641835358,-0.0004529904826,-0.0001813656546,-0.0006343561372,0.00109411299,-0.0004521435707,0.0006419694195,0.002924439505,-2.751744351e-05,0.002896922061,0.001972361055,0.0002354120367,0.002207773092,0.00302323947,-0.0008333010012,0.002189938469,0.001850097452,-0.000690100259,0.001159997193,0.002061795697,-0.000286839728,0.001774955969,0.00149066528,-0.000401990507,0.001088674773,0.0009451779552,-0.0003500950404,0.0005950829149,0.0007789158519,-0.0004636126287,0.0003153032232,-0.0004895011071,-0.000402985309,-0.0008924864161,0.001603146482,-0.0004750752861,0.001128071196,0.0006335006985,0.000410813021,0.001044313719,0.001024735446,-0.0001254876503,0.0008992477958,0.001351999282,-0.0003088107024,0.001043188579,0.005506199261,0.0002340545221,0.005740253783,0.002151292962,0.0004394517971,0.002590744759,0.004507611829,0.001024692804,0.005532304633,0.002189724104,-3.430035015e-05,0.002155423753,0.001471561618,-1.34305441e-05,0.001458131074,0.0009150299763,-0.0002098983287,0.0007051316476,0.0009478552392,0.0001653971386,0.001113252378,0.0004642264604,0.0003225984237,0.0007868248842,-0.0001642333213,0.0001781592747,1.392595347e-05,-0.0008954248103,0.0001484764589,-0.0007469483514,0.0009499490221,-0.0002977884869,0.0006521605352,0.0004404572424,0.0003599751413,0.0008004323837
2.6,-8.461035783e-05,0.0003116510451,0.0002270406873,0.00105799865,-0.0003342341557,0.000723764494,0.001030388849,0.0001259881807,0.001156377029,0.001530946818,5.50125093e-05,0.001585959327,0.001166569548,-0.0004233843431,0.0007431852053,9.574244482e-05,-7.977189138e-06,8.776525568e-05,0.0005988319301,-0.0001081237648,0.0004907081653,0.0002511543988,-0.0005096038979,-0.0002584494991,0.00205521022,-0.0003948384667,0.001660371753,-0.000437165424,-0.0001875293594,-0.0006246947834,0.001110320067,-0.0004580346109,0.0006522854561,0.00291379525,-3.920176389e-05,0.002874593486,0.001983860566,0.0002475022571,0.002231362823,0.003013037548,-0.0008345368913,0.002178500657,0.001868951022,-0.000699770479,0.001169180543,0.002075061799,-0.000298399565,0.001776662234,0.001491288927,-0.0003827609267,0.001108528001,0.0009728532455,-0.0003576012808,0.0006152519647,0.0007955997506,-0.0004663416283,0.0003292581223,-0.0004700879391,-0.000406591759,-0.0008766796981,0.001637554932,-0.0004795075061,0.001158047426,0.0006166831241,0.0004572154151,0.001073898539,0.001048924305,-0.000133202504,0.0009157218009,0.001368575086,-0.0003161751535,0.001052399933,0.005579459898,0.0001866338307,0.005766093729,0.002185233566,0.0004335713951,0.002618804961,0.00450660495,0.001016311221,0.005522916172,0.002190128672,-1.980794518e-05,0.002170320727,0.001485455469,-1.508844232e-05,0.001470367027,0.0009409753778,-0.0002047744316,0.0007362009462,0.0009589420299,0.000166299836,0.001125241866,0.00049511277,0.0003268140129,0.0008219267829,-0.0001386795477,0.0002324252793,9.374573167e-05,-0.0008127156659,0.0001448998013,-0.0006678158646,0.000997308571,-0.0003023724896,0.0006949360814,0.0005037115293,0.0003698624426,0.0008735739719
2.7,-6.44160627e-05,0.00031926074,0.0002548446773,0.001090827676,-0.0003314906506,0.0007593370259,0.001037521401,0.000124348295,0.001161869696,0.001557109546,5.387225176e-05,0.001610981798,0.001181582268,-0.000428620547,0.000752961721,0.0001223230131,-2.392744786e-05,9.839556521e-05,0.0006063542296,-0.000110869813,0.0004954844166,0.000230567689,-0.000507556791,-0.000276989102,0.002076946584,-0.0003993923112,0.001677554273,-0.0004219288497,-0.0001936270744,-0.0006155559241,0.001124638549,-0.0004638346691,0.0006608038803,0.002898075721,-4.929227807e-05,0.002848783443,0.001993879911,0.0002587073647,0.002252587275,0.003001200802,-0.0008358179303,0.002165382872,0.001886701178,-0.0007091241378,0.00117757704,0.002087089634,-0.0003095911444,0.001777498489,0.001490059662,-0.0003620893313,0.001127970331,0.0009999287098,-0.0003651073805,0.0006348213293,0.0008110209233,-0.0004687892715,0.0003422316518,-0.0004537971025,-0.0004093475525,-0.000863144655,0.001667252821,-0.0004839531924,0.001183299628,0.0005922316869,0.0005077110243,0.001099942711,0.001071084841,-0.0001410555552,0.0009300292859,0.001381065459,-0.0003212332357,0.001059832224,0.005646335805,0.0001405886626,0.005786924467,0.002217324932,0.0004271345124,0.002644459445,0.004502605234,0.001007499422,0.005510104656,0.002190137268,-5.122501549e-06,0.002185014766,0.001498893243,-1.738238661e-05,0.001481510857,0.0009610284563,-0.0001980002327,0.0007630282236,0.000969080064,0.0001657718683,0.001134851932,0.0005206321366,0.0003286852469,0.0008493173835,-0.0001247616384,0.0002917721622,0.0001670105238,-0.0007310698435,0.0001404870192,-0.0005905828243,0.001037073211,-0.0003049420043,0.0007321312068,0.0005619169034,0.0003813743323,0.0009432912357
2.8,-4.612575754e-05,0.0003269703155,0.0002808445579,0.001119890177,-0.0003289398397,0.000790950337,0.001042419564,0.0001227132756,0.00116513284,0.00157930944,5.271201092e-05,0.001632021451,0.001194348033,-0.0004337988618,0.0007605491715,0.0001458495424,-3.930749846e-05,0.000106542044,0.0006127824336,-0.0001139603497,0.0004988220838,0.0002107488061,-0.0005056169376,-0.0002948681315,0.002096968762,-0.0004037070643,0.001693261698,-0.0004074076336,-0.0001996351804,-0.000607042814,0.00113698245,-0.000469530049,0.0006674524006,0.002877022891,-5.747346634e-05,0.002819549425,0.002002345474,0.0002689069959,0.00227125247,0.002987640744,-0.0008371124276,0.002150528316,0.00190330235,-0.0007181398724,0.001185162477,0.002097685289,-0.0003203712672,0.001777314022,0.001486982417,-0.0003404400198,0.001146542398,0.00102620668,-0.0003726194951,0.0006535871849,0.0008249317262,-0.0004709302256,0.0003540015006,-0.0004408511054,-0.000411165226,-0.0008520163314,0.001692097882,-0.0004884041848,0.001203693697,0.0005602159408,0.0005618096028,0.001122025544,0.001091073524,-0.0001489884251,0.0009420850988,0.001389363926,-0.0003238611856,0.00106550274,0.005706346401,9.621015766e-05,0.005802556559,0.002247387876,0.0004201255359,0.002667513412,0.004495368793,0.000998469964,0.005493838757,0.00218987422,9.554364585e-06,0.002199428585,0.001511589819,-2.025077374e-05,0.001491339045,0.0009748794164,-0.0001895354831,0.0007853439334,0.0009779461644,0.0001638230894,0.001141769254,0.0005402424852,0.0003283452465,0.0008685877317,-0.0001231807265,0.0003562411139,0.0002330603874,-0.0006510842372,0.0001353012221,-0.0005157830151,0.001068444291,-0.0003051882801,0.0007632560108,0.0006148726136,0.000394232118,0.001009104732
2.9,-2.980957022e-05,0.0003347840646,0.0003049744943,0.001144782928,-0.0003264721328,0.0008183107948,0.001045034043,0.0001211063341,0.001166140377,0.001597365966,5.154493788e-05,0.001648910904,0.001204730934,-0.000438915477,0.000765815457,0.0001660040251,-5.394351534e-05,0.0001120605098,0.0006179974914,-0.0001174270388,0.0005005704526,0.0001914780426,-0.0005036577906,-0.0003121797479,0.002115159176,-0.0004077754602,0.001707383715,-0.0003937163399,-0.0002055327385,-0.0005992490784,0.001147283103,-0.0004751069845,0.0006721761187,0.002850437132,-6.345027572e-05,0.002786986857,0.002009189062,0.0002780044991,0.002287193561,0.002972267719,-0.0008383840683,0.002133883651,0.001918718787,-0.000726798393,0.001191920394,0.002106692959,-0.0003307114514,0.001775981507,0.001482090275,-0.0003182850988,0.001163805176,0.001051500714,-0.0003801426243,0.0006713580899,0.0008370943141,-0.0004727421171,0.000364352197,-0.0004314312024,-0.0004119859274,-0.0008434171298,0.001711978366,-0.0004928515005,0.001219126865,0.000520814969,0.0006189404553,0.001139755424,0.001108768617,-0.0001569431077,0.0009518255092,0.001393411185,-0.0003239663346,0.00106944485,0.005759082343,5.377313336e-05,0.005812855477,0.002275273934,0.0004125240854,0.00268779802,0.004484667424,0.0009894529054,0.00547412033,0.002189474213,2.40172485e-05,0.002213491461,0.001523273922,-2.36291789e-05,0.001499644743,0.0009822819272,-0.0001793771411,0.0008029047861,0.0009852007149,0.0001604997738,0.001145700489,0.0005534249285,0.0003259842254,0.0008794091538,-0.0001344046527,0.0004257295967,0.000291324944,-0.0005733208471,0.0001293894467,-0.0004439314004,0.001090666244,-0.0003027897733,0.0007878764704,0.0006624079844,0.0004081367157,0.0010705447
3.0,-1.551347099e-05,0.0003427058764,0.0003271924054,0.001165126264,-0.0003239689337,0.00084115733,0.00104533927,0.0001195495216,0.001164888791,0.001611128742,5.038365469e-05,0.001661512397,0.0012126163,-0.0004439658749,0.0007686504255,0.0001825026026,-6.767313168e-05,0.000114829471,0.0006218868576,-0.0001212919333,0.0005005949243,0.0001725081583,-0.0005015505576,-0.0003290423992,0.00213141374,-0.0004115922502,0.00171982149,-0.0003809578189,-0.0002113013259,-0.0005922591449,0.001155489541,-0.0004805517391,0.0006749378021,0.002818182523,-6.695642061e-05,0.002751226102,0.002014349987,0.0002859267554,0.002300276742,0.002954995045,-0.0008395944394,0.002115400605,0.001932923419,-0.0007350829486,0.001197840471,0.002113996018,-0.0003405983395,0.001773397679,0.001475443978,-0.0002960956668,0.001179348311,0.001075634255,-0.0003876797734,0.0006879544818,0.000847283239,-0.0004742091727,0.0003730740663,-0.0004256759714,-0.0004117819445,-0.0008374579159,0.001726813683,-0.0004972852877,0.001229528395,0.0004743134107,0.0006784682505,0.001152781661,0.001124070378,-0.0001648626456,0.0009592077325,0.001393195047,-0.000321491499,0.001071703548,0.005804212844,1.352927674e-05,0.00581774212,0.002300867423,0.0004043053092,0.002705172732,0.004470294275,0.0009806858248,0.0054509801,0.002189083845,3.805306073e-05,0.002227136906,0.001533689235,-2.745098376e-05,0.001506238252,0.0009830522002,-0.0001675576838,0.0008154945164,0.0009904938859,0.0001558817669,0.001146375653,0.0005596913999,0.0003218462591,0.000881537659,-0.0001586459597,0.0004999688542,0.0003413228945,-0.0004983038588,0.0001227768572,-0.0003755270016,0.001103041538,-0.0002974212459,0.0008056202916,0.0007043707277,0.0004227814768,0.001127152204
3.1,-3.259106131e-06,0.0003507389728,0.0003474798666,0.001180569278,-0.0003213078457,0.0008592614319,0.001043333339,0.0001180637307,0.00116139707,0.001620477869,4.924069159e-05,0.001669718561,0.001217910545,-0.0004489448297,0.0007689657155,0.0001950964488,-8.034917119e-05,0.0001147472776,0.0006243440647,-0.0001255669044,0.0004987771603,0.0001535711765,-0.0004991735335,-0.000345602357,0.0021456413,-0.0004151541139,0.001730487186,-0.0003692246272,-0.0002169248548,-0.000586149482,0.001161567726,-0.0004858507602,0.0006757169656,0.002780189432,-6.776307369e-05,0.002712426358,0.002017775721,0.0002926234564,0.002310399177,0.002935742019,-0.0008407056982,0.002095036321,0.00194589645,-0.0007429802533,0.001202916197,0.0021195157,-0.0003500336587,0.001769482041,0.001467127711,-0.0002743307133,0.001192796997,0.001098437537,-0.0003952301533,0.000703207384,0.0008552860169,-0.0004753258862,0.0003799601307,-0.0004236815392,-0.0004105575201,-0.0008342390593,0.001736553979,-0.0005016948406,0.001234859139,0.0004210929874,0.0007397092965,0.001160802284,0.001136900093,-0.0001726917332,0.0009642083593,0.001388749124,-0.0003164186289,0.001072330495,0.005841488273,-2.430012172e-05,0.005817188151,0.00232408496,0.0003954402937,0.002719525253,0.004452066811,0.0009724027616,0.005424469573,0.002188862952,5.143412669e-05,0.002240297079,0.001542594594,-3.164812798e-05,0.001510946466,0.0009770662957,-0.000154142108,0.0008229241876,0.0009934713262,0.0001500792407,0.001143550567,0.0005585916399,0.0003162239597,0.0008748155996,-0.000195849257,0.0005785089176,0.0003826596606,-0.0004265200804,0.0001154645867,-0.0003110554937,0.001104942159,-0.0002887617727,0.0008161803858,0.0007406178087,0.0004378644771,0.001178482286
3.2,6.955275868e-06,0.0003588858824,0.0003658411582,0.001190794393,-0.0003183682893,0.0008724261035,0.001039036872,0.0001166686865,0.001155705559,0.001625323171,4.812885948e-05,0.001673452031,0.001220540122,-0.0004538464446,0.0007666936776,0.0002035728307,-9.184376907e-05,0.0001117290617,0.0006252679704,-0.0001302536012,0.0004950143691,0.0001343850151,-0.0004964198123,-0.0003620347972,0.00215776256,-0.000418459533,0.001739303027,-0.0003586008185,-0.0002223893252,-0.0005809901437,0.001165499033,-0.0004909908612,0.0006745081714,0.002736455607,-6.568726885e-05,0.002670768339,0.002019421198,0.0002980662748,0.002317487472,0.002914436708,-0.0008416834174,0.002072753291,0.001957623765,-0.0007504812645,0.0012071425,0.002123207897,-0.0003590337641,0.001764174133,0.001457244808,-0.0002534272066,0.001203817601,0.00111974373,-0.0004027870939,0.0007169566358,0.0008609027515,-0.0004761004397,0.0003848023118,-0.0004255028777,-0.0004083482095,-0.0008338510872,0.001741178948,-0.0005060686015,0.001235110346,0.0003616212095,0.000801946453,0.001163567662,0.00114719857,-0.0001803772656,0.0009668213047,0.001380150247,-0.0003087704631,0.001071379784,0.005870737347,-5.952986508e-05,0.005811207482,0.002344873088,0.0003858965182,0.002730769606,0.0044298266,0.0009648229618,0.005394649561,0.002188984881,6.391052054e-05,0.002252895401,0.001549763741,-3.615159642e-05,0.001513612144,0.0009642558083,-0.0001392236674,0.000825032141,0.000993779105,0.0001432288442,0.001137007949,0.0005497199373,0.0003094517085,0.0008591716458,-0.0002456844395,0.0006607061756,0.0004150217361,-0.0003584213393,0.0001074299252,-0.000250991414,0.001095818352,-0.0002765024549,0.0008193158966,0.0007710097559,0.0004530995885,0.001224109344
3.3,1.515332906e-05,0.0003671486117,0.0003823019408,0.001195521647,-0.0003150369345,0.0008804847123,0.001032491463,0.0001153828971,0.00114787436,0.001625603019,4.70614895e-05,0.001672664509,0.001220450432,-0.0004586642377,0.0007617861945,0.000207756561,-0.0001020523659,0.0001057041952,0.000624562521,-0.0001353439623,0.0004892185588,0.0001146612065,-0.0004932033678,-0.0003785421612,0.002167709285,-0.000421508618,0.001746200667,-0.0003491633442,-0.0002276825714,-0.0005768459156,0.001167278604,-0.0004959593742,0.0006713192299,0.002687047801,-6.05998504e-05,0.002626447951,0.002019248002,0.0003022475074,0.002321495509,0.002891019384,-0.0008424995139,0.00204851987,0.001968095542,-0.0007575813357,0.001210514207,0.002125058985,-0.0003676288085,0.001757430177,0.001445916874,-0.0002337946537,0.00121212222,0.001139385231,-0.0004103358824,0.0007290493484,0.0008639449691,-0.0004765565014,0.0003873884677,-0.0004311552854,-0.0004052191404,-0.0008363744258,0.0017406965,-0.000510394256,0.001230302244,0.0002964394871,0.0008644424459,0.001160881933,0.001154924879,-0.0001878688713,0.0009670560078,0.001367514975,-0.0002986097316,0.001068905243,0.005891860079,-9.201402576e-05,0.005799846053,0.002363204949,0.0003756384814,0.00273884343,0.004403437649,0.0009581394704,0.005361577119,0.002189635721,7.52038146e-05,0.002264839536,0.001554985114,-4.089132672e-05,0.001514093788,0.000944602515,-0.0001229186399,0.0008216838751,0.0009910683504,0.0001354889793,0.00112655733,0.0005327226961,0.0003018971115,0.0008346198076,-0.0003075402627,0.0007457080766,0.0004381678139,-0.0002944264564,9.862800859e-05,-0.0001957984478,0.00107520787,-0.0002603563481,0.0008148515219,0.0007954074344,0.0004682264492,0.001263633884
3.4,2.137919854e-05,0.0003755289163,0.0003969081148,0.001194512954,-0.0003112124096,0.0008833005447,0.001023758361,0.0001142235792,0.00113798194,0.001621283374,4.605257903e-05,0.001667335953,0.001217605415,-0.0004633912265,0.0007542141882,0.0002075113464,-0.0001108967507,9.661459562e-05,0.0006221376587,-0.0001408211697,0.000481316489,9.411449217e-05,-0.0004894635553,-0.0003953490631,0.002175424305,-0.0004243029567,0.001751121348,-0.0003409824061,-0.0002327941718,-0.0005737765779,0.001166914179,-0.0005007442838,0.000666169895,0.002632104994,-5.243272223e-05,0.002579672272,0.002017225164,0.0003051775848,0.002322402748,0.002865447087,-0.0008431350467,0.00202231204,0.001977305681,-0.0007642796733,0.001213026008,0.002125081622,-0.000375861449,0.001749220173,0.001433287158,-0.0002158139881,0.00121747317,0.001157190998,-0.0004178515116,0.0007393394866,0.0008642343894,-0.0004767328956,0.0003875014939,-0.0004406154349,-0.0004012623819,-0.0008418778168,0.001735141926,-0.0005146590815,0.001220482844,0.0002261513664,0.0009264526387,0.001152604005,0.001160055825,-0.000195119443,0.0009649363825,0.001350995667,-0.0002860362498,0.001064959417,0.005904819683,-0.0001216468582,0.005783172824,0.002379076968,0.0003646288987,0.002743705867,0.004372786371,0.0009525077899,0.005325294161,0.002191013101,8.500389178e-05,0.002276016993,0.001558062488,-4.579603535e-05,0.001512266452,0.0009181328522,-0.0001053606568,0.0008127721954,0.0009850004478,0.0001270344945,0.001112034942,0.0005073069322,0.000293950219,0.0008012571511,-0.0003805194033,0.0008324389664,0.0004519195631,-0.0002349213651,8.89962382e-05,-0.0001459251269,0.001042747978,-0.0002400715271,0.0008026764513,0.0008136691752,0.0004830200246,0.0012966892
3.5,2.56965683e-05,0.0003840286254,0.0004097251936,0.001187576311,-0.000306808802,0.0008807675095,0.001012917711,0.000113206565,0.001126124276,0.00161235743,4.511686518e-05,0.001657474296,0.001211988021,-0.0004680199908,0.0007439680297,0.000202740706,-0.0001183267949,8.441391108e-05,0.0006179113328,-0.000146660906,0.0004712504268,7.24735913e-05,-0.0004851681138,-0.0004126945226,0.002180862262,-0.0004268455684,0.001754016694,-0.0003341207571,-0.0002377156634,-0.0005718364205,0.001164425567,-0.0005053344036,0.0006590911634,0.002571842309,-4.11847083e-05,0.002530657601,0.002013332211,0.0003068815615,0.002320213772,0.002837698829,-0.0008435825194,0.00199411631,0.001985252132,-0.0007705783692,0.001214673762,0.002123311056,-0.0003837848651,0.001739526191,0.001419525894,-0.0001998377045,0.001219688189,0.001172985748,-0.0004252967238,0.0007476890246,0.0008616038085,-0.0004766825237,0.0003849212848,-0.0004538222047,-0.0003965933653,-0.00085041557,0.001724577602,-0.0005188505218,0.00120572708,0.0001514092636,0.0009872389864,0.00113864825,0.001162586067,-0.000202085639,0.0009605004279,0.001330776076,-0.0002711823327,0.001059593744,0.005909636803,-0.0001483622686,0.005761274534,0.002392506121,0.000352830824,0.002745336945,0.004337785488,0.0009480352058,0.005285820694,0.002193324519,9.296986599e-05,0.002286294385,0.001558817261,-5.07940521e-05,0.001508023209,0.0008849122415,-8.669453311e-05,0.0007982177084,0.0009752532666,0.0001180516754,0.001093304942,0.0004732497768,0.00028600972,0.0007592594968,-0.000463442287,0.00091959774,0.000456155453,-0.0001802585007,7.846349554e-05,-0.0001017950052,0.0009981889182,-0.000215445332,0.0007827435862,0.0008256480501,0.0004972991697,0.00132294722
3.6,2.818801591e-05,0.0003926499834,0.0004208379993,0.001174569605,-0.0003017578844,0.0008728117206,0.001000068024,0.000112346164,0.001112414188,0.001598845709,4.426976215e-05,0.001643115472,0.001203601007,-0.0004725427761,0.0007310582309,0.0001933886424,-0.0001243211727,6.906746964e-05,0.0006118119055,-0.0001528327568,0.0004589791487,4.949145106e-05,-0.0004803146616,-0.0004308232105,0.002183990441,-0.00042914095,0.001754849491,-0.00032863265,-0.0002424409937,-0.0005710736437,0.001159844391,-0.0005097196133,0.000650124778,0.002506553459,-2.692541404e-05,0.002479628045,0.002007563488,0.0003073953255,0.002314958813,0.002807780056,-0.0008438472093,0.001963932846,0.001991937488,-0.0007764813543,0.001215456134,0.002119801732,-0.0003914599909,0.001728341741,0.001404834209,-0.0001861891413,0.001218645068,0.001186591291,-0.0004326211273,0.000753970164,0.0008559014306,-0.0004764718533,0.0003794295773,-0.0004706780064,-0.0003913464584,-0.0008620244648,0.001709092741,-0.0005229567541,0.001186135987,7.28986803e-05,0.001046084967,0.001118983647,0.001162528195,-0.0002087283151,0.0009537998803,0.001307066076,-0.0002542069056,0.00105285917,0.005906387394,-0.0001721328754,0.005734254519,0.002403527387,0.0003402106467,0.002743738034,0.004298381662,0.0009447716318,0.005243153294,0.00219678404,9.873531375e-05,0.002295519354,0.001557092123,-5.581559202e-05,0.001501276531,0.0008450389797,-6.70695264e-05,0.0007779694533,0.0009615277267,0.0001087342632,0.00107026199,0.0004304097416,0.0002784652951,0.0007088750366,-0.0005548661335,0.001005673719,0.0004508075851,-0.0001307583396,6.696455175e-05,-6.37937879e-05,0.0009414051483,-0.0001863368924,0.0007550682559,0.0008311915687,0.0005109318095,0.001342123378
3.7,2.895419581e-05,0.0004013959161,0.0004303501119,0.001155403628,-0.0002960106021,0.0008593930263,0.0009853252528,0.0001116549655,0.001096980218,0.001580796031,4.352709188e-05,0.001624323123,0.001192467136,-0.000476951706,0.0007155154303,0.0001794401871,-0.000128887471,5.055271616e-05,0.0006037800236,-0.0001593015965,0.0004444784271,2.495270721e-05,-0.0004749296272,-0.00044997692,0.002184788917,-0.0004311951071,0.001753593809,-0.0003245632892,-0.0002469669347,-0.0005715302239,0.001153213481,-0.0005138910713,0.0006393224097,0.002436609323,-9.796358191e-06,0.002426812965,0.001999931986,0.0003067623401,0.002306694326,0.002775725191,-0.000843947471,0.00193177772,0.001997369014,-0.0007819935276,0.001215375487,0.002114623632,-0.000398952307,0.001715671325,0.00138944482,-0.0001751618089,0.001214283011,0.001197829464,-0.0004397620785,0.000758067385,0.0008469974048,-0.0004761806928,0.000370816712,-0.00049105113,-0.0003856700271,-0.0008767211571,0.001688802599,-0.0005269670655,0.001161835534,-8.678505905e-06,0.001102308286,0.00109362978,0.001159912131,-0.0002150128624,0.0009448992681,0.001280095384,-0.0002352888655,0.001044806518,0.005895202872,-0.0001929697142,0.005702233157,0.00241219038,0.0003267415122,0.002738931892,0.004254564054,0.0009427032919,0.005197267346,0.002201606072,0.0001019170167,0.002303523089,0.001552754618,-6.07958272e-05,0.001491958791,0.0007986384048,-4.663304504e-05,0.0007520053597,0.0009435531908,9.928028306e-05,0.001042833474,0.0003787394614,0.0002716769461,0.0006504164076,-0.0006531229924,0.001088983054,0.0004358600616,-8.671491411e-05,5.445721569e-05,-3.225769842e-05,0.000872401533,-0.000152676535,0.000719724998,0.0008301453162,0.0005238346967,0.001353980013
3.8,2.811246651e-05,0.0004102701532,0.0004383826197,0.00113004388,-0.0002895383142,0.0008405055658,0.0009688209699,0.0001111436351,0.001079964605,0.001558282825,4.290462059e-05,0.001601187446,0.001178628165,-0.0004812390814,0.0006973890834,0.0001609210465,-0.0001320613351,2.885971139e-05,0.0005937692725,-0.0001660288802,0.0004277403923,-1.323676488e-06,-0.0004690633206,-0.0004703869971,0.002183249687,-0.0004330154891,0.001750234198,-0.0003219492477,-0.0002512931579,-0.0005732424056,0.001144585545,-0.0005178413073,0.0006267442378,0.002362451268,9.991360715e-06,0.002372442628,0.001990471236,0.0003050313858,0.002295502622,0.002741598354,-0.0008439147843,0.00189768357,0.002001557791,-0.0007871202264,0.001214437565,0.00210785818,-0.000406328818,0.001701529362,0.001373619915,-0.0001670201689,0.001206599746,0.001206525766,-0.0004466475117,0.0007598782539,0.00083479037,-0.0004759014121,0.0003588889579,-0.0005147794786,-0.0003797210652,-0.0008945005438,0.001663846935,-0.0005308720986,0.001132974837,-9.261957884e-05,0.001155268383,0.001062648805,0.001154783551,-0.0002209094359,0.0009338741146,0.001250106563,-0.0002146201413,0.001035486422,0.005876269655,-0.0002109226862,0.005665346969,0.002418554476,0.0003124066221,0.002730961098,0.004206370417,0.0009417507969,0.005148121214,0.002207996346,0.0001021257324,0.002310122078,0.001545699117,-6.567776882e-05,0.001480021348,0.0007458585122,-2.552630858e-05,0.0007203322036,0.0009210903567,8.98890922e-05,0.001010979449,0.0003182973822,0.0002659543131,0.0005842516952,-0.0007563777187,0.001167728375,0.0004113506562,-4.840444675e-05,4.09384289e-05,-7.466017854e-06,0.0007913148031,-0.0001144727303,0.0006768420728,0.0008223594206,0.0005359675917,0.001358327012
3.9,2.579485301e-05,0.0004192772804,0.0004450721334,0.001098510451,-0.000282333427,0.0008161770238,0.0009506995874,0.0001108207873,0.001061520375,0.001531405573,4.241749201e-05,0.001573823065,0.001162142607,-0.0004853976626,0.0006767449442,0.0001378950293,-0.0001339037584,3.991270877e-06,0.0005817453281,-0.0001729738296,0.0004087714984,-2.948639004e-05,-0.0004627821261,-0.0004922685162,0.002179374955,-0.0004346108566,0.001744764099,-0.0003208197806,-0.0002554218724,-0.0005762416531,0.001134021167,-0.0005215641958,0.0006124569715,0.002284579646,3.216268563e-05,0.002316742332,0.001979234799,0.0003022552382,0.002281490037,0.002705493144,-0.0008437944472,0.001861698697,0.00200451733,-0.0007918670835,0.001212650246,0.002099593932,-0.0004136556906,0.001685938242,0.001357646269,-0.0001620006372,0.001195645632,0.001212513026,-0.000453200205,0.0007593128213,0.0008192128526,-0.0004757373557,0.000343475497,-0.0005416760965,-0.000373659175,-0.0009153352715,0.001634387909,-0.0005346641358,0.001099723773,-0.0001782356989,0.001204370439,0.00102613474,0.001147201538,-0.0002263930512,0.0009208084865,0.001217347937,-0.0001923987185,0.001024949219,0.005849825717,-0.0002260807022,0.005623745015,0.002422682601,0.0002972021666,0.002719884768,0.004153888784,0.0009417722533,0.005095661037,0.002216141537,9.897753226e-05,0.002315119069,0.001535846464,-7.041415991e-05,0.001465432304,0.0006868672249,-3.882299003e-06,0.0006829849259,0.0008939317355,8.075851757e-05,0.0009746902531,0.0002492551362,0.0002615395751,0.0005107947113,-0.0008627025192,0.001240080811,0.0003773782922,-1.609429865e-05,2.645632235e-05,1.03620237e-05,0.0006984126907,-7.181730035e-05,0.0006265953904,0.000807696697,0.0005473224934,0.00135501919
4.0,2.214548798e-05,0.0004284228863,0.0004505683743,0.001060875324,-0.000274408474,0.0007864668502,0.000931114983,0.0001106929703,0.001041807953,0.00150028651,4.207965366e-05,0.001542366163,0.001143082771,-0.0004894208649,0.0006536619058,0.0001104590103,-0.0001344963743,-2.403736399e-05,0.0005676837915,-0.000180094402,0.0003875893895,-5.965553214e-05,-0.0004561608315,-0.0005158163637,0.002173175091,-0.0004359911426,0.001737183948,-0.0003211986019,-0.0002593571311,-0.000580555733,0.001121586533,-0.0005250548864,0.0005965316469,0.002203539102,5.638675963e-05,0.002259925862,0.001966293821,0.0002984900374,0.002264783859,0.002667532314,-0.0008436469535,0.00182388536,0.002006262299,-0.0007962401088,0.00121002219,0.002089922465,-0.0004209967339,0.001668925731,0.001341825665,-0.0001603095413,0.001181516123,0.001215635033,-0.0004593426171,0.0007562924159,0.0008002351547,-0.0004758004889,0.0003244346658,-0.0005715365222,-0.0003676396517,-0.000939176174,0.001600607733,-0.0005383374161,0.001062270317,-0.0002648687318,0.001249072729,0.0009842039968,0.001137235971,-0.0002314435267,0.0009057924439,0.001182067659,-0.0001688222672,0.001013245392,0.005816153836,-0.00023857081,0.005577583026,0.002424634542,0.0002811399418,0.002705774484,0.004097254955,0.0009425702304,0.005039825186,0.002226199417,9.210518665e-05,0.002318304603,0.001523141555,-7.496793115e-05,0.001448173624,0.000621850348,1.817531698e-05,0.000640025665,0.0008619013654,7.208209338e-05,0.0009339834588,0.000171899235,0.0002585960954,0.0004304953304,-0.0009701620318,0.001304276068,0.000334114036,9.950787001e-06,1.111662951e-05,2.106741651e-05,0.0005940928856,-2.488868594e-05,0.0005692041997,0.0007860434767,0.0005579082791,0.001343951756
4.1,1.731794883e-05,0.0004377138641,0.0004550318129,0.001017257506,-0.0002657933616,0.0007514641446,0.000910227149,0.0001107647284,0.001020991877,0.001465068091,4.190331584e-05,0.001506971407,0.001121531918,-0.0004933028895,0.000628229028,7.873676724e-05,-0.0001339357329,-5.519896561e-05,0.0005515674189,-0.0001873477875,0.0003642196314,-9.192557434e-05,-0.000449276731,-0.0005412023053,0.002164667057,-0.0004371673215,0.001727499735,-0.0003231055087,-0.0002631039257,-0.0005862094345,0.001107351519,-0.0005283097343,0.0005790417843,0.00211990267,8.228727869e-05,0.002202189949,0.001951733724,0.0002937953555,0.002245529079,0.002627867682,-0.0008435492176,0.001784318465,0.002006808033,-0.0008002457619,0.001206562271,0.002078934929,-0.0004284126526,0.001650522277,0.001326459452,-0.0001621162727,0.00116434318,0.001215750561,-0.0004650016323,0.000750748929,0.0007778672977,-0.0004762081493,0.0003016591484,-0.0006041472326,-0.0003618056638,-0.0009659528964,0.001562706519,-0.0005418883073,0.001020818212,-0.0003519126068,0.001288903686,0.0009369910794,0.001124965414,-0.0002360452886,0.0008889201255,0.001144510437,-0.0001440833542,0.001000427083,0.005775573361,-0.0002485564972,0.005527016864,0.002424461478,0.0002642493883,0.002688710867,0.004036647499,0.0009439004126,0.004980547912,0.002238291104,8.117012172e-05,0.002319461226,0.001507550036,-7.931132546e-05,0.001428238711,0.0005510093144,4.053397973e-05,0.0005915432942,0.000824855222,6.404640679e-05,0.0008889016288,8.662833264e-05,0.0002572029298,0.0003438312625,-0.001076900103,0.001358709923,0.00028180982,2.946676201e-05,-4.91682736e-06,2.454993465e-05,0.0004788831526,2.604631277e-05,0.0005049294653,0.0007573240628,0.0005677320568,0.00132505612
4.2,1.147314028e-05,0.0004471587447,0.000458631885,0.0009678179266,-0.0002565317871,0.0007112861395,0.0008881995962,0.0001110386867,0.0009992382828,0.001425910914,4.189844288e-05,0.001467809357,0.00109758245,-0.0004970388351,0.0006005436152,4.287308814e-05,-0.0001323275755,-8.945448732e-05,0.000533383751,-0.0001946902514,0.0003386934996,-0.0001263675974,-0.0004422044257,-0.0005685720232,0.002153874008,-0.0004381512571,0.001715722751,-0.0003265572235,-0.0002666671556,-0.0005932243791,0.001091388764,-0.0005313262203,0.0005600625439,0.002034257055,0.0001094546845,0.00214371174,0.00193565131,0.0002882349884,0.002223886299,0.002586680272,-0.0008435946375,0.001743085635,0.002006171394,-0.0008038910412,0.001202280353,0.002066719862,-0.0004359608364,0.001630759026,0.001311829664,-0.0001675433587,0.001144286305,0.001212738158,-0.0004701128083,0.0007426253494,0.000752158645,-0.0004770786337,0.0002750800114,-0.0006392937122,-0.0003562804475,-0.0009955741597,0.001520900823,-0.0005453152556,0.0009755855674,-0.0004388380209,0.001323488261,0.0008846502406,0.001110476176,-0.0002401871042,0.0008702890718,0.001104917438,-0.0001183665676,0.0009865508699,0.005728433192,-0.0002562350583,0.005472198134,0.002422203742,0.000246578254,0.002668781996,0.003972282774,0.0009454802742,0.004917763048,0.002252496417,6.587523585e-05,0.002318371653,0.001489055652,-8.342437415e-05,0.001405631278,0.0004745590755,6.309518539e-05,0.0005376542609,0.000782682524,5.682860945e-05,0.0008395111334,-6.052327638e-06,0.0002573546832,0.0002513023556,-0.001181213887,0.001402014596,0.0002208007097,4.219225375e-05,-2.142631448e-05,2.076593927e-05,0.0003534425134,8.063185136e-05,0.0004340743648,0.0007215169787,0.000576780567,0.001298297546
4.3,4.778259783e-06,0.0004567679003,0.0004615461601,0.0009127561522,-0.0002466781345,0.0006660780177,0.0008651980102,0.0001115156403,0.0009767136505,0.00138299262,4.207230506e-05,0.001425064925,0.001071335615,-0.000500624799,0.0005707108155,3.028498355e-06,-0.0001297814672,-0.0001267529689,0.0005131239078,-0.0002020764325,0.0003110474753,-0.000163031857,-0.0004350101444,-0.0005980420014,0.002140826294,-0.0004389555407,0.001701870754,-0.000331567107,-0.0002700506345,-0.0006016177415,0.001073774016,-0.0005341028549,0.000539671161,0.001947191335,0.0001374590448,0.002084650379,0.001918153109,0.0002818781239,0.002200031233,0.002544180231,-0.0008438914338,0.001700288797,0.002004373174,-0.0008071838097,0.001197189365,0.002053362442,-0.0004436952222,0.00160966722,0.001298180807,-0.0001766565299,0.001121524277,0.001206501657,-0.0004746237813,0.0007318778754,0.0007231950309,-0.0004785253937,0.0002446696372,-0.0006767665685,-0.0003511613209,-0.001027927889,0.001475423231,-0.0005486186481,0.0009268045828,-0.0005252161318,0.001352576927,0.0008273607953,0.001093862673,-0.0002438618217,0.0008500008514,0.001063528352,-9.184689335e-05,0.0009716814588,0.00567510797,-0.0002618331007,0.00541327487,0.002417892889,0.0002281912612,0.00264608415,0.003904412473,0.0009469971085,0.004851409581,0.002268852226,4.597762019e-05,0.002314829846,0.001467659087,-8.729346321e-05,0.001380365624,0.0003927272481,8.577764886e-05,0.0004785048969,0.00073530796,5.059355435e-05,0.0007859015143,-0.0001055397964,0.0002589669615,0.000153427165,-0.001281602158,0.001433101798,0.0001514996408,4.787283677e-05,-3.814680116e-05,9.726035604e-06,0.0002185608804,0.0001384250935,0.0003569859739,0.0006786691614,0.0005850059603,0.001263675122
4.4,-2.593201298e-06,0.0004665535752,0.0004639603739,0.0008523092802,-0.0002362952341,0.0006160140461,0.0008413900509,0.0001121946565,0.0009535847073,0.001336507772,4.242916336e-05,0.001378936935,0.001042902335,-0.0005040579591,0.0005388443756,-4.062528095e-05,-0.0001264061134,-0.0001670313944,0.0004907825985,-0.0002094584569,0.0002813241416,-0.0002019502499,-0.0004277464277,-0.0006296966775,0.002125563249,-0.00043959336,0.001685969889,-0.0003381439931,-0.0002732563875,-0.0006114003807,0.001054587398,-0.0005366391218,0.0005179482761,0.001859289689,0.0001658620972,0.002025151786,0.001899354494,0.000274800359,0.002174154853,0.002500605625,-0.0008445592447,0.001656046381,0.002001441171,-0.0008101333984,0.001191307773,0.002038944605,-0.0004516656728,0.001587278932,0.001285704341,-0.000189455734,0.001096248607,0.001196975915,-0.0004784966299,0.0007184792848,0.0006910931341,-0.0004806499597,0.0002104431744,-0.0007163650837,-0.0003465166785,-0.001062881762,0.001426522727,-0.0005518007305,0.0008747219963,-0.0006107366335,0.001376069561,0.0007653329274,0.001075228509,-0.0002470661347,0.000828162374,0.001020583864,-6.468859132e-05,0.0009558952727,0.005615997211,-0.0002655992946,0.005350397916,0.002411557196,0.0002091671087,0.002620724305,0.003833324543,0.0009481153565,0.0047814399,0.002287352968,2.129944895e-05,0.002308652416,0.001443377629,-9.091015641e-05,0.001352467473,0.0003057552674,0.0001085190832,0.0004142743506,0.0006826950755,4.548970949e-05,0.000728184785,-0.0002111475824,0.000261887573,5.073999058e-05,-0.001376789434,0.001451174739,7.438530492e-05,4.626643011e-05,-5.477358458e-05,-8.507154472e-06,7.515419869e-05,0.0001989027225,0.0002740569212,0.0006289044573,0.000592319391,0.001221223848
4.5,-1.046110417e-05,0.0004765298248,0.0004660687207,0.0007867517181,-0.0002254525717,0.0005612991464,0.0008169455831,0.0001130731797,0.0009300187627,0.00128666803,4.297014061e-05,0.001329638171,0.001012404135,-0.0005073366532,0.0005050674822,-8.790860288e-05,-0.0001223061317,-0.0002102147345,0.0004663587449,-0.0002167852219,0.0002495735231,-0.0002431372343,-0.0004204487483,-0.0006635859827,0.002108134754,-0.0004400783953,0.001668056359,-0.0003462908802,-0.0002762843939,-0.0006225752742,0.001033914845,-0.0005389355027,0.000494979342,0.00177112641,0.0001942277144,0.001965354125,0.001879378227,0.0002670842507,0.002146462478,0.002456218994,-0.0008457242403,0.001610494754,0.001997412533,-0.0008127512076,0.001184661326,0.002023545112,-0.0004599167783,0.001563628334,0.001274525074,-0.0002058662693,0.001068658804,0.001184131523,-0.0004817091312,0.0007024223915,0.0006559922825,-0.0004835344206,0.0001724578619,-0.0007578988122,-0.00034238569,-0.001100284502,0.001374465064,-0.0005548655027,0.000819599561,-0.0006952175411,0.001394028851,0.0006988113096,0.00105468731,-0.0002498003414,0.0008048869685,0.0009763272531,-3.704451137e-05,0.0009392827418,0.005551524006,-0.0002677938792,0.005283730127,0.002403228231,0.0001895948149,0.002592823046,0.003759345895,0.0009484835093,0.004707829405,0.002307952602,-8.264486928e-06,0.002299688115,0.001416244264,-9.426986995e-05,0.001321974394,0.0002139020367,0.0001312747758,0.0003451768125,0.0006248501969,4.164417486e-05,0.0006664943718,-0.0003221258576,0.0002659120027,-5.621385491e-05,-0.001465740576,0.001455725493,-1.001508306e-05,3.714990761e-05,-7.097119466e-05,-3.382128705e-05,-7.574514434e-05,0.0002614704052,0.0001857252608,0.000572424728,0.0005985933395,0.001171018068
4.6,-1.863876497e-05,0.0004867124338,0.0004680736688,0.0007163943552,-0.0002142246791,0.000502169676,0.0007920365045,0.000114147106,0.0009061836105,0.00123370184,4.369325455e-05,0.001277395094,0.0009799731084,-0.0005104605005,0.0004695126079,-0.0001386357375,-0.0001175808896,-0.0002562166271,0.0004398558757,-0.000224001967,0.0002158539087,-0.0002865887273,-0.00041313453,-0.0006997232573,0.002088601771,-0.0004404246856,0.001648177086,-0.0003560042326,-0.0002791326854,-0.000635136918,0.00101184894,-0.000540993543,0.000470855397,0.001683260368,0.0002221312747,0.001905391643,0.001858351616,0.0002588192259,0.002117170842,0.002411301171,-0.0008475132281,0.001563787943,0.00199233431,-0.000815050897,0.001177283412,0.002007239096,-0.0004684867433,0.001538752352,0.001264689225,-0.0002257317562,0.001038957469,0.001167977076,-0.000484254862,0.0006837222144,0.0006180452955,-0.0004872351161,0.0001308101794,-0.0008011879743,-0.0003387800572,-0.001139968031,0.00131953236,-0.0005578184247,0.0007617139351,-0.0007786064388,0.001406681407,0.0006280749684,0.001032362616,-0.0002520680775,0.0007802945382,0.0009310050538,-9.056298953e-06,0.0009219487548,0.005482128908,-0.0002686748719,0.005213454037,0.002392946153,0.0001695701584,0.002562516312,0.003682843638,0.0009477414009,0.004630585039,0.002330567528,-4.274314835e-05,0.00228782438,0.001386305192,-9.736996574e-05,0.001288935226,0.0001174503796,0.0001540118253,0.0002714622049,0.0005618253723,3.915820344e-05,0.0006009835757,-0.0004376854971,0.0002708000663,-0.0001668854309,-0.001547676114,0.001446530893,-0.0001011452211,2.032709338e-05,-8.638399722e-05,-6.605690385e-05,-0.0002330016698,0.0003254730091,9.24713393e-05,0.0005095051059,0.0006036701994,0.001113175305
4.7,-2.693393792e-05,0.0004971188099,0.000470184872,0.0006415823853,-0.0002026898663,0.000438892519,0.0007668356824,0.000115410821,0.0008822465034,0.001177853109,4.459353737e-05,0.001222446646,0.0009457504468,-0.0005134305615,0.0004323198853,-0.0001926160896,-0.0001123251637,-0.0003049412533,0.0004112816615,-0.0002310500372,0.0001802316243,-0.0003322801431,-0.0004058040078,-0.0007380841509,0.00206703559,-0.0004406464039,0.001626389186,-0.000367274296,-0.0002817975609,-0.000649071857,0.0009884887762,-0.0005428158709,0.0004456729053,0.001596227291,0.0002491686025,0.001845395894,0.001836402553,0.0002501006516,0.002086503205,0.002366142999,-0.0008500475933,0.001516095405,0.001986262047,-0.0008170479364,0.00116921411,0.001990097092,-0.0004774072177,0.001512689874,0.001256156229,-0.0002488139408,0.001007342288,0.001148558681,-0.0004861425473,0.0006624161334,0.0005774108457,-0.0004917795978,8.563124787e-05,-0.0008460628678,-0.0003356876529,-0.001181750521,0.001262021624,-0.0005606659408,0.0007013556832,-0.0008609742658,0.001414407698,0.0005534334318,0.001008386644,-0.0002538760491,0.0007545105946,0.0008848673566,1.914428639e-05,0.000904011643,0.005408257578,-0.0002684821894,0.005139775389,0.002380762553,0.0001491924368,0.00252995499,0.003604221901,0.0009455290671,0.004549750968,0.002355079602,-8.208874249e-05,0.00227299086,0.001353615708,-0.0001002073175,0.00125340839,1.671518808e-05,0.0001767000109,0.000193415199,0.0004937191933,3.810401387e-05,0.0005318232072,-0.0005570215918,0.0002762906462,-0.0002807309456,-0.001622085706,0.001423647466,-0.0001984382395,-4.363078666e-06,-0.0001006473852,-0.0001050104638,-0.0003953940546,0.0003902060193,-5.188035341e-06,0.0004404870641,0.000607372805,0.001047859869
4.8,-3.515064607e-05,0.0005077678428,0.0004726171968,0.0005626916321,-0.0001909293429,0.0003717622893,0.0007415149835,0.0001168572601,0.0008583722436,0.001119378854,4.566320375e-05,0.001165042058,0.0009098836888,-0.0005162494668,0.000393634222,-0.0002496556133,-0.0001066307248,-0.0003562863381,0.0003806465006,-0.0002378668143,0.0001427796863,-0.0003801652118,-0.0003984420876,-0.0007786072994,0.002043516055,-0.0004407575487,0.001602758506,-0.0003800863772,-0.0002842737465,-0.0006643601237,0.0009639389051,-0.0005444061511,0.000419532754,0.001510530375,0.0002749640345,0.00178549441,0.001813655001,0.0002410280398,0.002054683041,0.002321036197,-0.0008534381326,0.001467598064,0.001979257043,-0.000818758656,0.001160498387,0.001972183783,-0.0004867043189,0.001485479464,0.001248796305,-0.000274801907,0.0009739943983,0.001125957599,-0.0004873956216,0.0006385619777,0.000534248703,-0.0004971679216,3.708078141e-05,-0.0008923624333,-0.0003330778706,-0.001225440304,0.001202242433,-0.0005634150455,0.0006388273879,-0.0009425015395,0.001417721682,0.0004752201427,0.000982898219,-0.0002552337832,0.0007276644358,0.000838168037,4.743340906e-05,0.0008856014461,0.005330345298,-0.0002674224857,0.005062922812,0.002366740742,0.00012856165,0.002495302392,0.003523913657,0.0009414974139,0.004465411071,0.002381338281,-0.0001261778294,0.002255160452,0.001318235213,-0.0001027758736,0.00121545934,-8.794944393e-05,0.0001993022972,0.0001113528532,0.0004206753555,3.852269712e-05,0.0004591980526,-0.0006793332454,0.0002821131998,-0.0003972200456,-0.001688732119,0.001387399419,-0.0003013327004,-3.703995283e-05,-0.0001133979921,-0.0001504379449,-0.0005616363431,0.0004549289396,-0.0001067074035,0.0003657713795,0.0006095142718,0.0009752856513
4.9,-4.309152082e-05,0.000518679767,0.0004755882462,0.0004801236067,-0.0001790265429,0.0003010970637,0.0007162427715,0.0001184780526,0.0008347208241,0.001058546142,4.689187198e-05,0.001105438014,0.0008725232716,-0.0005189214296,0.0003536018421,-0.0003095583075,-0.0001005879413,-0.0004101462488,0.0003479616911,-0.0002443860082,0.0001035756829,-0.0004301757171,-0.0003910209347,-0.0008211966518,0.00201812934,-0.0004407716179,0.001577357722,-0.0003944225981,-0.000286554514,-0.0006809771121,0.0009383078082,-0.0005457690336,0.0003925387746,0.001426631209,0.0002991762751,0.001725807484,0.001790224399,0.000231702794,0.002021927194,0.002276264622,-0.0008577814958,0.001418483126,0.001971383378,-0.000820199208,0.00115118417,0.001953556874,-0.0004964003123,0.001457156562,0.001242393339,-0.0003033275117,0.0009390658276,0.001100287124,-0.0004880526126,0.000612234511,0.0004887172019,-0.0005033771295,-1.465992761e-05,-0.0009399325028,-0.00033090784,-0.001270840343,0.00114051422,-0.0005660730434,0.0005744411766,-0.001023455151,0.001417239355,0.0003937842043,0.0009560404662,-0.0002561533768,0.0006998870894,0.0007911645432,7.569346397e-05,0.0008668580071,0.00524880301,-0.000265657727,0.004983145283,0.002350954165,0.0001077763452,0.00245873051,0.00344236953,0.0009353192238,0.004377688753,0.002409161885,-0.0001748132004,0.002234348685,0.001280222717,-0.0001050648336,0.001175157883,-0.000196146326,0.000221767947,2.562162097e-05,0.0003428794624,4.042310047e-05,0.0003833025628,-0.0008038394601,0.0002879966226,-0.0005158428375,-0.001747640898,0.001338355513,-0.0004092853851,-7.777637502e-05,-0.0001242826099,-0.0002020589849,-0.0007304016201,0.0005188790256,-0.0002115225945,0.0002858096739,0.0006099079429,0.0008957176168
5.0,-5.056007433e-05,0.0005298760472,0.0004793159729,0.0003943000984,-0.0001670666855,0.0002272334129,0.0006911815254,0.0001202637348,0.0008114452602,0.0009956289176,4.826678869e-05,0.001043895706,0.0008338192778,-0.0005214521239,0.0003123671539,-0.0003721269968,-9.428686135e-05,-0.0004664138582,0.0003132381106,-0.000250538478,6.269963261e-05,-0.0004822203817,-0.0003835043623,-0.000865724744,0.001990966082,-0.0004407013237,0.001550264758,-0.000410263353,-0.0002886318741,-0.0006988952271,0.000911706511,-0.0005469101575,0.0003647963535,0.001344943266,0.0003215013176,0.001666444583,0.001766213486,0.0002222262848,0.001988439771,0.002232096634,-0.000863158068,0.001368938566,0.001962705969,-0.0008213848405,0.001141321129,0.001934266835,-0.0005065152409,0.001427751594,0.001236651919,-0.0003339823663,0.0009026695528,0.001071689338,-0.0004881680056,0.0005835213323,0.000440971877,-0.0005103666956,-6.939481866e-05,-0.0009886243555,-0.0003291281462,-0.001317752502,0.001077163646,-0.000568647414,0.0005085162315,-0.001104155273,0.001413636964,0.0003094816909,0.0009279590045,-0.0002566492173,0.0006713097872,0.000744116915,0.0001038124007,0.0008479293157,0.00516400785,-0.0002632992429,0.004900708607,0.002333484215,8.693232374e-05,0.002420416539,0.003360046398,0.0009266984269,0.004286744825,0.002438339361,-0.0002277272198,0.002210612141,0.001239634516,-0.0001070580997,0.001132576416,-0.0003074347249,0.000244029389,-6.340533585e-05,0.0002605551604,4.378188165e-05,0.000304337042,-0.0009297917823,0.0002936764508,-0.0006361153315,-0.001799076361,0.001277296946,-0.0005217794147,-0.0001265948883,-0.0001329661841,-0.0002595610725,-0.0009003454268,0.0005812826689,-0.000319062758,0.0002010924977,0.0006083789672,0.0008094714649
5.1,-5.736217261e-05,0.0005413791909,0.0004840170183,0.0003056583456,-0.0001551366593,0.0001505216863,0.0006664863384,0.0001222039476,0.000788690286,0.0009309054709,4.977295464e-05,0.0009806784256,0.0007939193043,-0.0005238484818,0.0002700708225,-0.0004371624632,-8.781784304e-05,-0.0005249803063,0.0002764862056,-0.0002562534493,2.023275634e-05,-0.000536181547,-0.0003758552008,-0.0009120367479,0.001962120536,-0.0004405583527,0.001521562183,-0.0004275877719,-0.0002904968953,-0.0007180846672,0.000884247923,-0.0005478362005,0.0003364117224,0.001265829249,0.0003416733032,0.001607502553,0.00174170908,0.0002126990584,0.001954408138,0.002188779016,-0.0008696303655,0.00131914865,0.001953290456,-0.0008223296562,0.0011309608,0.001914358403,-0.0005170682677,0.001397290135,0.001231208794,-0.0003663344431,0.000864874351,0.001040332195,-0.0004878128287,0.0005525193665,0.0003911655406,-0.0005180837025,-0.0001269181619,-0.001038293649,-0.0003276871127,-0.001365980762,0.00101252249,-0.0005711456126,0.0004413768777,-0.001184934746,0.001407602356,0.0002226676098,0.0008988012325,-0.0002567376936,0.0006420635389,0.0006972864354,0.00013168414,0.0008289705754,0.005076299914,-0.0002604077547,0.00481589216,0.002314418946,6.612217867e-05,0.002380541125,0.003277398301,0.0009153767084,0.004192775009,0.002468634376,-0.0002845878416,0.002184046535,0.001196525249,-0.0001087355013,0.001087789747,-0.0004213325091,0.0002660022497,-0.0001553302595,0.0001739612113,4.854449631e-05,0.0002225057076,-0.001056483054,0.0002989006241,-0.0007575824302,-0.001843509733,0.00120518334,-0.0006383263931,-0.0001834644517,-0.0001391388943,-0.000322603346,-0.001070126338,0.0006413634571,-0.0004287628804,0.0001121344809,0.0006047763051,0.000716910786
5.2,-6.330618985e-05,0.0005532123672,0.0004899061773,0.0002146472711,-0.0001433248675,7.132240363e-05,0.0006423047831,0.0001242875544,0.0007665923375,0.0008646570653,5.139314536e-05,0.0009160502106,0.0007529679543,-0.0005261184645,0.0002268494898,-0.0005044604481,-8.127213273e-05,-0.0005857325809,0.0002377174508,-0.000261459757,-2.374230622e-05,-0.0005919109185,-0.0003680444255,-0.0009599553441,0.001931690877,-0.0004403531644,0.001491337712,-0.0004463730019,-0.000292140109,-0.0007385131109,0.0008560471036,-0.0005485549289,0.0003074921747,0.00118960192,0.000359465175,0.001549067095,0.001716780198,0.0002032214506,0.001920001649,0.002146533001,-0.0008772412612,0.00126929174,0.001943204705,-0.0008230467658,0.001120157939,0.001893874352,-0.0005280788783,0.001365795474,0.001225648807,-0.0003999433181,0.0008257054893,0.001006406947,-0.0004870742733,0.0005193326735,0.0003394503186,-0.0005264672227,-0.0001870169041,-0.001088799209,-0.0003265337701,-0.001415332979,0.000946926286,-0.0005735748402,0.0003733514458,-0.001266094023,0.001399783016,0.0001336889928,0.0008687167235,-0.0002564369545,0.000612279769,0.0006509346219,0.0001592095215,0.0008101441434,0.004985986942,-0.0002569992698,0.004728987672,0.002293853689,4.543534651e-05,0.002339289036,0.003194871352,0.0009011380495,0.004096009402,0.00249979217,-0.0003450072764,0.002154784894,0.001150951777,-0.0001100753932,0.001040876384,-0.0005373202949,0.0002875873573,-0.0002497329376,8.339056526e-05,5.462642804e-05,0.0001380169933,-0.001183251143,0.0003034334607,-0.0008798176824,-0.00188158492,0.00112312178,-0.0007584631405,-0.0002482977527,-0.0001425222322,-0.0003908199849,-0.001238423224,0.0006983489022,-0.0005400743215,1.945916779e-05,0.0005989821313,0.0006184412991
5.3,-6.820199767e-05,0.0005653988218,0.0004971968241,0.0001217244773,-0.0001317205552,-9.996077901e-06,0.0006187779292,0.0001265026901,0.0007452806193,0.00079716759,5.310795574e-05,0.0008502755458,0.0007111075396,-0.0005282708197,0.0001828367199,-0.0005738072683,-7.474245866e-05,-0.0006485497269,0.000196946686,-0.0002660868768,-6.914019083e-05,-0.0006492271424,-0.0003600587676,-0.00100928591,0.001899780015,-0.0004400948437,0.001459685171,-0.0004665927721,-0.0002935519664,-0.0007601447386,0.0008272220903,-0.0005490752426,0.0002781468477,0.001116525982,0.0003746906649,0.001491216647,0.001691477532,0.0001938949827,0.001885372515,0.002105552653,-0.0008860122708,0.001219540382,0.001932520828,-0.0008235486507,0.001108972177,0.001872860707,-0.000539567911,0.001333292796,0.001219523503,-0.0004343715852,0.0007851519175,0.0009701253764,-0.0004860537449,0.0004840716315,0.0002859806695,-0.0005354509503,-0.0002494702808,-0.001140001365,-0.0003256201321,-0.001465621497,0.0008807134968,-0.0005759419823,0.0003047715145,-0.001347856466,0.001390736302,4.287983645e-05,0.0008378580911,-0.000255766736,0.000582091355,0.0006053224763,0.0001862973823,0.0007916198586,0.004893356391,-0.0002530555968,0.004640300794,0.002271893207,2.495827402e-05,0.002296851481,0.003112902434,0.000883811981,0.003996714415,0.002531547479,-0.000408551954,0.002122995525,0.001102977814,-0.0001110574106,0.0009919204032,-0.0006548470929,0.0003086736698,-0.000346173423,-1.082900472e-05,6.191421843e-05,5.108521371e-05,-0.0013094779,0.0003070581959,-0.001002419705,-0.001914083306,0.001032338228,-0.0008817450785,-0.0003209487248,-0.000142874301,-0.0004638230258,-0.001403951149,0.0007514795101,-0.0006524716386,-7.641456217e-05,0.0005909175081,0.0005145029459
5.4,-7.185959672e-05,0.0005779611974,0.0005061016006,2.735325647e-05,-0.0001204125813,-9.305932483e-05,0.0005960416312,0.0001288367951,0.0007248784263,0.0007287235093,5.489598497e-05,0.0007836194943,0.0006684788476,-0.0005303148217,0.0001381640259,-0.0006449756736,-6.832342514e-05,-0.0007132990988,0.0001541943722,-0.0002700658437,-0.0001158714715,-0.0007079165171,-0.0003519049167,-0.001059821434,0.001866495931,-0.0004397910187,0.001426704912,-0.0004882160713,-0.0002947233602,-0.0007829394315,0.000797894542,-0.0005494072397,0.0002484873022,0.001046817631,0.000387208282,0.001434025913,0.001665833928,0.0001848232848,0.001850657213,0.002066004696,-0.0008959425234,0.001170062173,0.001921316525,-0.0008238476755,0.00109746885,0.001851371186,-0.0005515578171,0.001299813368,0.001212369747,-0.0004691909166,0.0007431788305,0.0009317160226,-0.0004848631455,0.0004468528771,0.0002309157821,-0.0005449636399,-0.0003140478578,-0.001191760366,-0.0003249029297,-0.001516663295,0.0008142246399,-0.0005782537753,0.0002359708646,-0.00143033237,0.001380891542,-4.944082832e-05,0.000806381428,-0.0002547482062,0.0005516332218,0.0005607090217,0.0002128659356,0.0007735749573,0.004798690267,-0.0002485366015,0.004550153665,0.002248653752,4.774426237e-06,0.002253428178,0.003031919102,0.0008632753859,0.003895194488,0.00256363117,-0.0004747524658,0.002088878704,0.001052677271,-0.0001116644441,0.0009410128273,-0.0007733368122,0.0003291415754,-0.0004441952367,-0.0001083340769,7.026633435e-05,-3.806774257e-05,-0.001434585361,0.0003095796077,-0.001125005753,-0.001941889072,0.0009341503026,-0.001007738769,-0.000401209905,-0.0001399942962,-0.0005412042011,-0.001565477718,0.0008000220972,-0.0007654556207,-0.0001749844122,0.000580545961,0.0004055615488
5.5,-7.408830599e-05,0.0005909208853,0.0005168325793,-6.800118601e-05,-0.0001094878446,-0.0001774890306,0.0005742271243,0.000131276669,0.0007055037932,0.0006596132764,5.673415481e-05,0.0007163474312,0.0006252208894,-0.0005322600087,9.296088069e-05,-0.0007177221993,-6.211172e-05,-0.0007798339193,0.0001094879472,-0.0002733302982,-0.000163842351,-0.000767735993,-0.0003436111609,-0.001111347154,0.001831950797,-0.0004394478143,0.001392502983,-0.0005112066694,-0.0002956461592,-0.0008068528286,0.0007681895245,-0.0005495622832,0.0002186272413,0.0009806395884,0.0003969272384,0.001377566827,0.001639865524,0.0001761115416,0.001815977065,0.002028028323,-0.0009070087651,0.001121019557,0.001909675181,-0.0008239568221,0.001085718359,0.001829468356,-0.0005640713738,0.001265396982,0.001203725904,-0.0005039847323,0.0006997411715,0.0008914190475,-0.0004836200919,0.0004077989556,0.0001744206685,-0.0005549284014,-0.0003805077329,-0.001243935832,-0.0003243443984,-0.001568280231,0.0007478006667,-0.000580516991,0.0001672836757,-0.001513499356,0.00137053209,-0.0001429672659,0.0007744456879,-0.000253403765,0.0005210419228,0.0005173483797,0.0002388445271,0.0007561929068,0.004702276808,-0.0002433915466,0.004458885261,0.002224263384,-1.503608025e-05,0.002209227304,0.002952337016,0.0008394525487,0.003791789564,0.00259577415,-0.0005431131898,0.00205266096,0.001000135506,-0.0001118838666,0.0008882516393,-0.000892195605,0.0003488667601,-0.0005433288449,-0.0002087257685,7.951421779e-05,-0.0001292115507,-0.001558031929,0.000310827957,-0.001247203972,-0.001965958415,0.0008299428627,-0.001136015552,-0.0004888112073,-0.0001337251726,-0.0006225363799,-0.001721839821,0.0008432859734,-0.0008785538476,-0.0002757750336,0.0005678764917,0.0002921014582
5.6,-7.469704198e-05,0.0006042974779,0.000529600436,-0.0001638768081,-9.902955919e-05,-0.0002629063673,0.0005534604335,0.0001338085409,0.0006872689744,0.0005901257401,5.859809974e-05,0.0006487238399,0.0005814692203,-0.0005341159516,4.735326867e-05,-0.0007917865583,-5.620610936e-05,-0.0008479926677,6.286187447e-05,-0.0002758177351,-0.0002129558606,-0.0008284175444,-0.0003352275676,-0.001163645112,0.001796258755,-0.0004390697774,0.001357188977,-0.0005355238477,-0.0002963135799,-0.0008318374275,0.0007382341412,-0.0005495529881,0.0001886811531,0.0009180921692,0.000403814467,0.001321906636,0.001613573202,0.0001678644447,0.001781437647,0.001991734201,-0.0009191664979,0.001072567703,0.001897684728,-0.0008238906277,0.0010737941,0.001807220464,-0.0005771288802,0.001230091584,0.001193143303,-0.0005383505516,0.0006547927515,0.0008494800976,-0.0004824432225,0.0003670368752,0.0001166657961,-0.000565262289,-0.0004485964929,-0.001296387678,-0.0003239118192,-0.001620299497,0.0006817802348,-0.000582738403,9.904183182e-05,-0.00159720056,0.001359797925,-0.0002374026352,0.000742210851,-0.0002517567966,0.0004904540544,0.0004754856143,0.0002641753058,0.0007396609202,0.004604416514,-0.0002375693574,0.004366847157,0.002198860013,-3.439752209e-05,0.002164462491,0.002874552098,0.0008123141369,0.003686866235,0.002627708699,-0.0006131220982,0.002014586601,0.0009454487557,-0.0001117085651,0.0008337401906,-0.001010820798,0.000367725162,-0.0006430956363,-0.0003115717991,8.946416258e-05,-0.0002221076365,-0.001679310657,0.0003106638315,-0.001368646825,-0.001987293128,0.000721146346,-0.001266146782,-0.0005834230816,-0.0001239537009,-0.0007073767825,-0.001871959776,0.0008806395926,-0.000991320183,-0.0003783458227,0.000552965858,0.0001746200353
5.7,-7.349574594e-05,0.0006181083424,0.0005446125964,-0.0002598210366,-8.911556757e-05,-0.0003489366042,0.0005338606402,0.0001364181697,0.0006702788099,0.0005205474965,6.046262242e-05,0.0005810101189,0.0005373530658,-0.000535892035,1.46103086e-06,-0.0008668934171,-5.070664012e-05,-0.0009176000572,1.435644343e-05,-0.0002774707887,-0.0002631143453,-0.000889674027,-0.0003268243695,-0.001216498396,0.001759532656,-0.0004386597361,0.00132087292,-0.0005611242508,-0.0002967202419,-0.0008578444927,0.0007081551403,-0.0005493930695,0.0001587620708,0.0008592028107,0.0004079010313,0.001267103842,0.001586944017,0.0001601834036,0.001747127421,0.001957202955,-0.0009323521023,0.001024850853,0.00188543571,-0.00082366617,0.00106176954,0.001784694803,-0.0005907449849,0.001193949818,0.001180191927,-0.0005719030628,0.0006082888639,0.0008061437199,-0.0004814481876,0.0003246955323,5.782482534e-05,-0.0005758767078,-0.0005180518825,-0.001348978174,-0.0003235760219,-0.001672554196,0.000616495987,-0.000584924557,3.157143002e-05,-0.001681156786,0.001348703252,-0.0003324535333,0.0007098351465,-0.0002498314106,0.0004600037359,0.0004353522027,0.0002888144098,0.0007241666125,0.004505423533,-0.000231029054,0.004274394479,0.002172587713,-5.324054345e-05,0.00211934717,0.002798927161,0.0007818761705,0.003580803331,0.002659168228,-0.0006842608412,0.001974907387,0.000888722444,-0.0001111379802,0.0007775844638,-0.001128611714,0.0003855990176,-0.000743012696,-0.0004164110507,9.990066114e-05,-0.0003165103896,-0.001797949966,0.0003089825264,-0.00148896744,-0.002006915816,0.0006092152619,-0.001397700554,-0.0006846648358,-0.0001106091274,-0.0007952739632,-0.002014860386,0.000911526677,-0.001103333709,-0.0004822952277,0.0005359196576,5.362442997e-05
5.8,-7.029766906e-05,0.0006323683591,0.00056207069,-0.0003553976248,-7.981677322e-05,-0.000435214398,0.0005155374308,0.0001390910137,0.0006546284445,0.000451159487,6.230225185e-05,0.0005134617388,0.0004929918894,-0.0005375971762,-4.460528686e-05,-0.0009427566941,-4.57123162e-05,-0.0009884690103,-3.598416537e-05,-0.0002782383594,-0.0003142225248,-0.0009512064814,-0.0003184881116,-0.001269694593,0.00172188048,-0.0004382186282,0.001283661852,-0.0005879643605,-0.0002968619649,-0.0008848263254,0.0006780759733,-0.0005490970779,0.0001289788955,0.0008039171664,0.0004092859367,0.001213203103,0.001559952547,0.0001531637224,0.001713116269,0.001924483755,-0.0009464853247,0.0009779984302,0.001873019192,-0.0008233039893,0.001049715203,0.001761949531,-0.0006049264071,0.001157023124,0.001164461594,-0.0006042774599,0.0005601841346,0.0007616468777,-0.0004807442613,0.0002809026165,-1.929752993e-06,-0.0005866781766,-0.0005886079296,-0.001401574614,-0.0003233092725,-0.001724883886,0.0005522703258,-0.0005870815487,-3.481122287e-05,-0.001764986916,0.001337161275,-0.0004278256411,0.0006774719037,-0.0002476521841,0.0004298197196,0.000397162041,0.000312732721,0.0007098947619,0.004405623942,-0.0002237505031,0.004181873439,0.002145592479,-7.150500663e-05,0.002074087472,0.002725775603,0.0007481993756,0.003473974978,0.002689885969,-0.0007560139469,0.001933872022,0.0008300690226,-0.000110178878,0.0007198901446,-0.001244981311,0.0004023832203,-0.0008425980912,-0.0005227605787,0.0001105913113,-0.0004121692673,-0.001913515275,0.0003057170851,-0.00160779819,-0.002025845785,0.0004956063973,-0.001530239388,-0.0007921155278,-9.366257466e-05,-0.0008857781024,-0.002149679542,0.0009354822514,-0.001214197291,-0.0005872615878,0.0005168916866,-7.036990127e-05
5.9,-6.492198786e-05,0.0006470898708,0.000582167883,-0.0004501930601,-7.119554953e-05,-0.0005213886096,0.0004985885644,0.0001418124949,0.0006404010594,0.0003822333953,6.409189692e-05,0.0004463252922,0.0004484922684,-0.000539239432,-9.074716356e-05,-0.00101908571,-4.131732449e-05,-0.001060403035,-8.811363303e-05,-0.0002780765675,-0.0003661902006,-0.001012711981,-0.0003103162023,-0.001323028183,0.001683402273,-0.0004377453785,0.001245656895,-0.0006160028276,-0.0002967355044,-0.000912738332,0.0006481139762,-0.0005486801102,9.943386601e-05,0.0007520948468,0.0004081359519,0.001160230799,0.001532562669,0.0001468920361,0.001679454705,0.001893593532,-0.0009614712677,0.0009321222646,0.001860525183,-0.0008228288209,0.001037696362,0.001739026036,-0.0006196710303,0.001119355005,0.001145561848,-0.0006351330567,0.0005104287908,0.0007162132984,-0.0004804315281,0.0002357817702,-6.243252478e-05,-0.0005975685808,-0.0006600011056,-0.001454052025,-0.00032308287,-0.001777134895,0.0004894113032,-0.0005892148955,-9.980359228e-05,-0.001848231504,0.001325009506,-0.000523221998,0.0006452667415,-0.0002452438737,0.0004000228678,0.0003611087737,0.000335916194,0.0006970249677,0.004305352058,-0.0002157446725,0.004089607386,0.002118018841,-8.914335077e-05,0.00202887549,0.002655345735,0.0007113890214,0.003366734757,0.002719592995,-0.0008278757976,0.001891717198,0.0007696060655,-0.0001088456463,0.0006607604192,-0.00135936655,0.00041799071,-0.0009413758403,-0.0006301245328,0.0001212932175,-0.0005088313154,-0.002025609195,0.0003008400729,-0.001724769122,-0.002045075674,0.0003817587242,-0.001663316949,-0.0009053242211,-7.312793719e-05,-0.0009784521582,-0.002275685412,0.000952149377,-0.001323536035,-0.0006929202254,0.0004960797089,-0.0001968405165
6.0,-5.719609971e-05,0.0006622828162,0.0006050867165,-0.0005438216494,-6.330390373e-05,-0.0006071255531,0.0004830979562,0.0001445683071,0.0006276662633,0.0003140284675,6.58075229e-05,0.0003798359904,0.0004039459802,-0.0005408255367,-0.0001368795566,-0.001095591418,-3.760694648e-05,-0.001133198365,-0.0001419840927,-0.0002769496448,-0.0004189337375,-0.001073891105,-0.000302410908,-0.001376302013,0.001644188469,-0.0004372368668,0.001206951602,-0.0006452019408,-0.0002963383395,-0.0009415402803,0.0006183783355,-0.0005481575602,7.02207753e-05,0.0007035119523,0.0004046811317,0.001108193084,0.001504730457,0.0001414441898,0.001646174647,0.001864517357,-0.0009772015951,0.0008873157621,0.001848041889,-0.000822269879,0.00102577201,0.001715943754,-0.000634968177,0.001080975577,0.001123123844,-0.0006641577812,0.0004589660627,0.0006700495212,-0.000480598726,0.0001894507952,-0.0001235315794,-0.0006084443713,-0.0007319759507,-0.001506295297,-0.0003228647945,-0.001829160092,0.0004282091776,-0.0005913293888,-0.0001631202111,-0.001930376829,0.001312033325,-0.0006183435033,0.000613355683,-0.000242631093,0.00037072459,0.000327365042,0.0003583653402,0.0006857303822,0.004204946165,-0.0002070625848,0.00399788358,0.002090008486,-0.0001061239873,0.001983884499,0.002587808321,0.0006715954552,0.003259403776,0.002748017221,-0.0008993553955,0.001848661825,0.0007074552142,-0.0001071602258,0.0006002949884,-0.001471235474,0.0004323556659,-0.001038879808,-0.000738004762,0.000131761436,-0.0006062433259,-0.002133868755,0.0002943644403,-0.001839504315,-0.002065547829,0.0002690750961,-0.001796472733,-0.001023817657,-4.906405311e-05,-0.00107288171,-0.002392291556,0.0009612964715,-0.001430995084,-0.0007989762455,0.0004737159215,-0.000325260324
6.1,-4.695708173e-05,0.0006779549519,0.0006309978701,-0.0006359288773,-5.618139824e-05,-0.0006921102756,0.00046913484,0.0001473446825,0.0006164795225,0.0002467891965,6.742678009e-05,0.0003142159766,0.0003594297885,-0.0005423604818,-0.0001829306933,-0.001171990845,-3.465433372e-05,-0.001206645179,-0.0001975451971,-0.0002748307272,-0.0004723759244,-0.001134454968,-0.0002948732952,-0.001429328263,0.001604319844,-0.0004366879682,0.001167631876,-0.00067552792,-0.0002956684792,-0.0009711963992,0.0005889691625,-0.0005475449093,4.14242532e-05,0.0006578704904,0.0003992067925,0.001057077283,0.001476408423,0.0001368838449,0.001613292268,0.001837210639,-0.0009935555847,0.0008436550541,0.001835655523,-0.000821660517,0.001013995006,0.001692698521,-0.0006507995622,0.001041898959,0.001096805519,-0.0006910733486,0.0004057321707,0.0006233430855,-0.0004813215184,0.000142021567,-0.000185094423,-0.0006191947751,-0.0008042891981,-0.001558200338,-0.000322617805,-0.001880818143,0.0003689339592,-0.0005934288316,-0.0002244948724,-0.002010878491,0.001297988146,-0.0007128903443,0.0005818643204,-0.0002398380233,0.0003420262971,0.0002960836437,0.0003800934351,0.0006761770788,0.00410474482,-0.0001978016491,0.003906943171,0.002061701299,-0.0001224344173,0.001939266882,0.002523249025,0.0006290147793,0.003152263804,0.002774885224,-0.0009699799102,0.001804905314,0.0006437422739,-0.0001051521141,0.0005385901598,-0.001580090407,0.0004454338982,-0.001134656509,-0.0008459127342,0.0001417598016,-0.0007041529326,-0.002237960042,0.0002863435368,-0.001951616505,-0.002088132188,0.0001589060908,-0.001929226098,-0.001147104577,-2.157802223e-05,-0.001168682599,-0.002499068774,0.0009628332512,-0.001536235523,-0.0009051545805,0.0004500538607,-0.0004551007198
6.2,-3.405227096e-05,0.0006941120734,0.0006600598025,-0.0007261931618,-4.985320194e-05,-0.0007760463637,0.0004567539342,0.0001501285714,0.0006068825056,0.0001807439043,6.892956704e-05,0.0002496734713,0.0003150065961,-0.0005438471995,-0.0002288406034,-0.001248009399,-3.251820896e-05,-0.001280527608,-0.0002547423057,-0.0002717023582,-0.0005264446639,-0.001194132711,-0.0002877967574,-0.001481929468,0.001563868588,-0.0004360916308,0.001127776958,-0.0007069502688,-0.0002947243132,-0.001001674582,0.0005599774302,-0.0005468575492,1.311988105e-05,0.0006148125589,0.00039204325,0.001006855809,0.001447550154,0.0001332620769,0.001580812231,0.001811603238,-0.001010401885,0.0008012013525,0.001823450057,-0.0008210374424,0.001002412614,0.001669264023,-0.0006671402797,0.001002123743,0.001066298285,-0.0007156395525,0.0003506587326,0.0005762624646,-0.0004826608142,9.360165048e-05,-0.0002470127776,-0.0006296992629,-0.0008767120405,-0.001609674542,-0.0003222982025,-0.001931972745,0.0003118338731,-0.0005955157648,-0.0002836818917,-0.002089183188,0.001282619027,-0.0008065641604,0.0005509075806,-0.0002368882392,0.0003140193414,0.0002673997353,0.0004011235174,0.0006685232528,0.004005084171,-0.0001881078862,0.003816976285,0.002033238119,-0.00013808396,0.001895154159,0.002461667034,0.0005838880449,0.003045555078,0.002799926688,-0.001039297777,0.001760628911,0.000578598438,-0.000102859048,0.0004757393901,-0.001685468319,0.000457200562,-0.001228267757,-0.0009533810942,0.0001510727206,-0.0008023083736,-0.00233757243,0.0002768701852,-0.002060702244,-0.002113610695,5.253950073e-05,-0.002061071194,-0.00127467736,9.171145582e-06,-0.001265506214,-0.002595750918,0.0009568221309,-0.001638928787,-0.001011191654,0.0004253569724,-0.0005858346813
6.3,-1.833947174e-05,0.0007107582146,0.0006924187428,-0.00081432651,-4.432876425e-05,-0.0008586552743,0.0004459960184,0.0001529077628,0.0005989037813,0.000116103856,7.029854693e-05,0.000186402403,0.0002707269975,-0.0005452863347,-0.0002745593372,-0.001323382164,-3.124075331e-05,-0.001354622917,-0.0003135148737,-0.0002675566471,-0.0005810715208,-0.001252680539,-0.0002812593396,-0.001533939878,0.0015228995,-0.0004354390022,0.001087460498,-0.0007394407447,-0.0002935046504,-0.001032945395,0.0005314851778,-0.0005461106548,-1.462547696e-05,0.000573936343,0.0003835542829,0.0009574906259,0.001418113569,0.0001306181333,0.001548731703,0.001787604468,-0.001027601282,0.0007600031863,0.001811506382,-0.0008204399313,0.0009910664509,0.00164559482,-0.0006839592611,0.0009616355585,0.001031332552,-0.0007376563826,0.0002936761692,0.000528957743,-0.0004846611237,4.42966193e-05,-0.0003092062323,-0.0006398246833,-0.0009490309155,-0.001660637132,-0.0003218551956,-0.001982492328,0.0002571343175,-0.0005975913484,-0.0003404570309,-0.002164746136,0.001265674452,-0.0008990716845,0.0005205894133,-0.000233804636,0.0002867847773,0.0002414326995,0.0004214849162,0.0006629176158,0.003906296043,-0.0001781736427,0.0037281224,0.002004763699,-0.0001531059528,0.001851657746,0.002402979547,0.0005364977455,0.002939477293,0.002822879664,-0.001106882035,0.001715997629,0.0005121622275,-0.000100328516,0.0004118337115,-0.001786940067,0.0004676458282,-0.001319294239,-0.001059972648,0.0001595153754,-0.0009004572731,-0.00243241454,0.0002660745896,-0.00216633995,-0.002142669301,-4.880479722e-05,-0.002191474098,-0.001406012745,4.297033121e-05,-0.001363042414,-0.002682234275,0.0009434819714,-0.001738752303,-0.001116832637,0.0003998929326,-0.0007169397041
6.4,3.125437396e-07,0.0007278958675,0.0007282084112,-0.0009000746952,-3.960131145e-05,-0.0009396760067,0.0004368882583,0.0001556709997,0.0005925592579,5.30624105e-05,7.1519618e-05,0.0001245820285,0.000226630353,-0.0005466760631,-0.0003200457101,-0.001397855286,-3.084545092e-05,-0.001428700737,-0.0003737956793,-0.0002623952879,-0.0006361909672,-0.001309891941,-0.0002753151552,-0.001585207096,0.00148147068,-0.0004347196258,0.001046751054,-0.0007729724654,-0.0002920089998,-0.001064981465,0.0005035654977,-0.0005453191199,-4.175362216e-05,0.0005348118817,0.0003741244864,0.0009089363681,0.001388061584,0.0001289812828,0.001517042867,0.00176510754,-0.001045010144,0.0007200973955,0.001799900755,-0.0008199093142,0.0009799914411,0.001621629458,-0.0007012190502,0.0009204104081,0.0009916813579,-0.0007569645384,0.0002347168195,0.0004815609494,-0.0004873491775,-5.788228109e-06,-0.0003716245337,-0.0006494232456,-0.001021047779,-0.001711019629,-0.0003212306885,-0.002032250317,0.0002050368269,-0.0005996553866,-0.0003946185598,-0.002237042237,0.001246912214,-0.0009901300238,0.0004910019913,-0.000230609364,0.0002603926274,0.0002182864644,0.000441210418,0.0006594968823,0.003808705333,-0.0001682307676,0.003640474566,0.001976428451,-0.0001675591243,0.001808869327,0.002347029589,0.0004871618234,0.002834191413,0.002843495669,-0.001172335007,0.001671160662,0.0004445811351,-9.761924665e-05,0.0003469618884,-0.001884109869,0.0004767696244,-0.001407340245,-0.001165286153,0.0001669408419,-0.000998345311,-0.002522212587,0.0002541206728,-0.002268091914,-0.002175892276,-0.0001439824881,-0.002319874765,-0.00154057295,7.95530012e-05,-0.001461019949,-0.002758571352,0.0009231820101,-0.001835389342,-0.001221834097,0.0003739330136,-0.0008479010838
6.5,2.202290439e-05,0.0007455262411,0.0007675491455,-0.0009832172892,-3.564820974e-05,-0.001018865499,0.0004294439562,0.0001584081037,0.0005878520599,-8.206081663e-06,7.25822845e-05,6.437620284e-05,0.000182745079,-0.0005480119558,-0.0003652668767,-0.001471187864,-3.133546242e-05,-0.001502523327,-0.0004355109171,-0.0002562296069,-0.000691740524,-0.001365606981,-0.0002699869863,-0.001635593967,0.001439633634,-0.0004339216725,0.001005711961,-0.0008075194478,-0.0002902379165,-0.001097757364,0.0004762821593,-0.0005444975031,-6.821534383e-05,0.0004969959455,0.0003641455803,0.0008611415258,0.001357360585,0.000128373216,0.001485733801,0.001743992617,-0.001062483904,0.0006815087136,0.001788702644,-0.0008194885238,0.00096921412,0.001597293161,-0.0007188752058,0.0008784179552,0.0009471633358,-0.0007734457913,0.0001737175445,0.0004341852418,-0.0004907327001,-5.654745835e-05,-0.000434247521,-0.0006583328943,-0.001092580415,-0.001760766304,-0.0003203595294,-0.002081125833,0.0001557177907,-0.0006017063121,-0.0004459885213,-0.002305571741,0.00122609901,-0.001079472731,0.0004622244522,-0.0002273236894,0.0002349007628,0.0001980478895,0.0004603347977,0.0006583826872,0.003712624465,-0.0001585388039,0.003554085661,0.001948388382,-0.0001815278023,0.001766860579,0.0022935941,0.000436226272,0.002729820372,0.002861544681,-0.00123529482,0.001626249861,0.0003760117268,-9.480129735e-05,0.0002812104294,-0.001976615896,0.000484577014,-0.001492038882,-0.001268959947,0.0001732441824,-0.001095715765,-0.00260671118,0.0002412011415,-0.002365510039,-0.002213754716,-0.0002319410461,-0.002445695762,-0.001677807393,0.0001186030895,-0.001559204304,-0.00282495962,0.0008964260928,-0.001928533527,-0.001325968367,0.0003477529961,-0.0009782153707
6.6,4.68970288e-05,0.0007636494884,0.0008105465172,-0.001063567379,-3.243239478e-05,-0.001095999774,0.000423661877,0.0001611101055,0.0005847719825,-6.754757276e-05,7.347984756e-05,5.932274806e-06,0.0001390884389,-0.0005492869094,-0.0004101984705,-0.001543154658,-3.26929232e-05,-0.001575847581,-0.0004985809715,-0.0002490804719,-0.0007476614433,-0.001419718744,-0.0002652618667,-0.001684980611,0.001397433107,-0.0004330321282,0.0009644009785,-0.0008430565851,-0.0002881931581,-0.001131249743,0.0004496890397,-0.0005436598988,-9.397085904e-05,0.0004600458526,0.000354002655,0.0008140485076,0.001325978042,0.0001288102545,0.001454788296,0.001724128755,-0.001079879875,0.0006442488801,0.001777972235,-0.0008192212298,0.000958751005,0.001572500432,-0.0007368758893,0.0008356245428,0.0008976454939,-0.000787023744,0.0001106217499,0.0003869227609,-0.0004947991105,-0.0001078763496,-0.0004970818153,-0.0006663805479,-0.001163462363,-0.001809834049,-0.0003191706887,-0.002129004738,0.0001093270805,-0.000603741048,-0.0004944139675,-0.002369863709,0.001203008502,-0.001166855207,0.0004343215679,-0.0002239677908,0.0002103537771,0.0001807840429,0.0004788945397,0.0006596785826,0.003618344308,-0.0001493691344,0.003468975174,0.001920803347,-0.0001951206331,0.001725682713,0.002242391422,0.0003840573652,0.002626448788,0.002876820027,-0.001295442636,0.001581377391,0.0003066177987,-9.195403724e-05,0.0002146637615,-0.002064132639,0.0004910757936,-0.001573056845,-0.00137067426,0.0001783638748,-0.001192310385,-0.00268567724,0.0002275325782,-0.002458144662,-0.00225661569,-0.0003117402559,-0.002568355946,-0.001817154672,0.0001597615017,-0.00165739317,-0.00288172533,0.0008638297583,-0.002017895571,-0.001429026311,0.0003216332413,-0.001107393069
6.7,7.502501658e-05,0.0007822647971,0.0008572898137,-0.001140970627,-2.990470902e-05,-0.001170875336,0.000419525659,0.0001637693875,0.0005832950465,-0.0001248294646,7.420938672e-05,-5.062007783e-05,9.566651419e-05,-0.0005504911191,-0.0004548246049,-0.001613549732,-3.487885582e-05,-0.001648428588,-0.0005629215187,-0.0002409777613,-0.00080389928,-0.001472176918,-0.0002610890236,-0.001733265942,0.001354907219,-0.0004320368965,0.000922870322,-0.0008795597469,-0.0002858775186,-0.001165437266,0.0004238297884,-0.0005428197123,-0.0001189899239,0.0004235321264,0.0003440619758,0.0007675941022,0.001293880533,0.0001303049637,0.001424185497,0.001705375712,-0.001097059052,0.0006083166604,0.001767758139,-0.0008191503173,0.0009486078213,0.001547158357,-0.0007551621585,0.0007919961985,0.000843044827,-0.00079766448,4.538034696e-05,0.0003398420247,-0.0004995144372,-0.0001596724125,-0.0005601546515,-0.0006733871757,-0.001233541827,-0.001858190871,-0.0003175898293,-0.0021757807,6.598708281e-05,-0.0006057548866,-0.0005397678038,-0.002429479558,0.001177421745,-0.001252057813,0.0004073429524,-0.0002205605419,0.0001867824105,0.0001665400107,0.0004969279701,0.0006634679808,0.003526124157,-0.0001409887212,0.003385135436,0.001893834127,-0.0002084674657,0.001685366662,0.00219308998,0.0003310338975,0.002524123878,0.002889142853,-0.001352508537,0.001536634316,0.0002365674962,-8.916242343e-05,0.0001474050727,-0.002146375054,0.000496277025,-0.001650098029,-0.001470152096,0.0001822809452,-0.001287871151,-0.002758907048,0.0002133511954,-0.002545555853,-0.002304716532,-0.0003825678395,-0.002687284372,-0.001958044298,0.0002026342842,-0.001755410014,-0.002929302484,0.0008260936309,-0.002103208853,-0.00153081772,0.0002958577276,-0.001234959992
