Time,S1D1HbO,S1D1HbR,S1D1HbT,S2D2HbO,S2D2HbR,S2D2HbT,S3D3HbO,S3D3HbR,S3D3HbT,S4D4HbO,S4D4HbR,S4D4HbT,S5D5HbO,S5D5HbR,S5D5HbT,S6D6HbO,S6D6HbR,S6D6HbT,S7D7HbO,S7D7HbR,S7D7HbT,S8D8HbO,S8D8HbR,S8D8HbT,S9D9HbO,S9D9HbR,S9D9HbT,S10D10HbO,S10D10HbR,S10D10HbT,S11D11HbO,S11D11HbR,S11D11HbT,S12D12HbO,S12D12HbR,S12D12HbT,S13D13HbO,S13D13HbR,S13D13HbT,S14D14HbO,S14D14HbR,S14D14HbT,S15D15HbO,S15D15HbR,S15D15HbT,S16D16HbO,S16D16HbR,S16D16HbT,S17D17HbO,S17D17HbR,S17D17HbT,S18D18HbO,S18D18HbR,S18D18HbT,S19D19HbO,S19D19HbR,S19D19HbT,S20D20HbO,S20D20HbR,S20D20HbT,S21D21HbO,S21D21HbR,S21D21HbT,S22D22HbO,S22D22HbR,S22D22HbT,S23D23HbO,S23D23HbR,S23D23HbT,S24D24HbO,S24D24HbR,S24D24HbT,S25D25HbO,S25D25HbR,S25D25HbT,S26D26HbO,S26D26HbR,S26D26HbT,S27D27HbO,S27D27HbR,S27D27HbT,S28D28HbO,S28D28HbR,S28D28HbT,S29D29HbO,S29D29HbR,S29D29HbT,S30D30HbO,S30D30HbR,S30D30HbT,S31D31HbO,S31D31HbR,S31D31HbT,S32D32HbO,S32D32HbR,S32D32HbT,S33D33HbO,S33D33HbR,S33D33HbT,S34D34HbO,S34D34HbR,S34D34HbT,S35D35HbO,S35D35HbR,S35D35HbT,S36D36HbO,S36D36HbR,S36D36HbT,
-10,1.989469092e-03,-5.502701816e-04,1.439198911e-03,1.426258713e-03,-1.973376022e-05,1.406524953e-03,1.381205586e-03,-2.360525069e-04,1.145153079e-03,9.873850977e-04,2.404404398e-05,1.011429142e-03,1.472009183e-03,-2.907309516e-04,1.181278231e-03,8.577310044e-04,-1.410602647e-04,7.166707397e-04,1.253478999e-03,-4.576565101e-04,7.958224892e-04,9.377405993e-04,-4.229807550e-04,5.147598442e-04,1.305349649e-03,-3.472809763e-04,9.580686727e-04,1.167817235e-03,-2.854436224e-04,8.823736130e-04,1.461688325e-03,-4.748378339e-04,9.868504910e-04,6.281988512e-04,-7.922520814e-05,5.489736431e-04,6.191467475e-05,-5.971572942e-05,2.198945334e-06,3.473165070e-04,-1.631852202e-06,3.456846548e-04,1.990721653e-04,-1.474514581e-04,5.162070719e-05,-7.652954115e-06,-2.312099408e-05,-3.077394820e-05,-9.827556287e-04,1.296110770e-04,-8.531445517e-04,3.682269265e-04,6.012998746e-05,4.283569140e-04,-1.477010781e-04,-1.887035703e-04,-3.364046484e-04,6.380836240e-04,-7.685256310e-05,5.612310609e-04,1.277362897e-03,-1.025986795e-04,1.174764217e-03,8.161835900e-04,-1.444770194e-04,6.717065706e-04,1.511043765e-03,-1.077558564e-04,1.403287909e-03,1.233517436e-03,-4.305168516e-04,8.030005839e-04,3.364640548e-04,-1.060308499e-04,2.304332049e-04,-4.431414033e-05,6.454883502e-05,2.023469469e-05,-8.507394047e-04,2.010917033e-05,-8.306302343e-04,-6.587634464e-04,-1.287968382e-04,-7.875602846e-04,1.770259716e-05,-6.487729261e-05,-4.717469546e-05,1.537497159e-04,5.046336997e-05,2.042130859e-04,2.640240561e-04,-1.058755305e-04,1.581485256e-04,2.675416567e-04,-7.163156755e-05,1.959100892e-04,-7.975228819e-04,4.351927376e-04,-3.623301443e-04,-3.797261974e-04,-1.595035634e-04,-5.392297608e-04,-2.680397111e-04,7.880209038e-05,-1.892376207e-04,-1.077265209e-03,4.320906993e-04,-6.451745098e-04
-9.9,1.915094068e-03,-5.386895694e-04,1.376404498e-03,1.379329735e-03,-2.348875274e-05,1.355840983e-03,1.332041281e-03,-2.351073405e-04,1.096933941e-03,9.598346466e-04,1.715721227e-05,9.769918589e-04,1.418719294e-03,-2.956164288e-04,1.123102865e-03,8.316947963e-04,-1.439772758e-04,6.877175205e-04,1.213727042e-03,-4.570698171e-04,7.566572249e-04,9.082120930e-04,-4.245560078e-04,4.836560852e-04,1.265617427e-03,-3.494178037e-04,9.161996231e-04,1.136769557e-03,-2.815769251e-04,8.551926314e-04,1.418947291e-03,-4.622329308e-04,9.567143601e-04,5.742824594e-04,-6.829216230e-05,5.059902971e-04,2.125479800e-05,-5.871315506e-05,-3.745835706e-05,3.167959342e-04,-1.022243734e-05,3.065734969e-04,1.697290750e-04,-1.470789818e-04,2.265009318e-05,-6.128985306e-05,-1.338053022e-05,-7.467038329e-05,-1.010946215e-03,1.021736354e-04,-9.087725793e-04,3.177578000e-04,6.060545411e-05,3.783632541e-04,-1.922075046e-04,-1.779836547e-04,-3.701911593e-04,6.172902144e-04,-7.684215789e-05,5.404480565e-04,1.241311834e-03,-1.004980822e-04,1.140813752e-03,7.738186847e-04,-1.401951434e-04,6.336235413e-04,1.455516688e-03,-9.990950843e-05,1.355607179e-03,1.185879701e-03,-4.234153681e-04,7.624643333e-04,2.858096740e-04,-9.567984203e-05,1.901298319e-04,-1.101205910e-04,8.798796070e-05,-2.213263033e-05,-8.320778113e-04,-1.953486421e-05,-8.516126755e-04,-6.740795140e-04,-1.223827200e-04,-7.964622339e-04,-3.284251605e-05,-2.105517392e-05,-5.389768998e-05,1.309096664e-04,4.574784184e-05,1.766575083e-04,2.494052881e-04,-1.070900919e-04,1.423151962e-04,2.370118486e-04,-7.446732003e-05,1.625445286e-04,-8.138565714e-04,3.880436371e-04,-4.258129343e-04,-3.883779002e-04,-1.499649333e-04,-5.383428335e-04,-2.866754427e-04,6.673937609e-05,-2.199360666e-04,-1.039198648e-03,3.480002488e-04,-6.911983988e-04
-9.8,1.838441394e-03,-5.267591219e-04,1.311682272e-03,1.329854466e-03,-2.701542605e-05,1.302839040e-03,1.281710257e-03,-2.339301589e-04,1.047780098e-03,9.309574550e-04,1.070331649e-05,9.416607715e-04,1.363911235e-03,-2.994842808e-04,1.064426954e-03,8.047975659e-04,-1.466584989e-04,6.581390670e-04,1.172341411e-03,-4.557655771e-04,7.165758340e-04,8.777130290e-04,-4.254992281e-04,4.522138010e-04,1.224036029e-03,-3.508647500e-04,8.731712788e-04,1.104034314e-03,-2.772577588e-04,8.267765553e-04,1.374687860e-03,-4.488752432e-04,9.258126166e-04,5.197444209e-04,-5.778099104e-05,4.619634298e-04,-2.130126097e-05,-5.552486605e-05,-7.682612702e-05,2.854247026e-04,-1.851508978e-05,2.669096129e-04,1.388336661e-04,-1.454398936e-04,-6.606227520e-06,-1.152989171e-04,-4.007821304e-06,-1.193067384e-04,-1.036714912e-03,7.404366304e-05,-9.626712487e-04,2.654376302e-04,6.192304871e-05,3.273606789e-04,-2.396930051e-04,-1.657850077e-04,-4.054780128e-04,5.952405167e-04,-7.677460030e-05,5.184659164e-04,1.203113019e-03,-9.824915151e-05,1.104863868e-03,7.300639908e-04,-1.355490596e-04,5.945149312e-04,1.399063507e-03,-9.247813937e-05,1.306585367e-03,1.137281559e-03,-4.159878175e-04,7.212937416e-04,2.343292804e-04,-8.520138235e-05,1.491278981e-04,-1.755504901e-04,1.113917565e-04,-6.415873351e-05,-8.205414845e-04,-4.975951945e-05,-8.703010040e-04,-6.921924423e-04,-1.129713870e-04,-8.051638294e-04,-8.764005967e-05,2.661292386e-05,-6.102713581e-05,1.072136000e-04,4.132917717e-05,1.485427772e-04,2.312278030e-04,-1.102519228e-04,1.209758802e-04,2.045795593e-04,-7.680396441e-05,1.277755949e-04,-8.284604864e-04,3.386504160e-04,-4.898100704e-04,-3.981203122e-04,-1.405022343e-04,-5.386225466e-04,-3.067138826e-04,5.477992806e-05,-2.519339545e-04,-9.959753254e-04,2.615501458e-04,-7.344251796e-04
-9.7,1.759854594e-03,-5.144587158e-04,1.245395878e-03,1.278103307e-03,-3.029630693e-05,1.247807000e-03,1.230409092e-03,-2.325009439e-04,9.979081483e-04,9.009363944e-04,4.675346769e-06,9.056117412e-04,1.307801233e-03,-3.023382113e-04,1.005463021e-03,7.771405028e-04,-1.490835344e-04,6.280569685e-04,1.129458839e-03,-4.537282954e-04,6.757305438e-04,8.463450385e-04,-4.257515128e-04,4.205935257e-04,1.180748827e-03,-3.516076273e-04,8.291412001e-04,1.069732854e-03,-2.724834020e-04,7.972494518e-04,1.329069895e-03,-4.348134065e-04,8.942564885e-04,4.648515596e-04,-4.776553268e-05,4.170860269e-04,-6.559795099e-05,-5.003898741e-05,-1.156369384e-04,2.532431301e-04,-2.638142216e-05,2.268617079e-04,1.065440035e-04,-1.424732297e-04,-3.592922623e-05,-1.693188654e-04,4.816603241e-06,-1.645022621e-04,-1.060138416e-03,4.554975903e-05,-1.014588657e-03,2.115591881e-04,6.400074033e-05,2.755599284e-04,-2.897216936e-04,-1.523129252e-04,-4.420346188e-04,5.720698320e-04,-7.665263244e-05,4.954171996e-04,1.162952493e-03,-9.585573691e-05,1.067096756e-03,6.851615285e-04,-1.305447739e-04,5.546167546e-04,1.341917419e-03,-8.548901488e-05,1.256428404e-03,1.087991440e-03,-4.082399510e-04,6.797514894e-04,1.823570652e-04,-7.469285476e-05,1.076642104e-04,-2.401517653e-04,1.345675122e-04,-1.055842531e-04,-8.160147901e-04,-7.046211808e-05,-8.864769082e-04,-7.129588339e-04,-1.006370370e-04,-8.135958709e-04,-1.462219386e-04,7.759307878e-05,-6.862885986e-05,8.277140923e-05,3.725011327e-05,1.200215225e-04,2.097794138e-04,-1.150981661e-04,9.468124774e-05,1.703678877e-04,-7.859378995e-05,9.177409774e-05,-8.414319450e-04,2.876334677e-04,-5.537984773e-04,-4.088930150e-04,-1.312580532e-04,-5.401510681e-04,-3.281063764e-04,4.310561154e-05,-2.850007649e-04,-9.483067572e-04,1.735798439e-04,-7.747269133e-04
-9.6,1.679672909e-03,-5.017722420e-04,1.177900667e-03,1.224347246e-03,-3.331521574e-05,1.191032031e-03,1.178327059e-03,-2.307999792e-04,9.475270803e-04,8.699481249e-04,-9.338724194e-07,8.690142525e-04,1.250593781e-03,-3.041868261e-04,9.464069545e-04,7.488170824e-04,-1.512331284e-04,5.975839540e-04,1.085214841e-03,-4.509451732e-04,6.342696683e-04,8.141877798e-04,-4.252478721e-04,3.889399077e-04,1.135901605e-03,-3.516350400e-04,7.842665655e-04,1.033984547e-03,-2.672518642e-04,7.667326829e-04,1.282250368e-03,-4.200973047e-04,8.621530633e-04,4.098416585e-04,-3.829830080e-05,3.715433577e-04,-1.114569693e-04,-4.218636284e-05,-1.536433321e-04,2.202857138e-04,-3.369157461e-05,1.865941391e-04,7.302589847e-05,-1.381393645e-04,-6.511346602e-05,-2.230068064e-04,1.292950363e-05,-2.100773028e-04,-1.081301098e-03,1.697912894e-05,-1.064321969e-03,1.564236445e-04,6.674593759e-05,2.231695821e-04,-3.418410064e-04,-1.377859885e-04,-4.796269949e-04,5.479094651e-04,-7.647832561e-05,4.714311394e-04,1.121019357e-03,-9.332170890e-05,1.027697648e-03,6.393546864e-04,-1.251939931e-04,5.141606933e-04,1.284297985e-03,-7.896256654e-05,1.205335419e-03,1.038275008e-03,-4.001806846e-04,6.380943238e-04,1.302148556e-04,-6.424492602e-05,6.596992958e-05,-3.035064861e-04,1.573344368e-04,-1.461720493e-04,-8.182269848e-04,-8.175381001e-05,-8.999807948e-04,-7.362340685e-04,-8.548908738e-05,-8.217231558e-04,-2.080390723e-04,1.312553233e-04,-7.678374901e-05,5.768733641e-05,3.355329539e-05,9.124063180e-05,1.853750413e-04,-1.213775534e-04,6.399748787e-05,1.345123595e-04,-7.979918543e-05,5.471317411e-05,-8.528799542e-04,2.356189118e-04,-6.172610424e-04,-4.206356462e-04,-1.223659893e-04,-5.430016355e-04,-3.507860148e-04,3.189123604e-05,-3.188947788e-04,-8.970334129e-04,8.503609485e-05,-8.119973181e-04
-9.5,1.598229352e-03,-4.886878395e-04,1.109541513e-03,1.168855373e-03,-3.605751357e-05,1.132797859e-03,1.125644708e-03,-2.288082131e-04,8.968364953e-04,8.381616805e-04,-6.131735034e-06,8.320299454e-04,1.192482217e-03,-3.050432023e-04,8.874390149e-04,7.199134824e-04,-1.530892919e-04,5.668241905e-04,1.039743543e-03,-4.474062679e-04,5.923372753e-04,7.812991155e-04,-4.239174000e-04,3.573817155e-04,1.089642546e-03,-3.509381908e-04,7.387043553e-04,9.969065868e-04,-2.615620432e-04,7.353445435e-04,1.234383281e-03,-4.047775555e-04,8.296057254e-04,3.549229102e-04,-2.941041779e-05,3.255124925e-04,-1.586767394e-04,-3.194149428e-05,-1.906182337e-04,1.865853449e-04,-4.031852456e-05,1.462668204e-04,3.845430158e-05,-1.324225091e-04,-9.396820756e-05,-2.760438071e-04,2.019121891e-05,-2.558525882e-04,-1.100286273e-03,-1.143279124e-05,-1.111719064e-03,1.003392438e-04,7.005726847e-05,1.703965123e-04,-3.955900023e-04,-1.224257600e-04,-5.180157623e-04,5.228862233e-04,-7.625295403e-05,4.466332693e-04,1.077504663e-03,-9.065109784e-05,9.868535656e-04,5.928869517e-04,-1.195144817e-04,4.733724700e-04,1.226409796e-03,-7.291181701e-05,1.153497979e-03,9.883905081e-04,-3.918193290e-04,5.965711791e-04,7.820776576e-05,-5.393967775e-05,2.426808801e-05,-3.652364916e-04,1.795256956e-04,-1.857107960e-04,-8.267655554e-04,-8.395063847e-05,-9.107161938e-04,-7.618729870e-04,-6.767045941e-05,-8.295434464e-04,-2.724763522e-04,1.868932567e-04,-8.558309553e-05,3.205974699e-05,3.028111457e-05,6.234086156e-05,1.583457114e-04,-1.288519801e-04,2.949373131e-05,9.716258581e-05,-8.039290643e-05,1.676967938e-05,-8.629178016e-04,1.832247486e-04,-6.796930530e-04,-4.332862170e-04,-1.139482184e-04,-5.472344354e-04,-3.746636224e-04,2.129908961e-05,-3.533645328e-04,-8.430946477e-04,-3.046887408e-06,-8.461415351e-04
-9.4,1.515850425e-03,-4.751981667e-04,1.040652259e-03,1.111893518e-03,-3.851031038e-05,1.073383208e-03,1.072534000e-03,-2.265075747e-04,8.460264252e-04,8.057384322e-04,-1.092592498e-05,7.948125072e-04,1.133652215e-03,-3.049243965e-04,8.287278183e-04,6.905104405e-04,-1.546352491e-04,5.358751913e-04,9.931791423e-04,-4.431045450e-04,5.500745973e-04,7.477177276e-04,-4.216841747e-04,3.260335529e-04,1.042122981e-03,-3.495107864e-04,6.926121947e-04,9.586147027e-04,-2.554140174e-04,7.032006853e-04,1.185620487e-03,-3.889051596e-04,7.967153271e-04,3.002771836e-04,-2.111357937e-05,2.791636043e-04,-2.070305827e-04,-1.932291622e-05,-2.263534989e-04,1.521795773e-04,-4.614253821e-05,1.060370391e-04,3.014517696e-06,-1.253309109e-04,-1.223163932e-04,-3.281354466e-04,2.648965139e-05,-3.016457952e-04,-1.117173486e-03,-3.950226429e-05,-1.156675750e-03,4.362316607e-05,7.382570564e-05,1.174488717e-04,-4.505062479e-04,-1.064467228e-04,-5.569529707e-04,4.971227057e-04,-7.597691293e-05,4.211457928e-04,1.032600902e-03,-8.784829774e-05,9.447526040e-04,5.460011127e-04,-1.135302184e-04,4.324708943e-04,1.168442221e-03,-6.734211280e-05,1.101100108e-03,9.385850708e-04,-3.831632451e-04,5.554218256e-04,2.662299368e-05,-4.384917204e-05,-1.722617837e-05,-4.250058901e-04,2.009904946e-04,-2.240153956e-04,-8.410907617e-04,-7.756114695e-05,-9.186519086e-04,-7.897261833e-04,-4.735646917e-05,-8.370826525e-04,-3.388700300e-04,2.437462412e-04,-9.512378877e-05,5.981880774e-06,2.747564518e-05,3.345752596e-05,1.290238282e-04,-1.372910755e-04,-8.267247291e-06,5.848474019e-05,-8.035852917e-05,-2.187378899e-05,-8.716522491e-04,1.310463342e-04,-7.406059149e-04,-4.467790751e-04,-1.061119613e-04,-5.528910364e-04,-3.996227683e-04,1.147276247e-05,-3.881500058e-04,-7.874908800e-04,-8.957193104e-05,-8.770628110e-04
-9.3,1.432856564e-03,-4.613007093e-04,9.715558550e-04,1.053723565e-03,-4.066263202e-05,1.013060932e-03,1.019159014e-03,-2.238812619e-04,7.952777523e-04,7.728326482e-04,-1.532452671e-05,7.575081215e-04,1.074285579e-03,-3.038509923e-04,7.704345870e-04,6.606853673e-04,-1.558553952e-04,5.048299720e-04,9.456574948e-04,-4.380359240e-04,5.076215708e-04,7.134673052e-04,-4.184691299e-04,2.949981753e-04,9.934977170e-04,-3.473490206e-04,6.461486964e-04,9.192240783e-04,-2.488094441e-04,6.704146343e-04,1.136112342e-03,-3.725313488e-04,7.635809935e-04,2.460654916e-04,-1.340393788e-05,2.326615537e-04,-2.562642644e-04,-4.393414031e-06,-2.606576785e-04,1.171163708e-04,-5.105520690e-05,6.606116392e-05,-3.309724177e-05,-1.168956532e-04,-1.499928949e-04,-3.790088828e-04,3.174202377e-05,-3.472668590e-04,-1.132039238e-03,-6.708811469e-05,-1.199127353e-03,-1.339555008e-05,7.793520214e-05,6.453965205e-05,-5.061306663e-04,-9.004885011e-05,-5.961795164e-04,4.707376027e-04,-7.564953901e-05,3.950880637e-04,9.865013761e-04,-8.491816042e-05,9.015832157e-04,4.989380866e-04,-1.072712329e-04,3.916668537e-04,1.110569404e-03,-6.225116776e-05,1.048318236e-03,8.890918890e-04,-3.742166343e-04,5.148752547e-04,-2.426940311e-05,-3.403450755e-05,-5.830391066e-05,-4.825205495e-04,2.215953642e-04,-2.609251853e-04,-8.605530784e-04,-6.326934978e-05,-9.238224282e-04,-8.196327328e-04,-2.475424822e-05,-8.443869810e-04,-4.065242325e-04,3.010198265e-04,-1.055044061e-04,-2.045748316e-05,2.517864080e-05,4.721157637e-06,9.772742809e-05,-1.464646104e-04,-4.873718234e-05,1.866329457e-05,-7.969098076e-05,-6.102768619e-05,-8.791711611e-04,7.964129482e-05,-7.995298662e-04,-4.610426135e-04,-9.894594886e-05,-5.599885623e-04,-4.255156608e-04,2.531208498e-06,-4.229844523e-04,-7.312466805e-04,-1.734035529e-04,-9.046502334e-04
-9.2,1.349562169e-03,-4.469981604e-04,9.025640088e-04,9.946026150e-04,-4.250559189e-05,9.520970231e-04,9.656760353e-04,-2.209140522e-04,7.447619830e-04,7.395916431e-04,-1.933618086e-05,7.202554623e-04,1.014561654e-03,-3.018467505e-04,7.127149030e-04,6.305134186e-04,-1.567353857e-04,4.737780329e-04,8.973162314e-04,-4.321993593e-04,4.651168721e-04,6.785608859e-04,-4.141928491e-04,2.643680368e-04,9.439240260e-04,-3.444515437e-04,5.994724823e-04,8.788497010e-04,-2.417519449e-04,6.370977561e-04,1.086007317e-03,-3.557075396e-04,7.302997775e-04,1.924327392e-04,-6.266397753e-06,1.861663415e-04,-3.060947653e-04,1.274003424e-05,-2.933547310e-04,8.145699613e-05,-5.496285762e-05,2.649413851e-05,-6.967487512e-05,-1.071691163e-04,-1.768439914e-04,-4.284098553e-04,3.589522575e-05,-3.925146296e-04,-1.144959525e-03,-9.407754539e-05,-1.239037070e-03,-7.037542127e-05,8.226352582e-05,1.188810455e-05,-5.620107075e-04,-7.341422492e-05,-6.354249324e-04,4.438454718e-04,-7.526886571e-05,3.685766061e-04,9.393989962e-04,-8.186593662e-05,8.575330596e-04,4.519348318e-04,-1.007731309e-04,3.511617009e-04,1.052949758e-03,-5.762924091e-05,9.953205168e-04,8.401280069e-04,-3.649805215e-04,4.751474853e-04,-7.421587336e-05,-2.454564026e-05,-9.876151362e-05,-5.375264542e-04,2.412244438e-04,-2.963020104e-04,-8.844168910e-04,-4.191003599e-05,-9.263269270e-04,-8.514128431e-04,-1.015074544e-07,-8.515143505e-04,-4.747260201e-04,3.579037722e-04,-1.168222479e-04,-4.717401409e-05,2.343131488e-05,-2.374269921e-05,6.474692869e-05,-1.561359820e-04,-9.138905331e-05,-2.209893798e-05,-7.839708471e-05,-1.004960227e-04,-8.855334884e-04,2.951576054e-05,-8.560177278e-04,-4.759980183e-04,-9.251773442e-05,-5.685157527e-04,-4.521621474e-04,-5.435415426e-06,-4.575975629e-04,-6.753807005e-04,-2.533916247e-04,-9.287723252e-04
-9.1,1.266274729e-03,-4.322988812e-04,8.339758482e-04,9.347815984e-04,-4.403259949e-05,8.907489990e-04,9.122326145e-04,-2.175926336e-04,6.946399809e-04,7.061550943e-04,-2.297023227e-05,6.831848620e-04,9.546556650e-04,-2.989383267e-04,6.557173383e-04,6.000670993e-04,-1.572623179e-04,4.428047814e-04,8.482929802e-04,-4.255969017e-04,4.226960784e-04,6.430044604e-04,-4.087790794e-04,2.342253811e-04,8.935592998e-04,-3.408193799e-04,5.527399199e-04,8.376059172e-04,-2.342473942e-04,6.033585230e-04,1.035450511e-03,-3.384853044e-04,6.969652063e-04,1.395098857e-04,3.221886939e-07,1.398320744e-04,-3.562121218e-04,3.192732243e-05,-3.242847994e-04,4.527582870e-05,-5.778979622e-05,-1.251396752e-05,-1.065052232e-04,-9.622378700e-05,-2.027290102e-04,-4.761022807e-04,3.892551672e-05,-4.371767640e-04,-1.156013946e-03,-1.203711100e-04,-1.276385056e-03,-1.269663554e-04,8.668414091e-05,-4.028221446e-05,-6.177029416e-04,-5.670717352e-05,-6.744101152e-04,4.165559527e-04,-7.483147152e-05,3.417244812e-04,8.914845330e-04,-7.869721735e-05,8.127873156e-04,4.052215226e-04,-9.407655278e-05,3.111449698e-04,9.957249133e-04,-5.345934583e-05,9.422655675e-04,7.918926711e-04,-3.554534549e-04,4.364392162e-04,-1.229806955e-04,-1.542171154e-05,-1.384024071e-04,-5.898085370e-04,2.597788587e-04,-3.300296783e-04,-9.118909461e-04,-1.443537023e-05,-9.263263163e-04,-8.848625066e-04,2.633553373e-05,-8.585269728e-04,-5.427599475e-04,4.135890632e-04,-1.291708843e-04,-7.408814700e-05,2.227353288e-05,-5.181461411e-05,3.033634644e-05,-1.660566982e-04,-1.357203518e-04,-6.358239507e-05,-7.649605378e-05,-1.400784489e-04,-8.907646137e-04,-1.888531702e-05,-9.096499307e-04,-4.915602037e-04,-8.687196348e-05,-5.784321672e-04,-4.793527226e-04,-1.236721760e-05,-4.917199401e-04,-6.208851881e-04,-3.283941112e-04,-9.492792993e-04
-9,1.183293321e-03,-4.172173586e-04,7.660759620e-04,8.745034126e-04,-4.523955236e-05,8.292638602e-04,8.589660870e-04,-2.139059051e-04,6.450601820e-04,6.726538357e-04,-2.623681407e-05,6.464170216e-04,8.947354483e-04,-2.951549852e-04,5.995804632e-04,5.694149495e-04,-1.574248810e-04,4.119900685e-04,7.987225268e-04,-4.182336814e-04,3.804888454e-04,6.068000138e-04,-4.021586699e-04,2.046413439e-04,8.425581925e-04,-3.364558309e-04,5.061023616e-04,7.956055715e-04,-2.263041348e-04,5.693014367e-04,9.845817795e-04,-3.209163414e-04,6.636654380e-04,8.741395464e-05,6.391078112e-06,9.380503275e-05,-4.062845251e-04,5.297786347e-05,-3.533066616e-04,8.658778886e-06,-5.948193428e-05,-5.082315540e-05,-1.433717497e-04,-8.415161660e-05,-2.275233663e-04,-5.218706671e-04,4.083795691e-05,-4.810327102e-04,-1.165291691e-03,-1.458688357e-04,-1.311160527e-03,-1.828174167e-04,9.106946414e-05,-9.174795260e-05,-6.727760438e-04,-4.007638153e-05,-7.128524253e-04,3.889727268e-04,-7.433245596e-05,3.146402709e-04,8.429447898e-04,-7.541800777e-05,7.675267821e-04,3.590186398e-04,-8.722675509e-05,2.717918847e-04,9.390187519e-04,-4.971759019e-05,8.893011617e-04,7.445664386e-04,-3.456324093e-04,3.989340293e-04,-1.703494116e-04,-6.691581663e-06,-1.770409933e-04,-6.391898687e-04,2.771749883e-04,-3.620148804e-04,-9.421616792e-04,1.812368680e-05,-9.240379924e-04,-9.197493584e-04,5.426374521e-05,-8.654856132e-04,-6.099228253e-04,4.672850769e-04,-1.426377484e-04,-1.011247978e-04,2.174219747e-05,-7.938260038e-05,-5.289647185e-06,-1.759621231e-04,-1.812517703e-04,-1.055532629e-04,-7.401973992e-05,-1.795730028e-04,-8.948579663e-04,-6.518181744e-05,-9.600397838e-04,-5.076406262e-04,-8.202957457e-05,-5.896702007e-04,-5.068546064e-04,-1.823368058e-05,-5.250882870e-04,-5.687158088e-04,-3.972983905e-04,-9.660141993e-04
-8.9,1.100907179e-03,-4.017745408e-04,6.991326385e-04,8.140011150e-04,-4.612491954e-05,7.678761954e-04,8.060025166e-04,-2.098452366e-04,5.961572800e-04,6.392088751e-04,-2.914688932e-05,6.100619858e-04,8.349590421e-04,-2.905282677e-04,5.444307744e-04,5.386205112e-04,-1.572134010e-04,3.814071102e-04,7.487345188e-04,-4.101178008e-04,3.386167181e-04,5.699490072e-04,-3.942735681e-04,1.756754391e-04,7.910705682e-04,-3.313664057e-04,4.597041625e-04,7.529594677e-04,-2.179331707e-04,5.350262970e-04,9.335345490e-04,-3.030524561e-04,6.304820928e-04,3.624777177e-05,1.197429199e-05,4.822206376e-05,-4.559648567e-04,7.566452527e-05,-3.803003314e-04,-2.829744149e-05,-6.001048622e-05,-8.830792771e-05,-1.800574872e-04,-7.106372357e-05,-2.511212108e-04,-5.655236028e-04,4.166558806e-05,-5.238580148e-04,-1.172898639e-03,-1.704583047e-04,-1.343356944e-03,-2.375858429e-04,9.529520558e-05,-1.422906373e-04,-7.268136717e-04,-2.365796519e-05,-7.504716369e-04,3.611927664e-04,-7.376539864e-05,2.874273678e-04,7.939612667e-04,-7.203486536e-05,7.219264013e-04,3.135347587e-04,-8.027317496e-05,2.332615838e-04,8.829374141e-04,-4.637370657e-05,8.365637075e-04,6.983114196e-04,-3.355136322e-04,3.627977875e-04,-2.161322485e-04,1.625052814e-06,-2.145071957e-04,-6.855296350e-04,2.933415774e-04,-3.921880577e-04,-9.744238849e-04,5.469641662e-05,-9.197274683e-04,-9.558084645e-04,8.336378309e-05,-8.724446814e-04,-6.755382946e-04,5.182375983e-04,-1.573006963e-04,-1.282115883e-04,2.186903194e-05,-1.063425564e-04,-4.195205673e-05,-1.855703617e-04,-2.275224184e-04,-1.477658796e-04,-7.101233890e-05,-2.187782185e-04,-8.977813488e-04,-1.090563396e-04,-1.006837688e-03,-5.241501248e-04,-7.798839974e-05,-6.021385245e-04,-5.344191591e-04,-2.303106828e-05,-5.574502274e-04,-5.197881367e-04,-4.590420461e-04,-9.788301829e-04
-8.8,1.019395212e-03,-3.859980020e-04,6.333972099e-04,7.534969038e-04,-4.668970866e-05,7.068071952e-04,7.534571153e-04,-2.054047284e-04,5.480523869e-04,6.059314421e-04,-3.171232576e-05,5.742191163e-04,7.754754725e-04,-2.850916363e-04,4.903838362e-04,5.077428292e-04,-1.566198014e-04,3.511230278e-04,6.984533081e-04,-4.012601717e-04,2.971931365e-04,5.324571669e-04,-3.850804538e-04,1.473767131e-04,7.392413644e-04,-3.255587581e-04,4.136826063e-04,7.097768690e-04,-2.091483530e-04,5.006285160e-04,8.824361908e-04,-2.849455330e-04,5.974906578e-04,-1.389854264e-05,1.710937249e-05,3.210829850e-06,-5.048960460e-04,9.972780129e-05,-4.051682447e-04,-6.548403835e-05,-5.937451524e-05,-1.248585536e-04,-2.163464084e-04,-5.708974841e-05,-2.734361568e-04,-6.068958458e-04,4.146794016e-05,-5.654279056e-04,-1.178963323e-03,-1.940060183e-04,-1.372969341e-03,-2.909436289e-04,9.924509533e-05,-1.916985336e-04,-7.794156289e-04,-7.578777514e-06,-7.869944064e-04,3.333064780e-04,-7.312219874e-05,2.601842793e-04,7.447097806e-04,-6.855495104e-05,6.761548295e-04,2.689656454e-04,-7.326869251e-05,1.956969529e-04,8.275707833e-04,-4.339162518e-05,7.841791582e-04,6.532730797e-04,-3.250935525e-04,3.281795272e-04,-2.601645127e-04,9.515411986e-06,-2.506491007e-04,-7.287181873e-04,3.082163523e-04,-4.205018350e-04,-1.007903644e-03,9.420900902e-05,-9.136946348e-04,-9.927382760e-04,1.132918348e-04,-8.794464412e-04,-7.389687031e-04,5.657462467e-04,-1.732224565e-04,-1.552754638e-04,2.267837929e-05,-1.325970845e-04,-7.949968110e-05,-1.945843935e-04,-2.740840746e-04,-1.899642659e-04,-6.752924871e-05,-2.574935147e-04,-8.994840335e-04,-1.502486634e-04,-1.049732697e-03,-5.409995318e-04,-7.472550987e-05,-6.157250417e-04,-5.617891849e-04,-2.677837296e-05,-5.885675579e-04,-4.749723375e-04,-5.126365184e-04,-9.876088560e-04
-8.7,9.390268725e-04,-3.699219414e-04,5.691049311e-04,6.932024311e-04,-4.693742201e-05,6.462650091e-04,7.014365248e-04,-2.005814747e-04,5.008550501e-04,5.729243894e-04,-3.394603627e-05,5.389783532e-04,7.164290708e-04,-2.788801579e-04,4.375489129e-04,4.768388244e-04,-1.556375684e-04,3.212012560e-04,6.480002672e-04,-3.916743289e-04,2.563259384e-04,4.943401377e-04,-3.745535478e-04,1.197865898e-04,6.872122864e-04,-3.190426031e-04,3.681696832e-04,6.661671502e-04,-1.999665469e-04,4.662006033e-04,8.314098998e-04,-2.666474890e-04,5.647624107e-04,-6.294313075e-05,2.183595836e-05,-4.110717239e-05,-5.527137599e-04,1.248795615e-04,-4.278341984e-04,-1.027773091e-04,-5.760121632e-05,-1.603785254e-04,-2.520241367e-04,-4.237561942e-05,-2.943997561e-04,-6.458471755e-04,4.032829443e-05,-6.055188811e-04,-1.183639506e-03,-2.163529396e-04,-1.399992446e-03,-3.425791376e-04,1.028150621e-04,-2.397640755e-04,-8.301969735e-04,8.041334549e-06,-8.221556389e-04,3.053988922e-04,-7.239291184e-05,2.330059803e-04,6.953610721e-04,-6.498600104e-05,6.303750711e-04,2.254946671e-04,-6.626854287e-05,1.592261242e-04,7.729950969e-04,-4.072994119e-05,7.322651557e-04,6.095835386e-04,-3.143702733e-04,2.952132652e-04,-3.023027614e-04,1.697049717e-05,-2.853322643e-04,-7.686688075e-04,3.217429218e-04,-4.469258858e-04,-1.041870662e-03,1.356169257e-04,-9.062537359e-04,-1.030197966e-03,1.436845899e-04,-8.865133757e-04,-7.996205687e-04,6.091771640e-04,-1.904434047e-04,-1.822385781e-04,2.418559757e-05,-1.580529805e-04,-1.178012667e-04,-2.026955440e-04,-3.204968107e-04,-2.318828601e-04,-6.363494344e-05,-2.955178035e-04,-8.999006803e-04,-1.885496052e-04,-1.088450286e-03,-5.580971952e-04,-7.220041871e-05,-6.302976139e-04,-5.887051234e-04,-2.951222395e-05,-6.182173474e-04,-4.350796069e-04,-5.571964423e-04,-9.922760493e-04
-8.6,8.600638701e-04,-3.535870333e-04,5.064768368e-04,6.333202391e-04,-4.687411500e-05,5.864461241e-04,6.500421515e-04,-1.953757784e-04,4.546663730e-04,5.402843824e-04,-3.586213954e-05,5.044222428e-04,6.579649649e-04,-2.719302997e-04,3.860346652e-04,4.459664502e-04,-1.542618242e-04,2.917046260e-04,5.974971086e-04,-3.813762660e-04,2.161208426e-04,4.556283436e-04,-3.626863255e-04,9.294201808e-05,6.351239057e-04,-3.118296402e-04,3.232942655e-04,6.222418655e-04,-1.904077822e-04,4.318340833e-04,7.805769339e-04,-2.482102858e-04,5.323666481e-04,-1.108055222e-04,2.619410280e-05,-8.461141940e-05,-5.990475061e-04,1.508071635e-04,-4.482403426e-04,-1.400360461e-04,-5.474372461e-05,-1.947797707e-04,-2.868798154e-04,-2.707887461e-05,-3.139586900e-04,-6.822582955e-04,3.834981965e-05,-6.439084758e-04,-1.187104783e-03,-2.373136879e-04,-1.424418471e-03,-3.921946676e-04,1.059162268e-04,-2.862784408e-04,-8.787868956e-04,2.308933651e-05,-8.556975591e-04,2.775513393e-04,-7.156581647e-05,2.059855228e-04,6.460818625e-04,-6.133639059e-05,5.847454719e-04,1.832937484e-04,-5.932912376e-05,1.239646246e-04,7.192757109e-04,-3.834233439e-05,6.809333765e-04,5.673653410e-04,-3.033459965e-04,2.640193446e-04,-3.424185561e-04,2.398205373e-05,-3.184365024e-04,-8.053080784e-04,3.338682294e-04,-4.714398491e-04,-1.075641261e-03,1.779309003e-04,-8.977103612e-04,-1.067807072e-03,1.741670523e-04,-8.936400201e-04,-8.569428059e-04,6.479685607e-04,-2.089742452e-04,-2.090146207e-04,2.639606237e-05,-1.826185583e-04,-1.567384647e-04,-2.095894758e-04,-3.663279404e-04,-2.732475999e-04,-5.939997573e-05,-3.326475757e-04,-8.989515109e-04,-2.237957993e-04,-1.122747310e-03,-5.753448970e-04,-7.035748411e-05,-6.457023811e-04,-6.149096817e-04,-3.128175132e-05,-6.461914330e-04,-4.008411872e-04,-5.919739512e-04,-9.928151384e-04
-8.5,7.827614762e-04,-3.370401388e-04,4.457213373e-04,5.740454183e-04,-4.650857341e-05,5.275368449e-04,5.993730814e-04,-1.897912791e-04,4.095818023e-04,5.081037629e-04,-3.747607575e-05,4.706276871e-04,6.002324483e-04,-2.642798525e-04,3.359525958e-04,4.151869243e-04,-1.524895625e-04,2.626973619e-04,5.470680612e-04,-3.703843545e-04,1.766837067e-04,4.163695378e-04,-3.494922754e-04,6.687726243e-05,5.831165841e-04,-3.039335400e-04,2.791830441e-04,5.781161722e-04,-1.804953914e-04,3.976207808e-04,7.300578991e-04,-2.296860959e-04,5.003718032e-04,-1.573994797e-04,3.022266568e-05,-1.271768141e-04,-6.435227913e-04,1.771792406e-04,-4.663435507e-04,-1.771010285e-04,-5.087691861e-05,-2.279779471e-04,-3.207098831e-04,-1.136227600e-05,-3.320721591e-04,-7.160261510e-04,3.565136098e-05,-6.803747900e-04,-1.189556403e-03,-2.566784167e-04,-1.446234819e-03,-4.395039900e-04,1.084767758e-04,-3.310272141e-04,-9.248295287e-04,3.746040893e-05,-8.873691198e-04,2.498427852e-04,-7.062781915e-05,1.792149661e-04,5.970356037e-04,-5.761537262e-05,5.394202311e-04,1.425238816e-04,-5.250694239e-05,9.001693925e-05,6.664692364e-04,-3.617817297e-05,6.302910634e-04,5.267341574e-04,-2.920299718e-04,2.347041856e-04,-3.803930981e-04,3.054058717e-05,-3.498525109e-04,-8.385682301e-04,3.445407484e-04,-4.940274817e-04,-1.108576583e-03,2.202355252e-04,-8.883410576e-04,-1.105147634e-03,2.043606287e-04,-9.007870057e-04,-9.104216175e-04,6.816317659e-04,-2.287898516e-04,-2.355062247e-04,2.930422587e-05,-2.062019989e-04,-1.961952564e-04,-2.149606303e-04,-4.111558867e-04,-3.137787324e-04,-5.489747286e-05,-3.686762052e-04,-8.965421334e-04,-2.558650022e-04,-1.152407136e-03,-5.926347241e-04,-6.912695764e-05,-6.617616817e-04,-6.401514458e-04,-3.214422761e-05,-6.722956734e-04,-3.728834904e-04,-6.163949512e-04,-9.892784416e-04
-8.4,7.073685063e-04,-3.203338821e-04,3.870346242e-04,5.155665895e-04,-4.585254498e-05,4.697140445e-04,5.495275683e-04,-1.838350104e-04,3.656925580e-04,4.764712732e-04,-3.880465514e-05,4.376666181e-04,5.433844735e-04,-2.559679382e-04,2.874165352e-04,3.845649912e-04,-1.503200025e-04,2.342449888e-04,4.968396790e-04,-3.587193512e-04,1.381203277e-04,3.766286172e-04,-3.350050030e-04,4.162361418e-05,5.313296170e-04,-2.953699997e-04,2.359596173e-04,5.339089909e-04,-1.702561013e-04,3.636528896e-04,6.799725142e-04,-2.111276047e-04,4.688449095e-04,-2.026278769e-04,3.395828576e-05,-1.686695912e-04,-6.857657657e-04,2.036531973e-04,-4.821125685e-04,-2.137973813e-04,-4.609186101e-05,-2.598892423e-04,-3.533230203e-04,4.612488075e-06,-3.487105323e-04,-7.470609631e-04,3.236346633e-05,-7.146974968e-04,-1.191206099e-03,-2.742173053e-04,-1.465423405e-03,-4.842334074e-04,1.104430238e-04,-3.737903836e-04,-9.679877902e-04,5.105967970e-05,-9.169281105e-04,2.223503626e-04,-6.956511498e-05,1.527852477e-04,5.483824324e-04,-5.383333741e-05,4.945490949e-04,1.033346879e-04,-4.585769683e-05,5.747699107e-05,6.146250125e-04,-3.418360082e-05,5.804414117e-04,4.877995824e-04,-2.804412313e-04,2.073583511e-04,-4.161150485e-04,3.663478746e-05,-3.794802611e-04,-8.683839313e-04,3.537098352e-04,-5.146740961e-04,-1.140080423e-03,2.617006509e-04,-8.783797721e-04,-1.141768696e-03,2.338894275e-04,-9.078792685e-04,-9.595771995e-04,7.097523734e-04,-2.498248262e-04,-2.616035817e-04,3.289228442e-05,-2.287112973e-04,-2.360393200e-04,-2.185392673e-04,-4.545785873e-04,-3.531956747e-04,-5.019970049e-05,-4.033953752e-04,-8.925668497e-04,-2.846710099e-04,-1.177237860e-03,-6.098483718e-04,-6.842577452e-05,-6.782741463e-04,-6.641884709e-04,-3.216161468e-05,-6.963500856e-04,-3.517013095e-04,-6.300937591e-04,-9.817950686e-04
-8.3,6.341258915e-04,-3.035260660e-04,3.305998255e-04,4.580658954e-04,-4.492096617e-05,4.131449293e-04,5.006030785e-04,-1.775174190e-04,3.230856595e-04,4.454715909e-04,-3.986605637e-05,4.056055346e-04,4.875738370e-04,-2.470350398e-04,2.405387972e-04,3.541673246e-04,-1.477549217e-04,2.064124029e-04,4.469384929e-04,-3.464044098e-04,1.005340831e-04,3.364851692e-04,-3.192777647e-04,1.720740453e-05,4.798990369e-04,-2.861567991e-04,1.937422379e-04,4.897419696e-04,-1.597200062e-04,3.300219634e-04,6.304381759e-04,-1.925882882e-04,4.378498878e-04,-2.463805700e-04,3.743512360e-05,-2.089454464e-04,-7.254096128e-04,2.298830752e-04,-4.955265376e-04,-2.499392687e-04,-4.048965211e-05,-2.904289208e-04,-3.845451133e-04,2.068974491e-05,-3.638553684e-04,-7.752855557e-04,2.862478609e-05,-7.466607696e-04,-1.192274929e-03,-2.896883918e-04,-1.481963321e-03,-5.261267116e-04,1.117796437e-04,-4.143470679e-04,-1.007950393e-03,6.380346578e-05,-9.441469273e-04,1.951491754e-04,-6.836396063e-05,1.267852147e-04,5.002783233e-04,-5.000187822e-05,4.502764450e-04,6.586322413e-05,-3.943535226e-05,2.642787187e-05,5.637863652e-04,-3.230324869e-05,5.314831165e-04,4.506646016e-04,-2.686108065e-04,1.820537950e-04,-4.494815883e-04,4.225205967e-05,-4.072295287e-04,-8.946936545e-04,3.613266521e-04,-5.333670024e-04,-1.169598387e-03,3.015859196e-04,-8.680124669e-04,-1.177193291e-03,2.623848618e-04,-9.148084290e-04,-1.003964683e-03,7.319936648e-04,-2.719710185e-04,-2.871842168e-04,3.712859492e-05,-2.500556219e-04,-2.760973892e-04,-2.201261882e-04,-4.962235774e-04,-3.912229446e-04,-4.537526370e-05,-4.365982083e-04,-8.869161203e-04,-3.101586987e-04,-1.197074819e-03,-6.268587082e-04,-6.815912619e-05,-6.950178344e-04,-6.867921582e-04,-3.139789368e-05,-7.181900519e-04,-3.376330609e-04,-6.329403083e-04,-9.705733693e-04
-8.2,5.632644176e-04,-2.866788782e-04,2.765855394e-04,4.017182845e-04,-4.373214975e-05,3.579861347e-04,4.526956400e-04,-1.708523399e-04,2.818433001e-04,4.151842763e-04,-4.067979280e-05,3.745044835e-04,4.329482942e-04,-2.375229930e-04,1.954253012e-04,3.240600879e-04,-1.447987890e-04,1.792612989e-04,3.974878437e-04,-3.334649930e-04,6.402285066e-05,2.960296222e-04,-3.023822216e-04,-6.352599437e-06,4.289552113e-04,-2.763137975e-04,1.526414137e-04,4.457378609e-04,-1.489203826e-04,2.968174783e-04,5.815682186e-04,-1.741225071e-04,4.074457115e-04,-2.885345375e-04,4.068517701e-05,-2.478493605e-04,-7.621010014e-04,2.555263579e-04,-5.065746435e-04,-2.853354797e-04,-3.417564987e-05,-3.195111296e-04,-4.142230028e-04,3.672305408e-05,-3.774999487e-04,-8.006359164e-04,2.457869118e-05,-7.760572253e-04,-1.192987919e-03,-3.028489965e-04,-1.495836915e-03,-5.649518445e-04,1.124689587e-04,-4.524828858e-04,-1.044440885e-03,7.561979696e-05,-9.688210882e-04,1.683118773e-04,-6.701149211e-05,1.013003852e-04,4.528739207e-04,-4.613364874e-05,4.067402719e-04,3.023271252e-05,-3.329115631e-05,-3.058443794e-06,5.139921446e-04,-3.048234287e-05,4.835098017e-04,4.154251662e-04,-2.565835282e-04,1.588416380e-04,-4.804010665e-04,4.737957710e-05,-4.330214894e-04,-9.174439804e-04,3.673469611e-04,-5.500970193e-04,-1.196618028e-03,3.392390414e-04,-8.573789866e-04,-1.210927944e-03,2.894900381e-04,-9.214379058e-04,-1.043178094e-03,7.481013021e-04,-2.950767920e-04,-3.121135957e-04,4.196635337e-05,-2.701472424e-04,-3.161326786e-04,-2.196237343e-04,-5.357564128e-04,-4.275957060e-04,-4.048722712e-05,-4.680829331e-04,-8.794858678e-04,-3.323008373e-04,-1.211786705e-03,-6.435326732e-04,-6.822247771e-05,-7.117551509e-04,-7.077508965e-04,-2.991721775e-05,-7.376681142e-04,-3.308445257e-04,-6.250527295e-04,-9.558972553e-04
-8.1,4.950025637e-04,-2.698578361e-04,2.251447277e-04,3.466907513e-04,-4.230787071e-05,3.043828806e-04,4.058995933e-04,-1.638568840e-04,2.420427092e-04,3.856830512e-04,-4.126665193e-05,3.444163993e-04,3.796475318e-04,-2.274748816e-04,1.521726502e-04,2.943071452e-04,-1.414586151e-04,1.528485301e-04,3.486057873e-04,-3.199286640e-04,2.867712326e-05,2.553592270e-04,-2.844060599e-04,-2.904683292e-05,3.786216562e-04,-2.658628884e-04,1.127587677e-04,4.020192346e-04,-1.378934008e-04,2.641258338e-04,5.334710105e-04,-1.557854132e-04,3.776855973e-04,-3.289546159e-04,4.373875946e-05,-2.852158564e-04,-7.955050819e-04,2.802488397e-04,-5.152562422e-04,-3.197941351e-04,-2.725476947e-05,-3.470489045e-04,-4.422255004e-04,5.257653653e-05,-3.896489639e-04,-8.230611557e-04,2.036979227e-05,-8.026913635e-04,-1.193567061e-03,-3.134697155e-04,-1.507036776e-03,-6.005063730e-04,1.125096575e-04,-4.879967155e-04,-1.077226042e-03,8.644851358e-05,-9.907775288e-04,1.419087405e-04,-6.549658407e-05,7.641215638e-05,4.063137768e-04,-4.224218501e-05,3.640715918e-04,-3.448084113e-06,-2.747259062e-05,-3.092067474e-05,4.652789599e-04,-2.866879016e-05,4.366101697e-04,3.821710309e-04,-2.444193528e-04,1.377516780e-04,-5.087949492e-04,5.200530569e-05,-4.567896435e-04,-9.365941784e-04,3.717356660e-04,-5.648585124e-04,-1.220670073e-03,3.740898977e-04,-8.465801755e-04,-1.242474363e-03,3.148653615e-04,-9.276090019e-04,-1.076854200e-03,7.579067159e-04,-3.189474839e-04,-3.362459539e-04,4.734303747e-05,-2.889029165e-04,-3.558305088e-04,-2.170545927e-04,-5.728851015e-04,-4.620636475e-04,-3.559208077e-05,-4.976557283e-04,-8.701856705e-04,-3.510976419e-04,-1.221283312e-03,-6.597345301e-04,-6.850302478e-05,-7.282375549e-04,-7.268727474e-04,-2.778297336e-05,-7.546557208e-04,-3.313231576e-04,-6.067927026e-04,-9.381158602e-04
-8,4.295453197e-04,-2.531304348e-04,1.764148849e-04,2.931422686e-04,-4.067326994e-05,2.524689986e-04,3.603086219e-04,-1.565512123e-04,2.037574095e-04,3.570361673e-04,-4.164861779e-05,3.153875495e-04,3.278039929e-04,-2.169348269e-04,1.108691660e-04,2.649701106e-04,-1.377436291e-04,1.272264815e-04,3.004054677e-04,-3.058248226e-04,-5.419354894e-06,2.145752255e-04,-2.654492228e-04,-5.087399728e-05,3.290159191e-04,-2.548279761e-04,7.418794293e-05,3.587082446e-04,-1.266778417e-04,2.320304028e-04,4.862506085e-04,-1.376327905e-04,3.486178180e-04,-3.674934305e-04,4.662462743e-05,-3.208688031e-04,-8.253081901e-04,3.037273740e-04,-5.215808160e-04,-3.531251982e-04,-1.982796867e-05,-3.729531668e-04,-4.684406465e-04,6.812412805e-05,-4.003165185e-04,-8.425212369e-04,1.614022098e-05,-8.263810159e-04,-1.194220775e-03,-3.213490244e-04,-1.515569799e-03,-6.326193150e-04,1.119155468e-04,-5.207037682e-04,-1.106120979e-03,9.624174663e-05,-1.009879233e-03,1.160086592e-04,-6.381066051e-05,5.219799870e-05,3.607364533e-04,-3.834180595e-05,3.223946473e-04,-3.508450006e-05,-2.202223411e-05,-5.710673417e-05,4.176842317e-04,-2.681498657e-05,3.908692451e-04,3.509877399e-04,-2.321938116e-04,1.187939283e-04,-5.345970254e-04,5.611846559e-05,-4.784785598e-04,-9.521181837e-04,3.744720104e-04,-5.776461732e-04,-1.241331765e-03,4.056442420e-04,-8.356875229e-04,-1.271342720e-03,3.381961363e-04,-9.331465839e-04,-1.104674786e-03,7.613279479e-04,-3.433468384e-04,-3.594249500e-04,5.318088595e-05,-3.062440640e-04,-3.947932123e-04,-2.125661318e-04,-6.073593442e-04,-4.943925866e-04,-3.073923844e-05,-5.251318250e-04,-8.589443826e-04,-3.665783986e-04,-1.225522781e-03,-6.753287546e-04,-6.888020010e-05,-7.442089547e-04,-7.439865361e-04,-2.505787138e-05,-7.690444075e-04,-3.388787275e-04,-5.787478848e-04,-9.176266123e-04
-7.9,3.670841752e-04,-2.365645663e-04,1.305196088e-04,2.412246798e-04,-3.885655773e-05,2.023681221e-04,3.160179885e-04,-1.489582329e-04,1.670597556e-04,3.293078838e-04,-4.184880151e-05,2.874590823e-04,2.775468553e-04,-2.059477549e-04,7.159910038e-05,2.361101771e-04,-1.336650158e-04,1.024451613e-04,2.529976472e-04,-2.911844801e-04,-3.818683294e-05,1.737817889e-04,-2.456189630e-04,-7.183717407e-05,2.802519370e-04,-2.432349999e-04,3.701693704e-05,3.159273395e-04,-1.153148482e-04,2.006124912e-04,4.400085677e-04,-1.197209446e-04,3.202876231e-04,-4.039904300e-04,4.936941685e-05,-3.546210132e-04,-8.512183687e-04,3.256511503e-04,-5.255672184e-04,-3.851407325e-04,-1.198985733e-05,-3.971305898e-04,-4.927700257e-04,8.324711174e-05,-4.095229140e-04,-8.589819153e-04,1.202568706e-05,-8.469562283e-04,-1.195129325e-03,-3.263263706e-04,-1.521455696e-03,-6.611484236e-04,1.107145136e-04,-5.504339100e-04,-1.130990176e-03,1.049652841e-04,-1.026024892e-03,9.068082055e-05,-6.194826957e-05,2.873255098e-05,3.162752204e-04,-3.444754415e-05,2.818276763e-04,-6.459489988e-05,-1.697660251e-05,-8.157150239e-05,3.712494704e-04,-2.487932321e-05,3.463701472e-04,3.219583583e-04,-2.199971462e-04,1.019612121e-04,-5.577493816e-04,5.970909505e-05,-4.980402865e-04,-9.640027504e-04,3.755536372e-04,-5.884491132e-04,-1.258233245e-03,4.334809375e-04,-8.247523075e-04,-1.297065172e-03,3.592014893e-04,-9.378636824e-04,-1.126369254e-03,7.583695706e-04,-3.679996831e-04,-3.814844268e-04,5.938833379e-05,-3.220960930e-04,-4.325435597e-04,-2.064217267e-04,-6.389652863e-04,-5.243645292e-04,-2.597071399e-05,-5.503352432e-04,-8.457145884e-04,-3.788030091e-04,-1.224517598e-03,-6.901825023e-04,-6.922569478e-05,-7.594081971e-04,-7.589412137e-04,-2.180517438e-05,-7.807463881e-04,-3.531463281e-04,-5.417074125e-04,-8.948537406e-04
-7.8,3.077975183e-04,-2.202269502e-04,8.757056812e-05,1.910840172e-04,-3.688857262e-05,1.541954445e-04,2.731268068e-04,-1.411032938e-04,1.320235130e-04,3.025602171e-04,-4.189139801e-05,2.606688191e-04,2.290060482e-04,-1.945592577e-04,3.444679050e-05,2.077903486e-04,-1.292358704e-04,7.855447821e-05,2.064934918e-04,-2.760401274e-04,-6.954663557e-05,1.330861683e-04,-2.250246525e-04,-9.193848417e-05,2.324422051e-04,-2.311119580e-04,1.330247123e-06,2.738000046e-04,-1.038476312e-04,1.699523734e-04,3.948455644e-04,-1.021066376e-04,2.927389268e-04,-4.382712555e-04,5.199646322e-05,-3.862747923e-04,-8.729647716e-04,3.457227427e-04,-5.272420289e-04,-4.156540900e-04,-3.827722795e-06,-4.194818128e-04,-5.151227205e-04,9.783116608e-05,-4.172915545e-04,-8.724080476e-04,8.151296926e-06,-8.642567507e-04,-1.196427972e-03,-3.282918751e-04,-1.524719847e-03,-6.859747937e-04,1.089473286e-04,-5.770274651e-04,-1.151745349e-03,1.126001597e-04,-1.039145190e-03,6.599626588e-05,-5.990738141e-05,6.088884461e-06,2.730585900e-04,-3.057505406e-05,2.424835359e-04,-9.190965073e-05,-1.236516309e-05,-1.042748138e-04,3.260226569e-04,-2.282738851e-05,3.031952684e-04,2.951634440e-04,-2.079320096e-04,8.723143438e-05,-5.781971768e-04,6.276702036e-05,-5.154301564e-04,-9.722435579e-04,3.749983682e-04,-5.972451896e-04,-1.271066581e-03,4.572538959e-04,-8.138126854e-04,-1.319207465e-03,3.776422761e-04,-9.415651887e-04,-1.141719732e-03,7.491234270e-04,-3.925963051e-04,-4.022501053e-04,6.586202686e-05,-3.363880784e-04,-4.685344878e-04,-1.989843899e-04,-6.675188777e-04,-5.517779644e-04,-2.132077694e-05,-5.730987413e-04,-8.304790494e-04,-3.878606769e-04,-1.218339726e-03,-7.041680926e-04,-6.940385614e-05,-7.735719487e-04,-7.716045588e-04,-1.809056005e-05,-7.896951188e-04,-3.735919351e-04,-4.966339032e-04,-8.702258383e-04
-7.7,2.518503430e-04,-2.041818418e-04,4.766850124e-05,1.428613053e-04,-3.480225398e-05,1.080590513e-04,2.317389572e-04,-1.330138753e-04,9.872508194e-05,2.768539226e-04,-4.180164223e-05,2.350522804e-04,1.823133274e-04,-1.828155770e-04,-5.022495789e-07,1.800765179e-04,-1.244713481e-04,5.560516988e-05,1.610056972e-04,-2.604256942e-04,-9.941999701e-05,9.259905381e-05,-2.037735904e-04,-1.111745366e-04,1.856984168e-04,-2.184888850e-04,-3.279046818e-05,2.324506216e-04,-9.232107273e-05,1.401295489e-04,3.508616516e-04,-8.484700146e-05,2.660146501e-04,-4.701488784e-04,5.452432277e-05,-4.156245557e-04,-8.902978575e-04,3.636601326e-04,-5.266377249e-04,-4.444795753e-04,4.577825247e-06,-4.399017501e-04,-5.354113770e-04,1.117642867e-04,-4.236470903e-04,-8.827581758e-04,4.627633257e-06,-8.781305425e-04,-1.198191248e-03,-3.271917247e-04,-1.525382972e-03,-7.069984130e-04,1.066658497e-04,-6.003325633e-04,-1.168341715e-03,1.191432580e-04,-1.049198457e-03,4.202865481e-05,-5.768958048e-05,-1.566092567e-05,2.312100783e-04,-2.674056881e-05,2.044695095e-04,-1.169708083e-04,-8.209717407e-06,-1.251805257e-04,2.820588195e-04,-2.063277951e-05,2.614260400e-04,2.706789262e-04,-1.961098811e-04,7.456904506e-05,-5.958853657e-04,6.528102692e-05,-5.306043388e-04,-9.768426752e-04,3.728441207e-04,-6.039985546e-04,-1.279595236e-03,4.766960479e-04,-8.028991884e-04,-1.337377238e-03,3.933260235e-04,-9.440512149e-04,-1.150568496e-03,7.337695133e-04,-4.167989825e-04,-4.215428896e-04,7.248898643e-05,-3.490539032e-04,-5.021609398e-04,-1.907006146e-04,-6.928615544e-04,-5.764498200e-04,-1.681553903e-05,-5.932653590e-04,-8.132602212e-04,-3.938641653e-04,-1.207124387e-03,-7.171659408e-04,-6.927310442e-05,-7.864390452e-04,-7.818631029e-04,-1.398340303e-05,-7.958465059e-04,-3.995227812e-04,-4.446337817e-04,-8.441565629e-04
-7.6,1.993926754e-04,-1.884900957e-04,1.090257975e-05,9.669227244e-05,-3.263204299e-05,6.406022945e-05,1.919620220e-04,-1.247192060e-04,6.724281591e-05,2.522482088e-04,-4.160570231e-05,2.106425064e-04,1.375995606e-04,-1.707636244e-04,-3.316406388e-05,1.530367373e-04,-1.193888734e-04,3.364786390e-05,1.166473014e-04,-2.443765623e-04,-1.277292609e-04,5.243442600e-05,-1.819685205e-04,-1.295340945e-04,1.401303478e-04,-2.053977962e-04,-6.526744841e-05,1.920031504e-04,-8.078127324e-05,1.112218772e-04,3.081548946e-04,-6.799938037e-05,2.401555142e-04,-4.994272960e-04,5.696545466e-05,-4.424618414e-04,-9.029922702e-04,3.792001846e-04,-5.237920856e-04,-4.714335607e-04,1.315110874e-05,-4.582824520e-04,-5.535513830e-04,1.249361991e-04,-4.286151839e-04,-8.899834866e-04,1.548239590e-06,-8.884352470e-04,-1.200421066e-03,-3.230304179e-04,-1.523451484e-03,-7.241371915e-04,1.039303827e-04,-6.202068088e-04,-1.180774296e-03,1.246065306e-04,-1.056167766e-03,1.885390391e-05,-5.530026214e-05,-3.644635822e-05,1.908470972e-04,-2.296098816e-05,1.678861091e-04,-1.397326984e-04,-4.524184663e-06,-1.442568830e-04,2.394186577e-04,-1.827740704e-05,2.211412507e-04,2.485727697e-04,-1.846465682e-04,6.392620145e-05,-6.107589920e-04,6.723878091e-05,-5.435202111e-04,-9.778094771e-04,3.691481141e-04,-6.086613629e-04,-1.283661307e-03,4.916221875e-04,-7.920391195e-04,-1.351229578e-03,4.061091341e-04,-9.451204441e-04,-1.152826492e-03,7.125757786e-04,-4.402507138e-04,-4.391838943e-04,7.914878739e-05,-3.600351069e-04,-5.327710494e-04,-1.820891116e-04,-7.148601610e-04,-5.982191652e-04,-1.247251639e-05,-6.106916815e-04,-7.941297637e-04,-3.969413742e-04,-1.191071138e-03,-7.290681384e-04,-6.868838823e-05,-7.977565266e-04,-7.896243263e-04,-9.556626307e-06,-7.991809526e-04,-4.301038774e-04,-3.869280813e-04,-8.170319587e-04
-7.5,1.505569112e-04,-1.732084887e-04,-2.265157746e-05,5.270602482e-05,-3.041318974e-05,2.229283508e-05,1.539045733e-04,-1.162497568e-04,3.765481654e-05,2.287993736e-04,-4.133046655e-05,1.874689070e-04,9.498948063e-05,-1.584509403e-04,-6.346145963e-05,1.267390975e-04,-1.140082611e-04,1.273083641e-05,7.352884390e-05,-2.279295932e-04,-1.544007493e-04,1.270872969e-05,-1.597067299e-04,-1.469980002e-04,9.584366714e-05,-1.918726379e-04,-9.602897078e-05,1.525789484e-04,-6.927510899e-05,8.330383943e-05,2.668189914e-04,-5.162108338e-05,2.151979080e-04,-5.259078398e-04,5.932560887e-05,-4.665822309e-04,-9.108526848e-04,3.921029958e-04,-5.187496890e-04,-4.963369994e-04,2.181951329e-05,-4.745174861e-04,-5.694628235e-04,1.372392856e-04,-4.322235380e-04,-8.940321324e-04,-1.010887838e-06,-8.950430203e-04,-1.203039266e-03,-3.158723223e-04,-1.518911588e-03,-7.373294990e-04,1.008063130e-04,-6.365231860e-04,-1.189075224e-03,1.290152238e-04,-1.060060000e-03,-3.451194050e-06,-5.274871561e-05,-5.619990966e-05,1.520792587e-04,-1.925401203e-05,1.328252467e-04,-1.601630713e-04,-1.314624854e-06,-1.614776961e-04,1.981658939e-04,-1.575127680e-05,1.824146171e-04,2.289017340e-04,-1.736575503e-04,5.524418365e-05,-6.227664140e-04,6.862745287e-05,-5.541389612e-04,-9.751642884e-04,3.639857616e-04,-6.111785268e-04,-1.283189807e-03,5.019304213e-04,-7.812593859e-04,-1.360471400e-03,4.158977924e-04,-9.445736075e-04,-1.148481960e-03,6.858961943e-04,-4.625857661e-04,-4.550007737e-04,8.571605775e-05,-3.692847159e-04,-5.596770371e-04,-1.737331137e-04,-7.334101509e-04,-6.169515086e-04,-8.300358109e-06,-6.252518667e-04,-7.732134970e-04,-3.972286405e-04,-1.170442138e-03,-7.397823780e-04,-6.750433649e-05,-8.072867145e-04,-7.948203278e-04,-4.885429172e-06,-7.997057570e-04,-4.643800961e-04,-3.248252881e-04,-7.892053842e-04
-7.4,1.054548349e-04,-1.583891748e-04,-5.293433984e-05,1.102319463e-05,-2.818095539e-05,-1.715776076e-05,1.176728168e-04,-1.076366691e-04,1.003614771e-05,2.065590501e-04,-4.100324512e-05,1.655558049e-04,5.459643742e-05,-1.459255466e-04,-9.132910913e-05,1.012493528e-04,-1.083516103e-04,-7.102257423e-06,3.175540547e-05,-2.111231468e-04,-1.793677413e-04,-2.645993208e-05,-1.370803015e-04,-1.635402336e-04,5.293787670e-05,-1.779492364e-04,-1.250113597e-04,1.142944474e-04,-5.784978870e-05,5.644465870e-05,2.269409480e-04,-3.576900179e-05,1.911719462e-04,-5.493970907e-04,6.160405557e-05,-4.877930351e-04,-9.137208592e-04,4.021559782e-04,-5.115648809e-04,-5.190184326e-04,3.051229042e-05,-4.885061422e-04,-5.830737609e-04,1.485707863e-04,-4.345029746e-04,-8.948570067e-04,-2.990397383e-06,-8.978474040e-04,-1.205884226e-03,-3.058433575e-04,-1.511727583e-03,-7.465383585e-04,9.736061645e-05,-6.491777421e-04,-1.193311016e-03,1.324052350e-04,-1.060905781e-03,-2.481075300e-05,-5.004792043e-05,-7.485867343e-05,1.150066388e-04,-1.563810667e-05,9.936853214e-05,-1.782441438e-04,1.420685674e-06,-1.768234582e-04,1.583646459e-04,-1.305190846e-05,1.453127375e-04,2.117091196e-04,-1.632538751e-04,4.845524444e-05,-6.318637465e-04,6.943464326e-05,-5.624291032e-04,-9.689421712e-04,3.574487083e-04,-6.114934629e-04,-1.278190303e-03,5.076028816e-04,-7.705874213e-04,-1.364865306e-03,4.226483862e-04,-9.422169195e-04,-1.137607025e-03,6.541651119e-04,-4.834419135e-04,-4.688343982e-04,9.206367105e-05,-3.767707272e-04,-5.821672359e-04,-1.662719494e-04,-7.484391852e-04,-6.325421889e-04,-4.298888838e-06,-6.368410777e-04,-7.506901041e-04,-3.948685430e-04,-1.145558647e-03,-7.492352417e-04,-6.557885621e-05,-8.148140979e-04,-7.974109274e-04,-4.582806464e-08,-7.974567554e-04,-5.013027391e-04,-2.596945526e-04,-7.609972917e-04
-7.3,6.417536271e-05,-1.440791901e-04,-7.990382736e-05,-2.824569358e-05,-2.596976180e-05,-5.421545538e-05,8.336783894e-05,-9.891122272e-05,-1.554338377e-05,1.855729764e-04,-4.065144736e-05,1.449215290e-04,1.651989324e-05,-1.332357115e-04,-1.167158183e-04,7.662960205e-05,-1.024428926e-04,-2.581329056e-05,-8.574716276e-06,-1.939970686e-04,-2.025717849e-04,-6.495096005e-05,-1.141774428e-04,-1.791284029e-04,1.150561293e-05,-1.636652030e-04,-1.521595900e-04,7.725953499e-05,-4.655235676e-05,3.070717822e-05,1.885998654e-04,-2.049904081e-05,1.681008246e-04,-5.697143776e-04,6.379425467e-05,-5.059201230e-04,-9.114820014e-04,4.091771527e-04,-5.023048487e-04,-5.393163770e-04,3.916019551e-05,-5.001561815e-04,-5.943226466e-04,1.588356414e-04,-4.354870052e-04,-8.924236006e-04,-4.346063146e-06,-8.967696637e-04,-1.208711558e-03,-2.931311010e-04,-1.501842659e-03,-7.517545136e-04,9.365895358e-05,-6.580955600e-04,-1.193577426e-03,1.348193933e-04,-1.058758033e-03,-4.515111523e-05,-4.721405714e-05,-9.236517237e-05,7.971863102e-05,-1.213221225e-05,6.758641877e-05,-1.939727381e-04,3.691099602e-06,-1.902816385e-04,1.200780359e-04,-1.018367819e-05,1.098943577e-04,1.970234131e-04,-1.535385097e-04,4.348490342e-05,-6.380185967e-04,6.964923474e-05,-5.683693620e-04,-9.591944117e-04,3.496417906e-04,-6.095526212e-04,-1.268754221e-03,5.087038115e-04,-7.600504097e-04,-1.364231438e-03,4.263669683e-04,-9.378644700e-04,-1.120359755e-03,6.178856178e-04,-5.024741367e-04,-4.805445688e-04,9.806659121e-05,-3.824779776e-04,-5.995206538e-04,-1.603884378e-04,-7.599090916e-04,-6.449179325e-04,-4.593207672e-07,-6.453772532e-04,-7.267855434e-04,-3.900106849e-04,-1.116796228e-03,-7.573735774e-04,-6.277707077e-05,-8.201506482e-04,-7.973842900e-04,4.886302359e-06,-7.924979876e-04,-5.397600343e-04,-1.929353820e-04,-7.326954163e-04
-7.2,2.678372309e-05,-1.303199744e-04,-1.035362513e-04,-6.500103478e-05,-2.381237922e-05,-8.881341401e-05,5.108422041e-05,-9.010438375e-05,-3.902016334e-05,1.658808978e-04,-4.030226977e-05,1.255786281e-04,-1.915323544e-05,-1.204296668e-04,-1.395829022e-04,5.293858976e-05,-9.630727055e-05,-4.336868079e-05,-4.736895083e-05,-1.765926220e-04,-2.239615729e-04,-1.026376235e-04,-9.108496444e-05,-1.937225880e-04,-2.836632425e-05,-1.490597945e-04,-1.774261188e-04,4.157706369e-05,-3.542913625e-05,6.147927441e-06,1.518671707e-04,-5.865413245e-06,1.460017575e-04,-5.866974653e-04,6.588475143e-05,-5.208127139e-04,-9.040703064e-04,4.130182626e-04,-4.910520438e-04,-5.570804824e-04,4.769543698e-05,-5.093850454e-04,-6.031583245e-04,1.679490337e-04,-4.352092908e-04,-8.867151937e-04,-5.046872080e-06,-8.917620658e-04,-1.211198848e-03,-2.779818863e-04,-1.489180735e-03,-7.529961406e-04,8.976362441e-05,-6.632325162e-04,-1.189990665e-03,1.363030804e-04,-1.053687584e-03,-6.440129912e-05,-4.426590954e-05,-1.086672087e-04,4.629369734e-05,-8.755353159e-06,3.753834418e-05,-2.073591796e-04,5.513137187e-06,-2.018460425e-04,8.336827827e-05,-7.157300631e-06,7.621097764e-05,1.848568458e-04,-1.446024160e-04,4.025442984e-05,-6.412115073e-04,6.926198287e-05,-5.719495245e-04,-9.459870825e-04,3.406796505e-04,-6.053074320e-04,-1.255045517e-03,5.053725316e-04,-7.496729850e-04,-1.358445311e-03,4.271068097e-04,-9.313385018e-04,-1.096980832e-03,5.776125864e-04,-5.193682456e-04,-4.900137693e-04,1.036058932e-04,-3.864078761e-04,-6.110254546e-04,-1.567906497e-04,-7.678161043e-04,-6.540364355e-04,3.235404370e-06,-6.508010311e-04,-7.017652801e-04,-3.828128031e-04,-1.084578083e-03,-7.641632040e-04,-5.897542623e-05,-8.231386303e-04,-7.947545664e-04,9.835591034e-06,-7.849189754e-04,-5.786102301e-04,-1.259424695e-04,-7.045526996e-04
-7.1,-6.678159028e-06,-1.171469249e-04,-1.238250839e-04,-9.915415275e-05,-2.173920936e-05,-1.208933621e-04,2.090961152e-05,-8.124640671e-05,-6.033679520e-05,1.475173348e-04,-3.998237625e-05,1.075349585e-04,-5.234518065e-05,-1.075553330e-04,-1.599005137e-04,3.023288129e-05,-8.997032576e-05,-5.973744447e-05,-8.453811488e-05,-1.589523856e-04,-2.434905004e-04,-1.393816748e-04,-6.789149926e-05,-2.072731741e-04,-6.659521352e-05,-1.341737916e-04,-2.007690051e-04,7.343079314e-06,-2.452517367e-05,-1.718209436e-05,1.168075262e-04,8.080051672e-06,1.248875779e-04,-6.002070705e-04,6.786061519e-05,-5.323464553e-04,-8.914743270e-04,4.135683364e-04,-4.779059906e-04,-5.721717357e-04,5.605128326e-05,-5.161204524e-04,-6.095378524e-04,1.758379639e-04,-4.336998885e-04,-8.777346095e-04,-5.073034977e-06,-8.828076445e-04,-1.212954082e-03,-2.606954655e-04,-1.473649548e-03,-7.503053827e-04,8.573226355e-05,-6.645731192e-04,-1.182676502e-03,1.369001630e-04,-1.045776339e-03,-8.249300601e-05,-4.122432080e-05,-1.237173268e-04,1.479967430e-05,-5.526368793e-06,9.273305512e-06,-2.184254753e-04,6.909558333e-06,-2.115159170e-04,4.829731974e-05,-3.989428050e-06,4.430789169e-05,1.752028075e-04,-1.365198903e-04,3.868291713e-05,-6.414347173e-04,6.826565111e-05,-5.731690662e-04,-9.293981749e-04,3.306839611e-04,-5.987142138e-04,-1.237285301e-03,4.978120544e-04,-7.394732469e-04,-1.347432017e-03,4.249637939e-04,-9.224682230e-04,-1.067785475e-03,5.339334053e-04,-5.338520699e-04,-4.971488736e-04,1.085723435e-04,-3.885765301e-04,-6.160022994e-04,-1.561870968e-04,-7.721893962e-04,-6.598843311e-04,6.809624001e-06,-6.530747071e-04,-6.759242905e-04,-3.734420900e-04,-1.049366380e-03,-7.695851437e-04,-5.406589163e-05,-8.236510353e-04,-7.895576590e-04,1.472712135e-05,-7.748305377e-04,-6.167151084e-04,-6.006794265e-05,-6.767830510e-04
-7,-3.619111945e-05,-1.045890221e-04,-1.407801415e-04,-1.306271581e-04,-1.977767891e-05,-1.504048370e-04,-7.075964026e-06,-7.236647241e-05,-7.944243644e-05,1.305122444e-04,-3.971754088e-05,9.079470348e-05,-8.298512669e-05,-9.466010379e-05,-1.776452305e-04,8.567502919e-06,-8.345741222e-05,-7.488990931e-05,-1.199948396e-04,-1.411201755e-04,-2.611150150e-04,-1.750288985e-04,-4.469060579e-05,-2.197195043e-04,-1.031014349e-04,-1.190494421e-04,-2.221508770e-04,-2.535312409e-05,-1.388374012e-05,-3.923686420e-05,8.347918728e-05,2.128846915e-05,1.047676564e-04,-6.101317019e-04,6.970559048e-05,-5.404261114e-04,-8.737415926e-04,4.107570154e-04,-4.629845771e-04,-5.844624970e-04,6.416116634e-05,-5.203013307e-04,-6.134237109e-04,1.824420001e-04,-4.309817107e-04,-8.655038487e-04,-4.414783432e-06,-8.699186321e-04,-1.213527270e-03,-2.416183139e-04,-1.455145584e-03,-7.437442751e-04,8.161698579e-05,-6.621272893e-04,-1.171760209e-03,1.366498567e-04,-1.035110352e-03,-9.936102583e-05,-3.811168285e-05,-1.374727087e-04,-1.470610595e-05,-2.463768163e-06,-1.716987411e-05,-2.272037206e-04,7.908053669e-06,-2.192956669e-04,1.492675603e-05,-7.021164088e-07,1.422463962e-05,1.680318975e-04,-1.293434769e-04,3.868842065e-05,-6.386894024e-04,6.665449267e-05,-5.720349098e-04,-9.095155314e-04,3.197815386e-04,-5.897339928e-04,-1.215732788e-03,4.862754614e-04,-7.294573265e-04,-1.331159725e-03,4.200699099e-04,-9.110898150e-04,-1.033151671e-03,4.874489033e-04,-5.457027674e-04,-5.018816270e-04,1.128691791e-04,-3.890124479e-04,-6.138324169e-04,-1.592541479e-04,-7.730865647e-04,-6.624742457e-04,1.029271393e-05,-6.521815318e-04,-6.495753104e-04,-3.620772955e-04,-1.011652606e-03,-7.736300329e-04,-4.796084558e-05,-8.215908785e-04,-7.818465626e-04,1.948592644e-05,-7.623606362e-04,-6.529726583e-04,3.416055864e-06,-6.495566025e-04
-6.9,-6.175900122e-05,-9.266858046e-05,-1.544275817e-04,-1.593533719e-04,-1.795175196e-05,-1.773051239e-04,-3.280203995e-05,-6.349238883e-05,-9.629442878e-05,1.148907261e-04,-3.953225529e-05,7.535847081e-05,-1.110102145e-04,-8.179070071e-05,-1.928009152e-04,-1.200483401e-05,-7.679321785e-05,-8.879805186e-05,-1.536540609e-04,-1.231410172e-04,-2.767950781e-04,-2.094076780e-04,-2.158298154e-05,-2.309906595e-04,-1.378090398e-04,-1.037304320e-04,-2.415394718e-04,-5.642974169e-05,-3.545869121e-06,-5.997561081e-05,5.193312862e-05,3.371437271e-05,8.564750133e-05,-6.163930648e-04,7.140435117e-05,-5.449887137e-04,-8.509808588e-04,4.045563997e-04,-4.464244591e-04,-5.938370605e-04,7.195769125e-05,-5.218793692e-04,-6.147821901e-04,1.877140990e-04,-4.270680911e-04,-8.500638148e-04,-3.072469648e-06,-8.531362845e-04,-1.212423926e-03,-2.211360000e-04,-1.433559926e-03,-7.333928438e-04,7.746378727e-05,-6.559290565e-04,-1.157359492e-03,1.355846205e-04,-1.021774872e-03,-1.149445518e-04,-3.495129440e-05,-1.498958462e-04,-4.217739372e-05,4.144680524e-07,-4.176292567e-05,-2.337353505e-04,8.539809795e-06,-2.251955407e-04,-1.668356511e-05,2.678064415e-06,-1.400550069e-05,1.632873254e-04,-1.230993250e-04,4.018800037e-05,-6.329834168e-04,6.442339107e-05,-5.685600258e-04,-8.864368351e-04,3.081028798e-04,-5.783339553e-04,-1.190664559e-03,4.710506130e-04,-7.196139459e-04,-1.309635589e-03,4.125853596e-04,-8.970502289e-04,-9.935068897e-04,4.387565272e-04,-5.547503625e-04,-5.041690395e-04,1.164141746e-04,-3.877548649e-04,-6.039878600e-04,-1.665968376e-04,-7.705846977e-04,-6.618416675e-04,1.371556431e-05,-6.481261032e-04,-6.230384384e-04,-3.489100305e-04,-9.719484689e-04,-7.762914391e-04,-4.059929354e-05,-8.168907326e-04,-7.716870386e-04,2.403590330e-05,-7.476511353e-04,-6.863486855e-04,6.335241754e-05,-6.229962679e-04
-6.8,-8.340990737e-05,-8.140116463e-05,-1.648110720e-04,-1.852785925e-04,-1.628156891e-05,-2.015601614e-04,-5.621091404e-05,-5.465039059e-05,-1.108613046e-04,1.006716256e-04,-3.944931777e-05,6.122230787e-05,-1.363694291e-04,-6.899307120e-05,-2.053625003e-04,-3.143581772e-05,-7.000146926e-05,-1.014372870e-04,-1.854354446e-04,-1.050611100e-04,-2.904965545e-04,-2.423310047e-04,1.322705542e-06,-2.410082992e-04,-1.706475635e-04,-8.826180814e-05,-2.589093716e-04,-8.581397866e-05,6.450128466e-06,-7.936385019e-05,2.221114586e-05,4.531623411e-05,6.752737997e-05,-6.189507574e-04,7.294383737e-05,-5.460069200e-04,-8.233612523e-04,3.949813206e-04,-4.283799317e-04,-6.001931344e-04,7.937217068e-05,-5.208209637e-04,-6.135840634e-04,1.916223231e-04,-4.219617404e-04,-8.314757790e-04,-1.057328847e-06,-8.325331079e-04,-1.209119005e-03,-1.996646162e-04,-1.408783621e-03,-7.193504644e-04,7.331233979e-05,-6.460381246e-04,-1.139580948e-03,1.337291148e-04,-1.005851833e-03,-1.291892925e-04,-3.176649075e-05,-1.609557832e-04,-6.758022792e-05,3.091217006e-06,-6.448901091e-05,-2.380712572e-04,8.838190525e-06,-2.292330667e-04,-4.647784631e-05,6.121185349e-06,-4.035666097e-05,1.608807093e-04,-1.177839124e-04,4.309679698e-05,-6.243312039e-04,6.156747730e-05,-5.627637266e-04,-8.602714833e-04,2.957804765e-04,-5.644910069e-04,-1.162355509e-03,4.524450647e-04,-7.099104441e-04,-1.282905527e-03,4.026907742e-04,-8.802147532e-04,-9.493165389e-04,3.884380227e-04,-5.608785162e-04,-5.039943371e-04,1.191412398e-04,-3.848530973e-04,-5.860595817e-04,-1.787087213e-04,-7.647683030e-04,-6.580418830e-04,1.710622335e-05,-6.409356597e-04,-5.966347443e-04,-3.341430751e-04,-9.307778194e-04,-7.775593802e-04,-3.195353774e-05,-8.095129180e-04,-7.591538297e-04,2.829851903e-05,-7.308553107e-04,-7.159062843e-04,1.187298718e-04,-5.971764125e-04
-6.7,-1.011980182e-04,-7.079564072e-05,-1.719936589e-04,-2.083629495e-04,-1.478319432e-05,-2.231461438e-04,-7.726139452e-05,-4.586503578e-05,-1.231264303e-04,8.786555308e-05,-3.948940081e-05,4.837615227e-05,-1.590283956e-04,-5.631226480e-05,-2.153406604e-04,-4.968407149e-05,-6.310468799e-05,-1.127887595e-04,-2.152665787e-04,-8.692770763e-05,-3.021942864e-04,-2.736011370e-04,2.391058832e-05,-2.496905487e-04,-2.015540808e-04,-7.268983004e-05,-2.742439108e-04,-1.134438384e-04,1.606917492e-05,-9.737466348e-05,-5.656240135e-06,5.605708974e-05,5.040084960e-05,-6.178046882e-04,7.431318730e-05,-5.434915009e-04,-7.911088721e-04,3.820888009e-04,-4.090200713e-04,-6.034439329e-04,8.633498150e-05,-5.171089514e-04,-6.098073380e-04,1.941522007e-04,-4.156551373e-04,-8.098247787e-04,1.608358222e-06,-8.082164205e-04,-1.203071505e-03,-1.776408008e-04,-1.380712306e-03,-7.017393993e-04,6.919638878e-05,-6.325430105e-04,-1.118519363e-03,1.311002209e-04,-9.874191421e-04,-1.420497694e-04,-2.857964842e-05,-1.706294178e-04,-9.089421833e-05,5.550552502e-06,-8.534366582e-05,-2.402723170e-04,8.837631751e-06,-2.314346853e-04,-7.440657023e-05,9.595063289e-06,-6.481150694e-05,1.606893073e-04,-1.133627009e-04,4.732660637e-05,-6.127560700e-04,5.808268572e-05,-5.546733842e-04,-8.311431452e-04,2.829466322e-04,-5.481965130e-04,-1.131066104e-03,4.307763400e-04,-7.002897641e-04,-1.251056831e-03,3.905812531e-04,-8.604755781e-04,-9.010761158e-04,3.370528248e-04,-5.640232910e-04,-5.013681198e-04,1.210015338e-04,-3.803665861e-04,-5.597803022e-04,-1.959379387e-04,-7.557182409e-04,-6.511467912e-04,2.048546069e-05,-6.306613305e-04,-5.706830198e-04,-3.179852898e-04,-8.886683096e-04,-7.774154152e-04,-2.203441540e-05,-7.994498306e-04,-7.443272149e-04,3.219203099e-05,-7.121351839e-04,-7.408307663e-04,1.687075073e-04,-5.721232590e-04
-6.6,-1.152051820e-04,-6.085424008e-05,-1.760594221e-04,-2.285827049e-04,-1.346842699e-05,-2.420511319e-04,-9.593195980e-05,-3.715917511e-05,-1.330911349e-04,7.647315950e-05,-3.967058318e-05,3.680257632e-05,-1.789725245e-04,-4.379223229e-05,-2.227647567e-04,-6.671694102e-05,-5.612398024e-05,-1.228409213e-04,-2.430853647e-04,-6.878888821e-05,-3.118742529e-04,-3.030154450e-04,4.605971474e-05,-2.569557302e-04,-2.304743741e-04,-5.706180379e-05,-2.875361779e-04,-1.392694568e-04,2.527987808e-05,-1.139895787e-04,-3.165110169e-05,6.590520386e-05,3.425410217e-05,-6.129943879e-04,7.550262356e-05,-5.374917643e-04,-7.545012114e-04,3.659765886e-04,-3.885246229e-04,-6.035197819e-04,9.277659928e-05,-5.107431826e-04,-6.034406849e-04,1.953085078e-04,-4.081321771e-04,-7.852231931e-04,4.892336124e-06,-7.803308570e-04,-1.193740250e-03,-1.555099217e-04,-1.349250172e-03,-6.807077998e-04,6.514454903e-05,-6.155632508e-04,-1.094258458e-03,1.277079287e-04,-9.665505291e-04,-1.534910192e-04,-2.541126315e-05,-1.789022823e-04,-1.121132786e-04,7.777964203e-06,-1.043353144e-04,-2.404096243e-04,8.572718233e-06,-2.318369061e-04,-1.004278686e-04,1.306613942e-05,-8.736172922e-05,1.625555806e-04,-1.097708172e-04,5.278476340e-05,-5.982933421e-04,5.396698325e-05,-5.443263589e-04,-7.991912028e-04,2.697308547e-04,-5.294603482e-04,-1.097038120e-03,4.063715877e-04,-6.906665326e-04,-1.214220372e-03,3.764621586e-04,-8.377582130e-04,-8.493058533e-04,2.851356019e-04,-5.641702514e-04,-4.963286849e-04,1.219638722e-04,-3.743648127e-04,-5.250417868e-04,-2.184630470e-04,-7.435048338e-04,-6.412415415e-04,2.386333900e-05,-6.173782025e-04,-5.454965677e-04,-3.006445037e-04,-8.461410714e-04,-7.758290520e-04,-1.089447180e-05,-7.867235238e-04,-7.272893003e-04,3.563159878e-05,-6.916577015e-04,-7.604484297e-04,2.126317250e-04,-5.478167047e-04
-6.5,-1.255415337e-04,-5.157254096e-05,-1.771140747e-04,-2.459313548e-04,-1.234465550e-05,-2.582760103e-04,-1.122224049e-04,-2.855399090e-05,-1.407763959e-04,6.648436028e-05,-4.000786656e-05,2.647649372e-05,-1.962069026e-04,-3.147555614e-05,-2.276824587e-04,-8.251068052e-05,-4.907891454e-05,-1.315895951e-04,-2.688405625e-04,-5.069325194e-05,-3.195338144e-04,-3.303720354e-04,6.764683048e-05,-2.627252049e-04,-2.573627819e-04,-4.142593438e-05,-2.987887162e-04,-1.632535370e-04,3.405485510e-05,-1.291986819e-04,-5.576819579e-05,7.483465870e-05,1.906646291e-05,-6.045955966e-04,7.650191238e-05,-5.280936842e-04,-7.138590990e-04,3.467798964e-04,-3.670792026e-04,-6.003684889e-04,9.862901447e-05,-5.017394744e-04,-5.944860953e-04,1.951154679e-04,-3.993706275e-04,-7.578115562e-04,8.754097858e-06,-7.490574583e-04,-1.180599343e-03,-1.337129465e-04,-1.314312289e-03,-6.564294131e-04,6.118086993e-05,-5.952485431e-04,-1.066871355e-03,1.235568611e-04,-9.433144942e-04,-1.634892579e-04,-2.227923355e-05,-1.857684915e-04,-1.312455906e-04,9.760495138e-06,-1.214850955e-04,-2.385640543e-04,8.077423773e-06,-2.304866305e-04,-1.245080328e-04,1.650017754e-05,-1.080078552e-04,1.662893499e-04,-1.069155276e-04,5.937382233e-05,-5.809925619e-04,4.922189441e-05,-5.317706675e-04,-7.645694191e-04,2.562567551e-04,-5.083126641e-04,-1.060496549e-03,3.795751141e-04,-6.809214351e-04,-1.172569103e-03,3.605449325e-04,-8.120241704e-04,-7.945451977e-04,2.331944078e-04,-5.613507899e-04,-4.889408928e-04,1.220143474e-04,-3.669265454e-04,-4.819076091e-04,-2.462771332e-04,-7.281847423e-04,-6.284214783e-04,2.723776242e-05,-6.011837158e-04,-5.213774562e-04,-2.823203261e-04,-8.036977824e-04,-7.727540050e-04,1.370231622e-06,-7.713837734e-04,-7.081197709e-04,3.853015893e-05,-6.695896119e-04,-7.742392541e-04,2.500451765e-04,-5.241940776e-04
-6.4,-1.323450340e-04,-4.293945861e-05,-1.752844926e-04,-2.604199268e-04,-1.141482380e-05,-2.718347507e-04,-1.261540078e-04,-2.006913190e-05,-1.462231397e-04,5.787848570e-05,-4.051273277e-05,1.736575293e-05,-2.107537907e-04,-1.940319824e-05,-2.301569889e-04,-9.704931743e-05,-4.198755317e-05,-1.390368706e-04,-2.924909187e-04,-3.268961318e-05,-3.251805319e-04,-3.554748604e-04,8.854933193e-05,-2.669255285e-04,-2.821814558e-04,-2.583116847e-05,-3.080126243e-04,-1.853711270e-04,4.237096122e-05,-1.430001658e-04,-7.801433607e-05,8.282582615e-05,4.811490080e-06,-5.927157168e-04,7.729884944e-05,-5.154168673e-04,-6.695368860e-04,3.246666359e-04,-3.448702501e-04,-5.939550125e-04,1.038271744e-04,-4.901278381e-04,-5.829603690e-04,1.936152929e-04,-3.893450761e-04,-7.277553083e-04,1.314625937e-05,-7.146090489e-04,-1.163151631e-03,-1.126727622e-04,-1.275824393e-03,-6.290994457e-04,5.732454951e-05,-5.717748962e-04,-1.036420310e-03,1.186482704e-04,-9.177720397e-04,-1.720317229e-04,-1.919842948e-05,-1.912301524e-04,-1.483131395e-04,1.148691346e-05,-1.368262261e-04,-2.348255432e-04,7.384579209e-06,-2.274409640e-04,-1.466219056e-04,1.986285339e-05,-1.267590522e-04,1.716716679e-04,-1.046801492e-04,6.699151873e-05,-5.609183026e-04,4.385424329e-05,-5.170640593e-04,-7.274416938e-04,2.426382221e-04,-4.848034717e-04,-1.021653025e-03,3.507579474e-04,-6.708950776e-04,-1.126311821e-03,3.430418147e-04,-7.832700066e-04,-7.373456479e-04,1.817067255e-04,-5.556389224e-04,-4.792940185e-04,1.211553121e-04,-3.581387064e-04,-4.306225165e-04,-2.791773318e-04,-7.097998482e-04,-6.127900977e-04,3.059509872e-05,-5.821949990e-04,-4.986077003e-04,-2.631981683e-04,-7.618058686e-04,-7.681242588e-04,1.461964536e-05,-7.535046134e-04,-6.868918402e-04,4.079982361e-05,-6.460920166e-04,-7.818434827e-04,2.806868494e-04,-5.011566333e-04
-6.3,-1.357806266e-04,-3.493744090e-05,-1.707180675e-04,-2.720770370e-04,-1.067758507e-05,-2.827546221e-04,-1.377692312e-04,-1.172293431e-05,-1.494921655e-04,5.062461666e-05,-4.119277611e-05,9.431840546e-06,-2.226504950e-04,-7.614348352e-06,-2.302648434e-04,-1.103234968e-04,-3.486665597e-05,-1.451901527e-04,-3.140045019e-04,-1.482671846e-05,-3.288312203e-04,-3.781392031e-04,1.086483360e-04,-2.694908671e-04,-3.049002716e-04,-1.032697426e-05,-3.152272459e-04,-2.056094614e-04,5.020950494e-05,-1.553999565e-04,-9.840804868e-05,8.986574454e-05,-8.542304136e-06,-5.774901662e-04,7.787818003e-05,-4.996119862e-04,-6.219133740e-04,2.998331647e-04,-3.220802093e-04,-5.842617712e-04,1.083101762e-04,-4.759515950e-04,-5.688961558e-04,1.908656030e-04,-3.780305528e-04,-6.952396673e-04,1.801536890e-05,-6.772242984e-04,-1.140940930e-03,-9.278009369e-05,-1.233721023e-03,-5.989289042e-04,5.358869018e-05,-5.453402141e-04,-1.002957142e-03,1.129823531e-04,-8.899747889e-04,-1.791162950e-04,-1.618065789e-05,-1.952969529e-04,-1.633513344e-04,1.294792807e-05,-1.504034063e-04,-2.292928335e-04,6.525595124e-06,-2.227672384e-04,-1.667539232e-04,2.312024975e-05,-1.436336734e-04,1.784588587e-04,-1.029288815e-04,7.552997717e-05,-5.381509690e-04,3.787807890e-05,-5.002728901e-04,-6.879770012e-04,2.289751422e-04,-4.590018590e-04,-9.807071535e-04,3.203235590e-04,-6.603835945e-04,-1.075684286e-03,3.241603032e-04,-7.515239831e-04,-6.782615491e-04,1.311127784e-04,-5.471487706e-04,-4.674994276e-04,1.194039306e-04,-3.480954970e-04,-3.716176718e-04,-3.167600265e-04,-6.883776983e-04,-5.944583534e-04,3.391206510e-05,-5.605462883e-04,-4.774390205e-04,-2.434445953e-04,-7.208836159e-04,-7.618519005e-04,2.867161678e-05,-7.331802837e-04,-6.636696785e-04,4.235377161e-05,-6.213159069e-04,-7.830604991e-04,3.044820810e-04,-4.785784181e-04
-6.2,-1.360398385e-04,-2.754292092e-05,-1.635827594e-04,-2.809493966e-04,-1.012762364e-05,-2.910770203e-04,-1.471319527e-04,-3.532641489e-06,-1.506645942e-04,4.468136283e-05,-4.205139526e-05,2.629967573e-06,-2.319497716e-04,3.853631631e-06,-2.280961400e-04,-1.223304784e-04,-2.773202838e-05,-1.500625068e-04,-3.333595797e-04,2.847017292e-06,-3.305125625e-04,-3.981982836e-04,1.278318721e-04,-2.703664115e-04,-3.254980682e-04,5.036940022e-06,-3.204611281e-04,-2.239684119e-04,5.755646379e-05,-1.664119481e-04,-1.169800949e-04,9.594841867e-05,-2.103167620e-05,-5.590808197e-04,7.822116150e-05,-4.808596582e-04,-5.713857768e-04,2.725023310e-04,-2.988834458e-04,-5.712906431e-04,1.120222832e-04,-4.592683599e-04,-5.523436372e-04,1.869366075e-04,-3.654070297e-04,-6.604660867e-04,2.330266029e-05,-6.371634264e-04,-1.113563813e-03,-7.438002832e-05,-1.187943841e-03,-5.661405333e-04,4.997867211e-05,-5.161618612e-04,-9.665263163e-04,1.065609111e-04,-8.599654052e-04,-1.847513952e-04,-1.323506653e-05,-1.979864618e-04,-1.764089623e-04,1.413635702e-05,-1.622726053e-04,-2.220740374e-04,5.530340667e-06,-2.165436968e-04,-1.848999743e-04,2.623930545e-05,-1.586606689e-04,1.863857009e-04,-1.015119870e-04,8.487371387e-05,-5.127890906e-04,3.131670692e-05,-4.814723837e-04,-6.463465056e-04,2.153498271e-04,-4.309966785e-04,-9.378449149e-04,2.887066965e-04,-6.491382184e-04,-1.020940960e-03,3.040989515e-04,-7.168420085e-04,-6.178389085e-04,8.180703305e-05,-5.360318755e-04,-4.536884639e-04,1.167905353e-04,-3.368979286e-04,-3.055084325e-04,-3.584258550e-04,-6.639342875e-04,-5.735450588e-04,3.715782898e-05,-5.363872298e-04,-4.580841795e-04,-2.232034173e-04,-6.812875967e-04,-7.538283669e-04,4.330673124e-05,-7.105216356e-04,-6.385081470e-04,4.310867328e-05,-5.953994737e-04,-7.778370736e-04,3.215218530e-04,-4.563152206e-04
-6.1,-1.333410393e-04,-2.072686862e-05,-1.540679079e-04,-2.871030058e-04,-9.756036228e-06,-2.968590420e-04,-1.543283484e-04,4.485472071e-06,-1.498428763e-04,3.999595359e-05,-4.308752910e-05,-3.091575513e-06,-2.387227446e-04,1.496524168e-05,-2.237575029e-04,-1.330754677e-04,-2.059897258e-05,-1.536744403e-04,-3.505470428e-04,2.028375305e-05,-3.302632897e-04,-4.155104814e-04,1.459979145e-04,-2.695125669e-04,-3.439649192e-04,2.021092008e-05,-3.237539992e-04,-2.404615138e-04,6.440264227e-05,-1.760588715e-04,-1.337746318e-04,1.010750276e-04,-3.269960424e-05,-5.376760058e-04,7.830542013e-05,-4.593705857e-04,-5.183671430e-04,2.429233840e-04,-2.754437590e-04,-5.550666540e-04,1.149141053e-04,-4.401525487e-04,-5.333732350e-04,1.819089405e-04,-3.514642945e-04,-6.236514876e-04,2.894495446e-05,-5.947065332e-04,-1.080679629e-03,-5.776178799e-05,-1.138441417e-03,-5.309677887e-04,4.649095391e-05,-4.844768348e-04,-9.271714159e-04,9.939059270e-05,-8.277808232e-04,-1.889563254e-04,-1.036876714e-05,-1.993250926e-04,-1.875483834e-04,1.504723614e-05,-1.725011473e-04,-2.132877696e-04,4.427095934e-06,-2.088606736e-04,-2.010696377e-04,2.918832420e-05,-1.718813135e-04,1.951681211e-04,-1.002711826e-04,9.489693850e-05,-4.849531835e-04,2.420484046e-05,-4.607483431e-04,-6.027244045e-04,2.018254271e-04,-4.008989774e-04,-8.932355750e-04,2.563651660e-04,-6.368704090e-04,-9.623489588e-04,2.830448823e-04,-6.793040764e-04,-5.566038261e-04,3.413037340e-05,-5.224734527e-04,-4.380104513e-04,1.133571707e-04,-3.246532806e-04,-2.330813765e-04,-4.033990354e-04,-6.364804119e-04,-5.501779132e-04,4.029570377e-05,-5.098822095e-04,-4.407126396e-04,-2.025918649e-04,-6.433045045e-04,-7.439289404e-04,5.827571893e-05,-6.856532215e-04,-6.114549138e-04,4.298746401e-05,-5.684674498e-04,-7.662433574e-04,3.320322456e-04,-4.342111118e-04
-6,-1.279298390e-04,-1.445528404e-05,-1.423851230e-04,-2.906247013e-04,-9.550690462e-06,-3.001753918e-04,-1.594677455e-04,1.231607608e-05,-1.471516694e-04,3.650311098e-05,-4.429548132e-05,-7.792370343e-06,-2.430625296e-04,2.568692213e-05,-2.173756075e-04,-1.425735438e-04,-1.348276364e-05,-1.560563075e-04,-3.655731838e-04,3.743641575e-05,-3.281367681e-04,-4.299657465e-04,1.630568206e-04,-2.669089259e-04,-3.603044196e-04,3.514565433e-05,-3.251587653e-04,-2.551170253e-04,7.074371491e-05,-1.843733103e-04,-1.488502045e-04,1.052540443e-04,-4.359616016e-05,-5.134901285e-04,7.810454423e-05,-4.353855842e-04,-4.632862849e-04,2.113717445e-04,-2.519145404e-04,-5.356422897e-04,1.169443436e-04,-4.186979461e-04,-5.120782685e-04,1.758722336e-04,-3.362060349e-04,-5.850284972e-04,3.487532674e-05,-5.501531704e-04,-1.042017637e-03,-4.315313711e-05,-1.085170774e-03,-4.936559781e-04,4.311285918e-05,-4.505431189e-04,-8.849437221e-04,9.148637828e-05,-7.934573438e-04,-1.917618799e-04,-7.587292869e-06,-1.993491728e-04,-1.968456402e-04,1.567799846e-05,-1.811676417e-04,-2.030641952e-04,3.242625654e-06,-1.998215695e-04,-2.152880224e-04,3.193759078e-05,-1.833504316e-04,2.045067192e-04,-9.904552855e-05,1.054611907e-04,-4.547898273e-04,1.659075888e-05,-4.381990684e-04,-5.572914591e-04,1.884465364e-04,-3.688449227e-04,-8.470289045e-04,2.237661574e-04,-6.232627471e-04,-9.001837259e-04,2.611720837e-04,-6.390116421e-04,-4.950530989e-04,-1.163384457e-05,-5.066869435e-04,-4.206303910e-04,1.091566430e-04,-3.114737481e-04,-1.552707912e-04,-4.507611161e-04,-6.060319074e-04,-5.244948427e-04,4.328455541e-05,-4.812102873e-04,-4.254507746e-04,-1.816969118e-04,-6.071476864e-04,-7.320191196e-04,7.330861101e-05,-6.587105086e-04,-5.825545514e-04,4.192221719e-05,-5.406323342e-04,-7.484401452e-04,3.363383574e-04,-4.121017877e-04
-5.9,-1.200786247e-04,-8.689646337e-06,-1.287682710e-04,-2.916233266e-04,-9.496570867e-06,-3.011198975e-04,-1.626823842e-04,1.994478986e-05,-1.427375943e-04,3.412445944e-05,-4.566490998e-05,-1.154045054e-05,-2.450860123e-04,3.598720693e-05,-2.090988054e-04,-1.508510024e-04,-6.399018288e-06,-1.572500207e-04,-3.784611384e-04,5.425885551e-05,-3.242022829e-04,-4.414899642e-04,1.789330215e-04,-2.625569427e-04,-3.745347539e-04,4.979249204e-05,-3.247422619e-04,-2.679782531e-04,7.658013834e-05,-1.913981148e-04,-1.622796534e-04,1.085013163e-04,-5.377833709e-05,-4.867610519e-04,7.758741327e-05,-4.091736387e-04,-4.065885777e-04,1.781471690e-04,-2.284414086e-04,-5.131008991e-04,1.180822834e-04,-3.950186157e-04,-4.885755330e-04,1.689236214e-04,-3.196519116e-04,-5.448439321e-04,4.102321103e-05,-5.038207211e-04,-9.973831614e-04,-3.071732741e-05,-1.028100489e-03,-4.544632683e-04,3.982364629e-05,-4.146396220e-04,-8.399096229e-04,8.287400257e-05,-7.570356203e-04,-1.932107287e-04,-4.894692036e-06,-1.981054207e-04,-2.043900360e-04,1.602881975e-05,-1.883612163e-04,-1.915451760e-04,2.002370447e-06,-1.895428055e-04,-2.275964532e-04,3.446000612e-05,-1.931364471e-04,2.140921026e-04,-9.767774786e-05,1.164143547e-04,-4.224740492e-04,8.538006166e-06,-4.139360430e-04,-5.102383721e-04,1.752410156e-04,-3.349973565e-04,-7.993530721e-04,1.913694558e-04,-6.079836163e-04,-8.347249476e-04,2.386394134e-04,-5.960855342e-04,-4.336480515e-04,-5.525863839e-05,-4.889066899e-04,-4.017256630e-04,1.042519224e-04,-2.974737405e-04,-7.312907263e-05,-4.994927978e-04,-5.726218704e-04,-4.966454856e-04,4.608055156e-05,-4.505649340e-04,-4.123833563e-04,-1.605728484e-04,-5.729562047e-04,-7.179613318e-04,8.812469699e-05,-6.298366348e-04,-5.518538584e-04,3.985722847e-05,-5.119966300e-04,-7.246451384e-04,3.348296668e-04,-3.898154716e-04
-5.8,-1.100843720e-04,-3.387425933e-06,-1.134717980e-04,-2.902297893e-04,-9.576166604e-06,-2.998059560e-04,-1.641253212e-04,2.735816534e-05,-1.367671558e-04,3.276903211e-05,-4.718099963e-05,-1.441196753e-05,-2.449320895e-04,4.583695328e-05,-1.990951362e-04,-1.579452012e-04,6.361148344e-07,-1.573090864e-04,-3.892499140e-04,7.070602196e-05,-3.185438921e-04,-4.500470371e-04,1.935662427e-04,-2.564807944e-04,-3.866879511e-04,6.410380590e-05,-3.225841452e-04,-2.791026721e-04,8.191693774e-05,-1.971857343e-04,-1.741485547e-04,1.108401247e-04,-6.330843002e-05,-4.577449658e-04,7.671794603e-05,-3.810270198e-04,-3.487355833e-04,1.435700300e-04,-2.051655533e-04,-4.875580506e-04,1.183105246e-04,-3.692475260e-04,-4.630027451e-04,1.611656091e-04,-3.018371360e-04,-5.033538388e-04,4.731397038e-05,-4.560398684e-04,-9.466659933e-04,-2.054953431e-05,-9.672155276e-04,-4.136594099e-04,3.659688366e-05,-3.770625262e-04,-7.921537482e-04,7.359031204e-05,-7.185634362e-04,-1.933571112e-04,-2.293411459e-06,-1.956505227e-04,-2.102829136e-04,1.610301579e-05,-1.941798978e-04,-1.788830366e-04,7.305317094e-07,-1.781525049e-04,-2.380517770e-04,3.673159699e-05,-2.013201800e-04,2.236118930e-04,-9.602030047e-05,1.275915925e-04,-3.882085867e-04,1.260191485e-07,-3.880825676e-04,-4.617664843e-04,1.622218716e-04,-2.995446127e-04,-7.503120048e-04,1.596094378e-04,-5.907025670e-04,-7.662511838e-04,2.155878707e-04,-5.506633131e-04,-3.728108042e-04,-9.656905987e-05,-4.693798641e-04,-3.814812895e-04,9.871534488e-05,-2.827659446e-04,1.220278998e-05,-5.485148463e-04,-5.363120563e-04,-4.667925310e-04,4.863967404e-05,-4.181528570e-04,-4.015519554e-04,-1.392414929e-04,-5.407934483e-04,-7.016210441e-04,1.024422939e-04,-5.991787502e-04,-5.194075939e-04,3.675272321e-05,-4.826548707e-04,-6.951041309e-04,3.279311459e-04,-3.671729850e-04
-5.7,-9.826476742e-05,1.497282061e-06,-9.676748536e-05,-2.865958357e-04,-9.769921998e-06,-2.963657577e-04,-1.639667644e-04,3.454365168e-05,-1.294231127e-04,3.233470194e-05,-4.882474464e-05,-1.649004271e-05,-2.427572456e-04,5.520961766e-05,-1.875476280e-04,-1.639031157e-04,7.605867454e-06,-1.562972483e-04,-3.979916214e-04,8.673418705e-05,-3.112574344e-04,-4.556394933e-04,2.069125533e-04,-2.487269400e-04,-3.968079959e-04,7.803334967e-05,-3.187746462e-04,-2.885601043e-04,8.676336224e-05,-2.017967421e-04,-1.845527781e-04,1.123011488e-04,-7.225162927e-05,-4.267102370e-04,7.545601442e-05,-3.512542226e-04,-2.902022624e-04,1.079761536e-04,-1.822261088e-04,-4.591610058e-04,1.176269431e-04,-3.415340626e-04,-4.355142033e-04,1.527035167e-04,-2.828106866e-04,-4.608156656e-04,5.366812365e-05,-4.071475420e-04,-8.898519813e-04,-1.267222098e-05,-9.025242023e-04,-3.715220704e-04,3.340375813e-05,-3.381183123e-04,-7.417780495e-04,6.368230174e-05,-6.780957478e-04,-1.922659244e-04,2.157555124e-07,-1.920501689e-04,-2.146358835e-04,1.590727197e-05,-1.987286115e-04,-1.652383475e-04,-5.501582917e-07,-1.657885058e-04,-2.467249109e-04,3.873184773e-05,-2.079930632e-04,2.327583387e-04,-9.394052476e-05,1.388178140e-04,-3.522203697e-04,-8.550600574e-06,-3.607709703e-04,-4.120854961e-04,1.493886297e-04,-2.626968664e-04,-6.999810113e-04,1.288765639e-04,-5.711044474e-04,-6.950328677e-04,1.921377367e-04,-5.028951310e-04,-3.129221476e-04,-1.354372402e-04,-4.483593878e-04,-3.600843253e-04,9.262723321e-05,-2.674570921e-04,9.952170489e-05,-5.967233135e-04,-4.972016086e-04,-4.351124999e-04,5.092062200e-05,-3.841918779e-04,-3.929486219e-04,-1.176957725e-04,-5.106443944e-04,-6.828721770e-04,1.159874660e-04,-5.668847111e-04,-4.852842842e-04,3.258930562e-05,-4.526949786e-04,-6.600687408e-04,3.160798905e-04,-3.439888504e-04
-5.6,-8.495358513e-05,6.013019194e-06,-7.894056593e-05,-2.808920840e-04,-1.005672600e-05,-2.909488100e-04,-1.623900877e-04,4.148956268e-05,-1.209005250e-04,3.270968528e-05,-5.057325805e-05,-1.786357277e-05,-2.387313259e-04,6.408152848e-05,-1.746497974e-04,-1.687798138e-04,1.449276824e-05,-1.542870455e-04,-4.047487657e-04,1.023011500e-04,-3.024476157e-04,-4.583087375e-04,2.189452279e-04,-2.393635096e-04,-4.049491928e-04,9.153655056e-05,-3.134126423e-04,-2.964307696e-04,9.113240179e-05,-2.052983678e-04,-1.935962912e-04,1.129222396e-04,-8.067405160e-05,-3.939322361e-04,7.375969607e-05,-3.201725400e-04,-2.314723955e-04,7.171112136e-05,-1.597612742e-04,-4.280877192e-04,1.160454084e-04,-3.120423108e-04,-4.062774783e-04,1.436430018e-04,-2.626344765e-04,-4.174803383e-04,6.000069667e-05,-3.574796416e-04,-8.270356853e-04,-7.030871849e-06,-8.340665572e-04,-3.283330059e-04,3.021674094e-05,-2.981162650e-04,-6.889003091e-04,5.320674400e-05,-6.356935651e-04,-1.900117830e-04,2.633557443e-06,-1.873782255e-04,-2.175691592e-04,1.545165662e-05,-2.021175026e-04,-1.507777248e-04,-1.818851556e-06,-1.525965764e-04,-2.536996549e-04,4.044394139e-05,-2.132557135e-04,2.412349555e-04,-9.132436397e-05,1.499105915e-04,-3.147564204e-04,-1.738387112e-05,-3.321402915e-04,-3.614101053e-04,1.367281425e-04,-2.246819628e-04,-6.484009307e-04,9.949877465e-05,-5.489021561e-04,-6.213253679e-04,1.683868012e-04,-4.529385666e-04,-2.543210237e-04,-1.717771930e-04,-4.260982167e-04,-3.377188412e-04,8.607409721e-05,-2.516447440e-04,1.875887382e-04,-6.430210271e-04,-4.554322889e-04,-4.017958125e-04,5.288729698e-05,-3.489085156e-04,-3.865067395e-04,-9.590648170e-05,-4.824132212e-04,-6.616024094e-04,1.285011819e-04,-5.331012275e-04,-4.495720277e-04,2.737257537e-05,-4.221994524e-04,-6.197813972e-04,2.997070560e-04,-3.200743412e-04
-5.5,-7.049635898e-05,1.021017394e-05,-6.028618504e-05,-2.733060507e-04,-1.041441557e-05,-2.837204663e-04,-1.595886624e-04,4.818504540e-05,-1.114036170e-04,3.377334434e-05,-5.240008476e-05,-1.862674042e-05,-2.330356853e-04,7.243211976e-05,-1.606035656e-04,-1.726378949e-04,2.127858731e-05,-1.513593076e-04,-4.095930164e-04,1.173663492e-04,-2.922266672e-04,-4.581354629e-04,2.296552874e-04,-2.284801754e-04,-4.111756668e-04,1.045707451e-04,-3.066049217e-04,-3.028038706e-04,9.504020661e-05,-2.077636640e-04,-2.013899344e-04,1.127480095e-04,-8.864192494e-05,-3.596901367e-04,7.158834021e-05,-2.881017965e-04,-1.730335459e-04,3.512483315e-05,-1.379087127e-04,-3.945464586e-04,1.135955919e-04,-2.809508667e-04,-3.754729517e-04,1.340882121e-04,-2.413847395e-04,-3.735874215e-04,6.622153404e-05,-3.073658875e-04,-7.584313204e-04,-3.491426511e-06,-7.619227469e-04,-2.843763920e-04,2.701306041e-05,-2.573633316e-04,-6.336553000e-04,4.223148291e-05,-5.914238170e-04,-1.866785575e-04,4.962127640e-06,-1.817164298e-04,-2.192105043e-04,1.474958839e-05,-2.044609159e-04,-1.356724127e-04,-3.056827687e-06,-1.387292404e-04,-2.590723222e-04,4.185500015e-05,-2.172173221e-04,2.487609179e-04,-8.807831719e-05,1.606826007e-04,-2.760811317e-04,-2.625477137e-05,-3.023359031e-04,-3.099577179e-04,1.242150084e-04,-1.857427095e-04,-5.955724126e-04,7.172419168e-05,-5.238482209e-04,-5.453648321e-04,1.444102597e-04,-4.009545724e-04,-1.973056200e-04,-2.055384589e-04,-4.028440788e-04,-3.145627062e-04,7.914668636e-05,-2.354160198e-04,2.751587760e-04,-6.863489407e-04,-4.111901647e-04,-3.670464401e-04,5.451045051e-05,-3.125359896e-04,-3.820924614e-04,-7.383093007e-05,-4.559233915e-04,-6.377192436e-04,1.397449535e-04,-4.979742902e-04,-4.123837424e-04,2.113698278e-05,-3.912467596e-04,-5.744687097e-04,2.792264906e-04,-2.952422191e-04
-5.4,-5.524678545e-05,1.414018728e-05,-4.110659817e-05,-2.640405274e-04,-1.082028672e-05,-2.748608141e-04,-1.557637396e-04,5.462004460e-05,-1.011436950e-04,3.539620917e-05,-5.427555433e-05,-1.887934516e-05,-2.258636579e-04,8.024412436e-05,-1.456195336e-04,-1.755479440e-04,2.794440433e-05,-1.476035396e-04,-4.126055034e-04,1.318908976e-04,-2.807146058e-04,-4.552398559e-04,2.390516261e-04,-2.161882298e-04,-4.155618407e-04,1.170954322e-04,-2.984664085e-04,-3.077768202e-04,9.850550003e-05,-2.092713202e-04,-2.080510469e-04,1.118293627e-04,-9.622168423e-05,-3.242653393e-04,6.890560412e-05,-2.553597352e-04,-1.153718010e-04,-1.433557279e-06,-1.168053583e-04,-3.587756060e-04,1.103220804e-04,-2.484535256e-04,-3.432956323e-04,1.241409844e-04,-2.191546479e-04,-3.293645725e-04,7.223699454e-05,-2.571275780e-04,-6.843797824e-04,-1.840605513e-06,-6.862203879e-04,-2.399394875e-04,2.377735685e-05,-2.161621306e-04,-5.761988677e-04,3.083754175e-05,-5.453613259e-04,-1.823594263e-04,7.204916633e-06,-1.751545097e-04,-2.196947404e-04,1.381789021e-05,-2.058768502e-04,-1.200976867e-04,-4.247353209e-06,-1.243450400e-04,-2.629518376e-04,4.295625923e-05,-2.199955784e-04,2.550733653e-04,-8.412987078e-05,1.709434945e-04,-2.364747925e-04,-3.503612993e-05,-2.715109224e-04,-2.579479533e-04,1.118120147e-04,-1.461359387e-04,-5.414524100e-04,4.570761421e-05,-4.957447958e-04,-4.673685696e-04,1.202618538e-04,-3.471067159e-04,-1.421345750e-04,-2.366995740e-04,-3.788341490e-04,-2.907860848e-04,7.193776518e-05,-2.188483196e-04,3.610116660e-04,-7.257157498e-04,-3.647040838e-04,-3.310814353e-04,5.576858698e-05,-2.753128483e-04,-3.795002394e-04,-5.142096593e-05,-4.309212053e-04,-6.111571287e-04,1.495053151e-04,-4.616518135e-04,-3.738607087e-04,1.394819389e-05,-3.599125148e-04,-5.243421746e-04,2.550292622e-04,-2.693129124e-04
-5.3,-3.956355936e-05,1.785476092e-05,-2.170879844e-05,-2.533121460e-04,-1.125160362e-05,-2.645637496e-04,-1.511227791e-04,6.078528559e-05,-9.033749352e-05,3.743980632e-05,-5.616720559e-05,-1.872739927e-05,-2.174215470e-04,8.750376337e-05,-1.299177836e-04,-1.775891937e-04,3.447086071e-05,-1.431183330e-04,-4.138775695e-04,1.458376260e-04,-2.680399435e-04,-4.497807736e-04,2.471606235e-04,-2.026201501e-04,-4.181929729e-04,1.290725932e-04,-2.891203797e-04,-3.114546829e-04,1.015490388e-04,-2.099056440e-04,-2.137031776e-04,1.102230560e-04,-1.034801216e-04,-2.879402812e-04,6.568178296e-05,-2.222584983e-04,-5.896559362e-05,-3.762047006e-05,-9.658606368e-05,-3.210421018e-04,1.062824462e-04,-2.147596556e-04,-3.099568510e-04,1.139007048e-04,-1.960561462e-04,-2.850295934e-04,7.795235346e-05,-2.070772399e-04,-6.053489711e-04,-1.790761451e-06,-6.071397325e-04,-1.953137240e-04,2.050287595e-05,-1.748108481e-04,-5.167127213e-04,1.912019587e-05,-4.975925254e-04,-1.771569617e-04,9.366687822e-06,-1.677902739e-04,-2.191632471e-04,1.267683499e-05,-2.064864121e-04,-1.042324322e-04,-5.375256002e-06,-1.096076882e-04,-2.654593762e-04,4.374301423e-05,-2.217163620e-04,2.599292621e-04,-7.942738940e-05,1.805018727e-04,-1.962316457e-04,-4.359639281e-05,-2.398280385e-04,-2.056029436e-04,9.947107845e-05,-1.061318652e-04,-4.859551267e-04,2.150417410e-05,-4.644509525e-04,-3.875395734e-04,9.597575358e-05,-2.915638198e-04,-8.902581718e-05,-2.652638910e-04,-3.542897082e-04,-2.665505061e-04,6.453935446e-05,-2.020111516e-04,4.439784811e-04,-7.602194201e-04,-3.162409390e-04,-2.941300183e-04,5.664832944e-05,-2.374816889e-04,-3.784548703e-04,-2.862770882e-05,-4.070825791e-04,-5.818848256e-04,1.575975213e-04,-4.242873044e-04,-3.341731272e-04,5.903506462e-06,-3.282696207e-04,-4.696036252e-04,2.274813635e-04,-2.421222617e-04
-5.2,-2.380685846e-05,2.140509158e-05,-2.401766878e-06,-2.413495988e-04,-1.168607610e-05,-2.530356749e-04,-1.458772265e-04,6.667230027e-05,-7.920492624e-05,3.975715743e-05,-5.804028386e-05,-1.828312643e-05,-2.079277597e-04,9.420098266e-05,-1.137267771e-04,-1.788492908e-04,4.083859728e-05,-1.380106935e-04,-4.135104410e-04,1.591711747e-04,-2.543392663e-04,-4.419531453e-04,2.540251931e-04,-1.879279523e-04,-4.191646038e-04,1.404670391e-04,-2.786975647e-04,-3.139491040e-04,1.041930802e-04,-2.097560238e-04,-2.184749166e-04,1.079912437e-04,-1.104836729e-04,-2.509961503e-04,6.189520295e-05,-1.891009474e-04,-4.278071288e-06,-7.310247072e-05,-7.738054201e-05,-2.816371564e-04,1.015441054e-04,-1.800930510e-04,-2.756832256e-04,1.034637218e-04,-1.722195038e-04,-2.407917716e-04,8.327378534e-05,-1.575179863e-04,-5.219242207e-04,-2.990611079e-06,-5.249148318e-04,-1.507937521e-04,1.719107395e-05,-1.336026781e-04,-4.554074324e-04,7.188123499e-06,-4.482193089e-04,-1.711824845e-04,1.145344930e-05,-1.597290352e-04,-2.177627644e-04,1.135000565e-05,-2.064127587e-04,-8.825790538e-05,-6.426512227e-06,-9.468441760e-05,-2.667267560e-04,4.421430561e-05,-2.225124504e-04,2.631083584e-04,-7.394018085e-05,1.891681776e-04,-1.556557909e-04,-5.180414565e-05,-2.074599366e-04,-1.531464037e-04,8.713472986e-05,-6.601167389e-05,-4.289583720e-04,-9.271838292e-07,-4.298855558e-04,-3.060731296e-04,7.156948410e-05,-2.345036455e-04,-3.815270600e-05,-2.912578495e-04,-3.294105555e-04,-2.420074135e-04,5.703967771e-05,-1.849677357e-04,5.229581340e-04,-7.890560506e-04,-2.660979166e-04,-2.564314786e-04,5.714449170e-05,-1.992869869e-04,-3.786190760e-04,-5.402672775e-06,-3.840217488e-04,-5.499115363e-04,1.638687632e-04,-3.860427732e-04,-2.935169550e-04,-2.869902266e-06,-2.963868572e-04,-4.104550716e-04,1.969245178e-04,-2.135305538e-04
-5.1,-8.333800696e-06,2.484120780e-05,1.650740711e-05,-2.283909605e-04,-1.210227156e-05,-2.404932321e-04,-1.402390448e-04,7.227348142e-05,-6.796556334e-05,4.219453732e-05,-5.985829616e-05,-1.766375884e-05,-1.976087568e-04,1.003297354e-04,-9.727902142e-05,-1.794224846e-04,4.702879760e-05,-1.323936870e-04,-4.116128535e-04,1.718580858e-04,-2.397547676e-04,-4.319831620e-04,2.597031965e-04,-1.722799656e-04,-4.185803527e-04,1.512466979e-04,-2.673336549e-04,-3.153762108e-04,1.064607874e-04,-2.089154235e-04,-2.224973758e-04,1.052008844e-04,-1.172964914e-04,-2.137086911e-04,5.753293726e-05,-1.561757539e-04,4.825207191e-05,-1.075606605e-04,-5.930858858e-05,-2.408691800e-04,9.618049931e-05,-1.446886807e-04,-2.407118803e-04,9.292168202e-05,-1.477901983e-04,-1.968502099e-04,8.810952482e-05,-1.087406851e-04,-4.347877890e-04,-5.041885909e-06,-4.398296749e-04,-1.066729545e-04,1.385022764e-05,-9.282272681e-05,-3.925225097e-04,-4.838594112e-06,-3.973611038e-04,-1.645542304e-04,1.347227222e-05,-1.510819581e-04,-2.156432262e-04,9.863954410e-06,-2.057792718e-04,-7.235504041e-05,-7.388111455e-06,-7.974315186e-05,-2.668935742e-04,4.437251416e-05,-2.225210600e-04,2.644172278e-04,-6.765863087e-05,1.967585970e-04,-1.150542803e-04,-5.953282172e-05,-1.745871021e-04,-1.007998638e-04,7.473783663e-05,-2.606202718e-05,-3.703130822e-04,-2.171164577e-05,-3.920247280e-04,-2.231635062e-04,4.704864045e-05,-1.761148658e-04,1.035974823e-05,-3.147288342e-04,-3.043690860e-04,-2.172959467e-04,4.952042705e-05,-1.677755197e-04,5.969244534e-04,-8.115175484e-04,-2.145930949e-04,-2.182317155e-04,5.726022327e-05,-1.609714922e-04,-3.796024105e-04,1.830196460e-05,-3.613004459e-04,-5.152902477e-04,1.682007397e-04,-3.470895080e-04,-2.521074621e-04,-1.221870048e-05,-2.643261625e-04,-3.471139201e-04,1.636818562e-04,-1.834320639e-04
-5,6.507011229e-06,2.821143108e-05,3.471844231e-05,-2.146800613e-04,-1.247995889e-05,-2.271600202e-04,-1.344163179e-04,7.758211845e-05,-5.683419946e-05,4.459429464e-05,-6.158361107e-05,-1.698931644e-05,-1.866929371e-04,1.058882223e-04,-8.080471482e-05,-1.794066190e-04,5.302365697e-05,-1.263829621e-04,-4.082972753e-04,1.838668605e-04,-2.244304149e-04,-4.201213143e-04,2.642649945e-04,-1.558563198e-04,-4.165487640e-04,1.613828058e-04,-2.551659583e-04,-3.158537291e-04,1.083755925e-04,-2.074781365e-04,-2.259008887e-04,1.019229577e-04,-1.239779310e-04,-1.763427229e-04,5.259130519e-05,-1.237514177e-04,9.822082959e-05,-1.406949764e-04,-4.247414684e-05,-1.990557146e-04,9.026748878e-05,-1.087882258e-04,-2.052831818e-04,8.235920560e-05,-1.229239762e-04,-1.533897801e-04,9.237082244e-05,-6.101895769e-05,-3.446903772e-04,-7.520200310e-06,-3.522105775e-04,-6.323608525e-05,1.049371324e-05,-5.274237201e-05,-3.283238703e-04,-1.683062139e-05,-3.451544917e-04,-1.573946698e-04,1.543105002e-05,-1.419636198e-04,-2.129550523e-04,8.247806057e-06,-2.047072463e-04,-5.670066411e-05,-8.248241991e-06,-6.494890610e-05,-2.661039200e-04,4.422307119e-05,-2.218808488e-04,2.636928066e-04,-6.059392787e-05,2.030988787e-04,-7.472815309e-05,-6.666520650e-05,-1.413933596e-04,-4.877644020e-05,6.220956123e-05,1.343312103e-05,-3.098531776e-04,-4.104240255e-05,-3.508955802e-04,-1.390099812e-04,2.241350396e-05,-1.165964772e-04,5.643589223e-05,-3.357409008e-04,-2.793050086e-04,-1.925405198e-04,4.205468559e-05,-1.504858342e-04,6.649283469e-04,-8.269849837e-04,-1.620566367e-04,-1.797791964e-04,5.700736850e-05,-1.227718279e-04,-3.809683660e-04,4.253080862e-05,-3.384375574e-04,-4.781174433e-04,1.705110553e-04,-3.076063880e-04,-2.101710122e-04,-2.196862747e-05,-2.321396397e-04,-2.798315728e-04,1.280676168e-04,-1.517639560e-04
-4.9,2.038087068e-05,3.156186954e-05,5.194274022e-05,-2.004625371e-04,-1.280041537e-05,-2.132629524e-04,-1.286091269e-04,8.259238329e-05,-4.601674362e-05,4.679782547e-05,-6.317808340e-05,-1.638025793e-05,-1.754052889e-04,1.108789880e-04,-6.452630083e-05,-1.789001663e-04,5.880660627e-05,-1.200935601e-04,-4.036765874e-04,1.951680306e-04,-2.085085568e-04,-4.066340982e-04,2.677900736e-04,-1.388440245e-04,-4.131806304e-04,1.708500414e-04,-2.423305890e-04,-3.154982108e-04,1.099606203e-04,-2.055375905e-04,-2.288121457e-04,9.823155971e-05,-1.305805860e-04,-1.391470344e-04,4.707637308e-05,-9.207066135e-05,1.452690527e-04,-1.722282653e-04,-2.695921261e-05,-1.565169197e-04,8.388063468e-05,-7.263628500e-05,-1.696333594e-04,7.185163123e-05,-9.778172818e-05,-1.105773424e-04,9.597351911e-05,-1.460382331e-05,-2.524205324e-04,-9.997126490e-06,-2.624176589e-04,-2.075166899e-05,7.138179935e-06,-1.361348905e-05,-2.630996145e-04,-2.865171271e-05,-2.917513272e-04,-1.498278481e-04,1.733824347e-05,-1.324896046e-04,-2.098466361e-04,6.532882168e-06,-2.033137539e-04,-4.146370633e-05,-8.996629052e-06,-5.046033538e-05,-2.645036431e-04,4.377425776e-05,-2.207293853e-04,2.608037693e-04,-5.277697932e-05,2.080267900e-04,-3.496328295e-05,-7.309754522e-05,-1.080608282e-04,2.725336289e-06,4.947602185e-05,5.220135814e-05,-2.474068648e-04,-5.916338917e-05,-3.065702540e-04,-5.382298415e-05,-2.332932948e-06,-5.615591710e-05,1.000472399e-04,-3.543696649e-04,-2.543224251e-04,-1.678489557e-04,3.470532401e-05,-1.331436317e-04,7.261011196e-04,-8.349253761e-04,-1.088242565e-04,-1.413212979e-04,5.640654801e-05,-8.491474985e-05,-3.822400139e-04,6.731907684e-05,-3.149209370e-04,-4.385299192e-04,1.707534245e-04,-2.677764947e-04,-1.679367994e-04,-3.193080786e-05,-1.998676072e-04,-2.089107296e-04,9.039797343e-05,-1.185127562e-04
-4.8,3.297114298e-05,3.493588339e-05,6.790702637e-05,-1.859823980e-04,-1.304670829e-05,-1.990291063e-04,-1.230067969e-04,8.729929036e-05,-3.570750659e-05,4.864779631e-05,-6.460365298e-05,-1.595585667e-05,-1.639649382e-04,1.153088614e-04,-4.865607676e-05,-1.780004181e-04,6.436227186e-05,-1.136381463e-04,-3.978627252e-04,2.057343389e-04,-1.921283863e-04,-3.917957529e-04,2.703631523e-04,-1.214326006e-04,-4.085877246e-04,1.796266369e-04,-2.289610877e-04,-3.144231796e-04,1.112382599e-04,-2.031849198e-04,-2.313526012e-04,9.420297570e-05,-1.371496255e-04,-1.023511260e-04,4.100429276e-05,-6.134683325e-05,1.890912501e-04,-2.019098341e-04,-1.281858392e-05,-1.135719703e-04,7.709352232e-05,-3.647844794e-05,-1.339890177e-04,6.146329387e-05,-7.252572380e-05,-6.856009328e-05,9.884030005e-05,3.028020677e-05,-1.587775212e-04,-1.206045106e-05,-1.708379723e-04,2.053305455e-05,3.801719888e-06,2.433477444e-05,-1.971549370e-04,-4.016178984e-05,-2.373167269e-04,-1.419774206e-04,1.920258790e-05,-1.227748327e-04,-2.064624696e-04,4.752241591e-06,-2.017102280e-04,-2.680227602e-05,-9.624852151e-06,-3.642712817e-05,-2.622385693e-04,4.303685150e-05,-2.192017178e-04,2.556493857e-04,-4.425635488e-05,2.113930308e-04,3.976900852e-06,-7.874289210e-05,-7.476599125e-05,5.352494523e-05,3.646400314e-05,8.998894836e-05,-1.828129769e-04,-7.635061144e-05,-2.591635884e-04,3.216751131e-05,-2.717562732e-05,4.991883990e-06,1.412077045e-04,-3.706983151e-04,-2.294906106e-04,-1.433115140e-04,2.752347604e-05,-1.157880380e-04,7.796609426e-04,-8.348942009e-04,-5.523325830e-05,-1.031014854e-04,5.548634644e-05,-4.761513897e-05,-3.829058732e-04,9.268298352e-05,-2.902228897e-04,-3.967006198e-04,1.689172886e-04,-2.277833312e-04,-1.256297171e-04,-4.190872556e-05,-1.675384426e-04,-1.347183748e-04,5.100158955e-05,-8.371678527e-05
-4.7,4.398175628e-05,3.837360311e-05,8.235535938e-05,-1.714795580e-04,-1.320390694e-05,-1.846834649e-04,-1.177867798e-04,9.169868530e-05,-2.608809453e-05,4.998932108e-05,-6.582285140e-05,-1.583353033e-05,-1.525856874e-04,1.191888087e-04,-3.339687864e-05,-1.768031013e-04,6.967627340e-05,-1.071268279e-04,-3.909674400e-04,2.155410331e-04,-1.754264068e-04,-3.758812267e-04,2.720703528e-04,-1.038108739e-04,-4.028828681e-04,1.876944524e-04,-2.151884157e-04,-3.127383644e-04,1.122298768e-04,-2.005084875e-04,-2.336381056e-04,8.991477230e-05,-1.437233333e-04,-6.616435794e-05,3.440123393e-05,-3.176312401e-05,2.294419233e-04,-2.295181507e-04,-7.622734519e-08,-7.053774091e-05,6.997680012e-05,-5.609407900e-07,-9.856464425e-05,5.124677605e-05,-4.731786820e-05,-2.746610248e-05,1.009030019e-04,7.343689939e-05,-6.455006715e-05,-1.333128472e-05,-7.788135187e-05,6.039340916e-05,5.023797312e-07,6.089578889e-05,-1.308067728e-04,-5.122098923e-05,-1.820277621e-04,-1.339654991e-04,2.103274151e-05,-1.129327576e-04,-2.029418728e-04,2.940021389e-06,-2.000018514e-04,-1.286179645e-05,-1.012654313e-05,-2.298833959e-05,-2.594534364e-04,4.202350704e-05,-2.174299293e-04,2.481567095e-04,-3.509521733e-05,2.130614921e-04,4.185568179e-05,-8.353334044e-05,-4.167765865e-05,1.034598331e-04,2.310531874e-05,1.265651518e-04,-1.159433261e-04,-9.289136142e-05,-2.088346875e-04,1.186996663e-04,-5.207690399e-05,6.662276234e-05,1.799668396e-04,-3.848154736e-04,-2.048486340e-04,-1.190006655e-04,2.054696389e-05,-9.845370165e-05,8.249185331e-04,-8.265397511e-04,-1.621218002e-06,-6.535724111e-05,5.428167280e-05,-1.107556830e-05,-3.824274213e-04,1.186082672e-04,-2.638191540e-04,-3.528350022e-04,1.650273980e-04,-1.878076042e-04,-8.346468136e-05,-5.170536457e-05,-1.351700459e-04,-5.769502560e-05,1.023049464e-05,-4.746453096e-05
-4.6,5.313838292e-05,4.191162238e-05,9.505000530e-05,-1.571881896e-04,-1.325917251e-05,-1.704473621e-04,-1.131146141e-04,9.578726708e-05,-1.732734706e-05,5.067043829e-05,-6.679919449e-05,-1.612875619e-05,-1.414779981e-04,1.225337764e-04,-1.894422170e-05,-1.754028110e-04,7.473496667e-05,-1.006678443e-04,-3.831041302e-04,2.245661958e-04,-1.585379343e-04,-3.591607377e-04,2.729958637e-04,-8.616487403e-05,-3.961805182e-04,1.950389959e-04,-2.011415224e-04,-3.105495500e-04,1.129555905e-04,-1.975939595e-04,-2.357790563e-04,8.544491579e-05,-1.503341405e-04,-3.077717818e-05,2.730300877e-05,-3.474169416e-06,2.661388585e-04,-2.548626557e-04,1.127620278e-05,-2.772800828e-05,6.259751857e-05,3.486951030e-05,-6.356277080e-05,4.124355195e-05,-2.231921885e-05,1.259365187e-05,1.021044845e-04,1.146981364e-04,2.949993633e-05,-1.347838656e-05,1.602154976e-05,9.862543615e-05,-2.742632816e-06,9.588280333e-05,-6.437843928e-05,-6.169467137e-05,-1.260731106e-04,-1.259119215e-04,2.283692821e-05,-1.030749933e-04,-1.994180312e-04,1.130666283e-06,-1.982873649e-04,2.260803083e-07,-1.049731772e-05,-1.027123741e-05,-2.562910533e-04,4.074813677e-05,-2.155429165e-04,2.382774061e-04,-2.536734702e-05,2.129100591e-04,7.846472493e-05,-8.742128119e-05,-8.956556255e-06,1.523833992e-04,9.340822389e-06,1.617242216e-04,-4.672815440e-05,-1.090628437e-04,-1.557909981e-04,2.054653914e-04,-7.696642018e-05,1.284989713e-04,2.164021621e-04,-3.968148806e-04,-1.804127185e-04,-9.497137168e-05,1.379912154e-05,-8.117225014e-05,8.612783436e-04,-8.096062255e-04,5.167211814e-05,-2.831801767e-05,5.283177045e-05,2.451375278e-05,-3.802494079e-04,1.450396937e-04,-2.352097142e-04,-3.071677978e-04,1.591434271e-04,-1.480243707e-04,-4.164209041e-05,-6.113021693e-05,-1.027723073e-04,2.163726306e-05,-3.152784604e-05,-9.890582979e-06
-4.5,6.018930128e-05,4.558289407e-05,1.057721953e-04,-1.433353096e-04,-1.320174253e-05,-1.565370521e-04,-1.091439020e-04,9.956258653e-05,-9.581315481e-06,5.054264562e-05,-6.749752119e-05,-1.695487557e-05,-1.308500471e-04,1.253625588e-04,-5.487488357e-06,-1.738931273e-04,7.952522902e-05,-9.436789827e-05,-3.743890475e-04,2.327910419e-04,-1.415980056e-04,-3.418952633e-04,2.732192953e-04,-6.867596800e-05,-3.885967387e-04,2.016494230e-04,-1.869473157e-04,-3.079582418e-04,1.134340635e-04,-1.945241784e-04,-2.378801313e-04,8.087094997e-05,-1.570091813e-04,3.636726391e-06,1.975478021e-05,2.339150660e-05,2.990637361e-04,-2.777848747e-04,2.127886136e-05,1.454868313e-05,5.501849633e-05,6.956717945e-05,-2.917467816e-05,3.148577577e-05,2.311097610e-06,5.152280726e-05,1.023999465e-04,1.539227538e-04,1.226498482e-04,-1.222916624e-05,1.104206820e-04,1.350431939e-04,-5.917103136e-06,1.291260908e-04,1.806096129e-06,-7.145904882e-05,-6.965295269e-05,-1.179332721e-04,2.462264542e-05,-9.331062664e-05,-1.960169563e-04,-6.417288474e-07,-1.966586851e-04,1.234433489e-05,-1.073429426e-05,1.610040631e-06,-2.528911411e-04,3.922567406e-05,-2.136654670e-04,2.259855631e-04,-1.515290098e-05,2.108326621e-04,1.136248128e-04,-9.038021653e-05,2.324459624e-05,2.001634009e-04,-4.876830560e-06,1.952865704e-04,2.481987029e-05,-1.251136745e-04,-1.002938042e-04,2.920992915e-04,-1.017350436e-04,1.903642479e-04,2.506122291e-04,-4.067965567e-04,-1.561843276e-04,-7.126166741e-05,7.288791128e-06,-6.397287628e-05,8.882370839e-04,-7.839369292e-04,1.043001547e-04,7.797834518e-06,5.117807271e-05,5.897590723e-05,-3.758129687e-04,1.718737953e-04,-2.039391735e-04,-2.599586281e-04,1.513594037e-04,-1.085992244e-04,-3.440693949e-07,-7.000576987e-05,-7.034983926e-05,1.026662840e-04,-7.383748135e-05,2.882880266e-05
-4.4,6.490699494e-05,4.941675758e-05,1.143237525e-04,-1.301388373e-04,-1.302290125e-05,-1.431617386e-04,-1.060152655e-04,1.030229911e-04,-2.992274435e-06,4.946227817e-05,-6.788437071e-05,-1.842209254e-05,-1.209058188e-04,1.276976923e-04,6.791873518e-06,-1.723653788e-04,8.403437731e-05,-8.833100148e-05,-3.649404553e-04,2.402002043e-04,-1.247402510e-04,-3.243319300e-04,2.728137741e-04,-5.151815591e-05,-3.802477883e-04,2.075185659e-04,-1.727292224e-04,-3.050605104e-04,1.136823117e-04,-1.913781986e-04,-2.400390180e-04,7.626927475e-05,-1.637697432e-04,3.691889212e-05,1.181097958e-05,4.872987170e-05,3.281608173e-04,-2.981584867e-04,3.000233054e-05,5.599363915e-05,4.729736545e-05,1.032910046e-04,4.420936342e-06,2.199819277e-05,2.641912912e-05,8.923842987e-05,1.017575256e-04,1.909959554e-04,2.142245019e-04,-9.375126193e-06,2.048493757e-04,1.694781772e-04,-9.005731494e-06,1.604724457e-04,6.742918781e-05,-8.040657782e-05,-1.297739002e-05,-1.101411208e-04,2.639640478e-05,-8.374471598e-05,-1.928560657e-04,-2.343878445e-06,-1.951999442e-04,2.339182646e-05,-1.083533021e-05,1.255649625e-05,-2.493885329e-04,3.747223855e-05,-2.119162944e-04,2.112770583e-04,-4.534850863e-06,2.067422074e-04,1.471873311e-04,-9.240529455e-05,5.478203653e-05,2.466823331e-04,-1.958193154e-05,2.271004016e-04,9.858746458e-05,-1.412505230e-04,-4.266305846e-05,3.781760292e-04,-1.262349128e-04,2.519411165e-04,2.827117643e-04,-4.148682946e-04,-1.321565304e-04,-4.789342390e-05,1.011898535e-06,-4.688152537e-05,9.053843456e-04,-7.494803061e-04,1.559040395e-04,4.278757432e-05,4.936186881e-05,9.214944313e-05,-3.685697830e-04,1.989555511e-04,-1.696142319e-04,-2.114855307e-04,1.418032332e-04,-6.968229749e-05,4.026843738e-05,-7.817255205e-05,-3.790411467e-05,1.846811038e-04,-1.162016481e-04,6.847945575e-05
-4.3,6.709077338e-05,5.343900763e-05,1.205297810e-04,-1.178047920e-04,-1.271601086e-05,-1.305208029e-04,-1.038541142e-04,1.061675581e-04,2.313443970e-06,4.729292146e-05,-6.792842531e-05,-2.063550385e-05,-1.118402528e-04,1.295653427e-04,1.772508989e-05,-1.709059916e-04,8.825022577e-05,-8.265576583e-05,-3.548757651e-04,2.467820348e-04,-1.080937303e-04,-3.066992579e-04,2.718448028e-04,-3.485445512e-05,-3.712476361e-04,2.126429751e-04,-1.586046610e-04,-3.019450879e-04,1.137155561e-04,-1.882295318e-04,-2.423444390e-04,7.171449169e-05,-1.706299473e-04,6.892585510e-05,3.535051953e-06,7.246090705e-05,3.534341482e-04,-3.158877497e-04,3.754639851e-05,9.632473086e-05,3.948494597e-05,1.358096768e-04,3.706202704e-05,1.279932197e-05,4.986134901e-05,1.256723055e-04,1.001580150e-04,2.258303205e-04,3.036000414e-04,-4.770735006e-06,2.988293064e-04,2.017823958e-04,-1.199419396e-05,1.897882019e-04,1.321879711e-04,-8.845026859e-05,4.373770254e-05,-1.026395892e-04,2.816338949e-05,-7.447619973e-05,-1.900424478e-04,-3.943706607e-06,-1.939861544e-04,3.328501458e-05,-1.079834295e-05,2.248667163e-05,-2.459110019e-04,3.550539679e-05,-2.104056051e-04,1.941696957e-04,6.403555159e-06,2.005732509e-04,1.790367267e-04,-9.351313268e-05,8.552359398e-05,2.918392772e-04,-3.479564934e-05,2.570436278e-04,1.743512156e-04,-1.576288058e-04,1.672240985e-05,4.632178701e-04,-1.502856212e-04,3.129322489e-04,3.128290022e-04,-4.211462441e-04,-1.083172419e-04,-2.487347536e-05,-5.045694664e-06,-2.991917003e-05,9.124090535e-04,-7.063002081e-04,2.061088455e-04,7.646930958e-05,4.742181787e-05,1.238911275e-04,-3.579949345e-04,2.260788438e-04,-1.319160906e-04,-1.620373966e-04,1.306369805e-04,-3.140041611e-05,8.005739142e-05,-8.549202931e-05,-5.434637887e-06,2.668670180e-04,-1.580540138e-04,1.088130042e-04
-4.2,6.656956443e-05,5.767197410e-05,1.242415385e-04,-1.065241164e-04,-1.227656832e-05,-1.188006847e-04,-1.027682384e-04,1.089960683e-04,6.227829949e-06,4.390815657e-05,-6.760096155e-05,-2.369280499e-05,-1.038338870e-04,1.309951274e-04,2.716124039e-05,-1.695935788e-04,9.216120377e-05,-7.743237507e-05,-3.443083102e-04,2.525288776e-04,-9.177943261e-05,-2.892035339e-04,2.703698899e-04,-1.883364404e-05,-3.617056363e-04,2.170228986e-04,-1.446827377e-04,-2.986915045e-04,1.135471156e-04,-1.851443888e-04,-2.448744988e-04,6.727870560e-05,-1.775957932e-04,9.952949682e-05,-5.001324266e-06,9.452817256e-05,3.749438535e-04,-3.309048988e-04,4.403895470e-05,1.352832378e-04,3.162308470e-05,1.669063225e-04,6.860807829e-05,3.901891223e-06,7.250996951e-05,1.607737294e-04,9.759392203e-05,2.583676514e-04,3.902045057e-04,1.672243027e-06,3.918767487e-04,2.318337726e-04,-1.486953939e-05,2.169642332e-04,1.958028526e-04,-9.552649519e-05,1.002763574e-04,-9.552297751e-05,2.992700649e-05,-6.559597102e-05,-1.876713119e-04,-5.410815585e-06,-1.930821275e-04,4.195944574e-05,-1.062090956e-05,3.133853618e-05,-2.425774911e-04,3.334433137e-05,-2.092331598e-04,1.747029119e-04,1.758055820e-05,1.922834701e-04,2.090922551e-04,-9.374037689e-05,1.153518782e-04,3.355511313e-04,-5.052659781e-05,2.850245335e-04,2.517772530e-04,-1.743450996e-04,7.743215334e-05,5.467104899e-04,-1.736854385e-04,3.730250514e-04,3.411045758e-04,-4.257548074e-04,-8.465023156e-05,-2.195569868e-06,-1.090472978e-05,-1.310029965e-05,9.091124716e-04,-6.545896738e-04,2.545227978e-04,1.086867602e-04,4.539143978e-05,1.540782000e-04,-3.435976190e-04,2.529903265e-04,-9.060729257e-05,-1.119067263e-04,1.180573637e-04,6.150637469e-06,1.189080109e-04,-9.184777058e-05,2.706024027e-05,3.483089168e-04,-1.987569474e-04,1.495519694e-04
-4.1,6.320366878e-05,6.213464869e-05,1.253383175e-04,-9.647005232e-05,-1.170217841e-05,-1.081722307e-04,-1.028465358e-04,1.115090138e-04,8.662477926e-06,3.919362453e-05,-6.687624519e-05,-2.768262066e-05,-9.704972896e-05,1.320198313e-04,3.497010232e-05,-1.684971815e-04,9.575647947e-05,-7.274070204e-05,-3.333456116e-04,2.574372526e-04,-7.590835900e-05,-2.720274140e-04,2.684386335e-04,-3.588780522e-06,-3.517254622e-04,2.206621581e-04,-1.310633041e-04,-2.953691074e-04,1.131883539e-04,-1.821807535e-04,-2.476962411e-04,6.303072566e-05,-1.846655155e-04,1.286167221e-04,-1.371924865e-05,1.148974735e-04,3.928022625e-04,-3.431681497e-04,4.963411285e-05,1.726385422e-04,2.374271059e-05,1.963812528e-04,9.894321180e-05,-4.687001178e-06,9.425621062e-05,1.945115262e-04,9.406835092e-05,2.885798771e-04,4.735168485e-04,9.991273398e-06,4.835081219e-04,2.595409349e-04,-1.762101767e-05,2.419199172e-04,2.580233613e-04,-1.015958694e-04,1.564274919e-04,-8.887421853e-05,3.168850198e-05,-5.718571655e-05,-1.858252069e-04,-6.716936201e-06,-1.925421431e-04,4.937011921e-05,-1.030003390e-05,3.907008531e-05,-2.394973873e-04,3.100995393e-05,-2.084874334e-04,1.529367082e-04,2.891699163e-05,1.818536998e-04,2.373067572e-04,-9.314071220e-05,1.441660449e-04,3.777515778e-04,-6.677154959e-05,3.109800282e-04,3.304294982e-04,-1.914311114e-04,1.389983868e-04,6.281227635e-04,-1.962257777e-04,4.318969859e-04,3.676910054e-04,-4.288269396e-04,-6.113593424e-05,2.015653145e-05,-1.658905486e-05,3.567476587e-06,8.954239974e-04,-5.946845773e-04,3.007394201e-04,1.393125516e-04,4.329679658e-05,1.826093481e-04,-3.249317235e-04,2.793967035e-04,-4.553502001e-05,-6.138278969e-05,1.042943923e-04,4.291160262e-05,1.567277714e-04,-9.714581811e-05,5.958195325e-05,4.280065769e-04,-2.376095970e-04,1.903969799e-04
-4,5.688491777e-05,6.684289632e-05,1.237278141e-04,-8.779667536e-05,-1.099237422e-05,-9.878904958e-05,-1.041593922e-04,1.137076117e-04,9.548219459e-06,3.304792153e-05,-6.573185499e-05,-3.268393345e-05,-9.163322545e-05,1.326750219e-04,4.104179648e-05,-1.676762128e-04,9.902611857e-05,-6.865009426e-05,-3.220897603e-04,2.615079549e-04,-6.058180538e-05,-2.553302923e-04,2.660926663e-04,1.076237405e-05,-3.414055003e-04,2.235679742e-04,-1.178375261e-04,-2.920372736e-04,1.126487424e-04,-1.793885312e-04,-2.508665635e-04,5.903526867e-05,-1.918312948e-04,1.560880986e-04,-2.253330248e-05,1.335547961e-04,4.071699954e-04,-3.526611550e-04,5.450884038e-05,2.081894270e-04,1.586305953e-05,2.240524866e-04,1.279764281e-04,-1.296543534e-05,1.150109928e-04,2.268740017e-04,8.959397881e-05,3.164679805e-04,5.530659885e-04,2.017711903e-05,5.732431075e-04,2.848452991e-04,-2.024126893e-05,2.646040301e-04,3.186291946e-04,-1.066413933e-04,2.119878014e-04,-8.276440736e-05,3.344682626e-05,-4.931758110e-05,-1.845742073e-04,-7.836194653e-06,-1.924104020e-04,5.549046387e-05,-9.831917597e-06,4.565854627e-05,-2.367708307e-04,2.852496862e-05,-2.082458621e-04,1.289500650e-04,4.033683068e-05,1.692868957e-04,2.636615384e-04,-9.178039396e-05,1.718811444e-04,4.183878184e-04,-8.351589550e-05,3.348719229e-04,4.097863826e-04,-2.088516172e-04,2.009347654e-04,7.069264948e-04,-2.177058843e-04,4.892206106e-04,3.927516138e-04,-4.305046578e-04,-3.775304404e-05,4.220486473e-05,-2.212242749e-05,2.008243724e-05,8.714139809e-04,-5.270725812e-04,3.443413997e-04,1.682496055e-04,4.115465539e-05,2.094042609e-04,-3.016089036e-04,3.049753298e-04,3.366426237e-06,-1.074470792e-05,8.960655210e-05,7.886184418e-05,1.934442215e-04,-1.013146409e-04,9.212958053e-05,5.049017968e-04,-2.738660490e-04,2.310357478e-04
-3.9,4.753555657e-05,7.180973135e-05,1.193452879e-04,-8.063855214e-05,-1.014829677e-05,-9.078684891e-05,-1.067602694e-04,1.155938247e-04,8.833555272e-06,2.538258421e-05,-6.414893702e-05,-3.876635281e-05,-8.771418402e-05,1.329986094e-04,4.528442540e-05,-1.671815980e-04,1.019613288e-04,-6.522026919e-05,-3.106391790e-04,2.647461371e-04,-4.589304191e-05,-2.392489328e-04,2.633652294e-04,2.411629660e-05,-3.308400466e-04,2.257508111e-04,-1.050892355e-04,-2.887465260e-04,1.119361025e-04,-1.768104236e-04,-2.544339353e-04,5.535233428e-05,-1.990816010e-04,1.818563418e-04,-3.135221192e-05,1.505041299e-04,4.182519945e-04,-3.593936035e-04,5.885839104e-05,2.417623375e-04,7.992588559e-06,2.497549261e-04,1.556396041e-04,-2.093546683e-05,1.347041373e-04,2.578672063e-04,8.419213214e-05,3.420593385e-04,6.284316684e-04,3.217433012e-05,6.606059985e-04,3.077201291e-04,-2.272754052e-05,2.849925886e-04,3.774263812e-04,-1.106635796e-04,2.667628016e-04,-7.725306242e-05,3.519872792e-05,-4.205433450e-05,-1.839767356e-04,-8.745204691e-06,-1.927219403e-04,6.031037516e-05,-9.211715321e-06,5.109865984e-05,-2.344894538e-04,2.591381314e-05,-2.085756407e-04,1.028389528e-04,5.176781731e-05,1.546067701e-04,2.881585237e-04,-8.973287804e-05,1.984256456e-04,4.574160760e-04,-1.007334569e-04,3.566826191e-04,4.892645249e-04,-2.265084169e-04,2.627561080e-04,7.826140859e-04,-2.379447447e-04,5.446693412e-04,4.164575382e-04,-4.309378568e-04,-1.448031862e-05,6.397250245e-05,-2.752574223e-05,3.644676022e-05,8.373017083e-04,-4.523952942e-04,3.849064141e-04,1.954309019e-04,3.897144528e-05,2.344023472e-04,-2.733133535e-04,3.293866482e-04,5.607329469e-05,3.974528745e-05,7.427293999e-05,1.140182274e-04,2.290022055e-04,-1.043046262e-04,1.246975793e-04,5.779155440e-04,-3.067624254e-04,2.711531186e-04
-3.8,3.510679805e-05,7.704559495e-05,1.121523930e-04,-7.511096057e-05,-9.172276145e-06,-8.428323671e-05,-1.106874814e-04,1.171704243e-04,6.482942910e-06,1.612189340e-05,-6.211236653e-05,-4.599047314e-05,-8.540840080e-05,1.330304140e-04,4.762201319e-05,-1.670569665e-04,1.045547951e-04,-6.250217142e-05,-2.990902207e-04,2.671614001e-04,-3.192882055e-05,-2.238972353e-04,2.602807590e-04,3.638352363e-05,-3.201201802e-04,2.272242472e-04,-9.289593299e-05,-2.855398537e-04,1.110569899e-04,-1.744828638e-04,-2.584399657e-04,5.203680249e-05,-2.064031632e-04,2.058459062e-04,-4.008032219e-05,1.657655840e-04,4.262942488e-04,-3.634024846e-04,6.289176420e-05,2.732086347e-04,1.311871249e-07,2.733398218e-04,1.818849877e-04,-2.860129241e-05,1.532836953e-04,2.875129468e-04,7.789190884e-05,3.654048556e-04,6.992489998e-04,4.587966820e-05,7.451286680e-04,3.281678672e-04,-2.508254875e-05,3.030853184e-04,4.342412558e-04,-1.136737742e-04,3.205674816e-04,-7.238845446e-05,3.693892219e-05,-3.544953227e-05,-1.840803710e-04,-9.423149319e-06,-1.935035203e-04,6.383412458e-05,-8.433375631e-06,5.540074895e-05,-2.327367228e-04,2.320248173e-05,-2.095342410e-04,7.471421790e-05,6.314271982e-05,1.378569377e-04,3.108122785e-04,-8.707370591e-05,2.237385726e-04,4.947968160e-04,-1.183852970e-04,3.764115189e-04,5.682445229e-04,-2.442494682e-04,3.239950547e-04,8.547136115e-04,-2.567889203e-04,5.979246912e-04,4.389824382e-04,-4.302799397e-04,8.702498541e-06,8.547924334e-05,-3.281473563e-05,5.266450772e-05,7.934619868e-04,-3.714445031e-04,4.220174837e-04,2.208183724e-04,3.674340051e-05,2.575617729e-04,-2.398141562e-04,3.522861185e-04,1.124719623e-04,8.984776467e-05,5.858396090e-05,1.484317256e-04,2.633617165e-04,-1.060873427e-04,1.572743738e-04,6.459943547e-04,-3.355522690e-04,3.104420857e-04
-3.7,1.957817702e-05,8.255862494e-05,1.021368020e-04,-7.130986299e-05,-8.067357798e-06,-7.937722079e-05,-1.159650840e-04,1.184411254e-04,2.476041432e-06,5.203290903e-06,-5.961079884e-05,-5.440750794e-05,-8.481687339e-05,1.328117832e-04,4.799490981e-05,-1.673387686e-04,1.068010367e-04,-6.053773192e-05,-2.875370962e-04,2.687678451e-04,-1.876925111e-05,-2.093649491e-04,2.568548663e-04,4.748991725e-05,-3.093333561e-04,2.280048097e-04,-8.132854640e-05,-2.824534663e-04,1.100171026e-04,-1.724363636e-04,-2.629199737e-04,4.913814773e-05,-2.137818260e-04,2.279941910e-04,-4.862004341e-05,1.793741476e-04,4.315819801e-04,-3.647537142e-04,6.682826592e-05,3.024033327e-04,-7.727186782e-06,2.946761459e-04,2.066841940e-04,-3.596758281e-05,1.707166112e-04,3.158482653e-04,7.072940446e-05,3.865776698e-04,7.652172570e-04,6.114085959e-05,8.263581166e-04,3.462182128e-04,-2.731500979e-05,3.189032030e-04,4.889164253e-04,-1.156879514e-04,3.732284739e-04,-6.820745991e-05,3.866030109e-05,-2.954715882e-05,-1.849221374e-04,-9.851928515e-06,-1.947740659e-04,6.607882623e-05,-7.489638284e-06,5.858918794e-05,-2.315873895e-04,2.041830321e-05,-2.111690863e-04,4.470008089e-05,7.440089005e-05,1.191009709e-04,3.316445079e-04,-8.387683338e-05,2.477676745e-04,5.304907023e-04,-1.364175569e-04,3.940731454e-04,6.460943654e-04,-2.618811733e-04,3.842131921e-04,9.228014392e-04,-2.741167928e-04,6.486846464e-04,4.604964230e-04,-4.286811360e-04,3.181528696e-05,1.067387821e-04,-3.799832338e-05,6.874045872e-05,7.404340023e-04,-2.851543899e-04,4.552796124e-04,2.444014612e-04,3.445829831e-05,2.788597595e-04,-2.009716722e-04,3.733341907e-04,1.723625185e-04,1.393512782e-04,4.283170241e-05,1.821829806e-04,2.964974711e-04,-1.066550022e-04,1.898424689e-04,7.081632744e-04,-3.595472528e-04,3.486160216e-04
-3.6,9.582432430e-07,8.835500125e-05,8.931324449e-05,-6.931107996e-05,-6.836827686e-06,-7.614790764e-05,-1.226024598e-04,1.194107782e-04,-3.191681635e-06,-7.421247779e-06,-5.663663403e-05,-6.405788181e-05,-8.602220744e-05,1.323852265e-04,4.636301903e-05,-1.680550398e-04,1.086966777e-04,-5.935836211e-05,-2.760697677e-04,2.695840035e-04,-6.485764162e-06,-1.957160222e-04,2.530947400e-04,5.737871777e-05,-2.985617477e-04,2.281117366e-04,-7.045001109e-05,-2.795166997e-04,1.088216247e-04,-1.706950751e-04,-2.679025107e-04,4.670015253e-05,-2.212023582e-04,2.482540239e-04,-5.687470249e-05,1.913793215e-04,4.344388683e-04,-3.635435695e-04,7.089529872e-05,3.292458684e-04,-1.559166906e-05,3.136541993e-04,2.300293291e-04,-4.303855525e-05,1.869907739e-04,3.429271638e-04,6.274715366e-05,4.056743174e-04,8.261108685e-04,7.775794170e-05,9.038688102e-04,3.619290269e-04,-2.944030510e-05,3.324887218e-04,5.413114550e-04,-1.167227846e-04,4.245886704e-04,-6.473494631e-05,4.035430208e-05,-2.438064423e-05,-1.865283153e-04,-1.001626541e-05,-1.965445807e-04,6.707350432e-05,-6.372126266e-06,6.070137806e-05,-2.311063238e-04,1.758966473e-05,-2.135166591e-04,1.293364956e-05,8.548929025e-05,9.842293982e-05,3.506822456e-04,-8.021277319e-05,2.704694724e-04,5.644564825e-04,-1.547591501e-04,4.096973324e-04,7.221902912e-04,-2.791831823e-04,4.430071089e-04,9.865130280e-04,-2.898405032e-04,6.966725249e-04,4.811616111e-04,-4.262823583e-04,5.487925278e-05,1.277575247e-04,-4.307781400e-05,8.467971070e-05,6.789309351e-04,-1.945902581e-04,4.843406770e-04,2.661951297e-04,3.209877831e-05,2.982939081e-04,-1.567381701e-04,3.922046402e-04,2.354664701e-04,1.880775685e-04,2.730031484e-05,2.153778834e-04,3.284000072e-04,-1.060200617e-04,2.223799455e-04,7.635772889e-04,-3.781555597e-04,3.854217292e-04
-3.5,-2.071400785e-05,9.443940976e-05,7.372540191e-05,-6.916887721e-05,-5.483796943e-06,-7.465267415e-05,-1.305932444e-04,1.200855615e-04,-1.050768287e-05,-2.178334634e-05,-5.318593922e-05,-7.496928556e-05,-8.908415179e-05,1.317939782e-04,4.270982638e-05,-1.692237545e-04,1.102405878e-04,-5.898316670e-05,-2.647710402e-04,2.696326121e-04,4.861571886e-06,-1.829879005e-04,2.489999583e-04,6.601205786e-05,-2.878804371e-04,2.275667017e-04,-6.031373545e-05,-2.767515538e-04,1.074755056e-04,-1.692760482e-04,-2.734087153e-04,4.476061938e-05,-2.286480959e-04,2.665966791e-04,-6.475148315e-05,2.018451959e-04,4.352257736e-04,-3.598990693e-04,7.532670429e-05,3.536610128e-04,-2.347097772e-05,3.301900351e-04,2.519346318e-04,-4.981743554e-05,2.021171962e-04,3.688233562e-04,5.399371417e-05,4.228170704e-04,8.817887004e-04,9.548954945e-05,9.772782499e-04,3.753893979e-04,-3.148143971e-05,3.439079582e-04,5.913077498e-04,-1.167946819e-04,4.745130679e-04,-6.198322044e-05,4.201144933e-05,-1.997177111e-05,-1.889143198e-04,-9.903651371e-06,-1.988179712e-04,6.685816751e-05,-5.071477518e-06,6.178668999e-05,-2.313475821e-04,1.474562082e-05,-2.166019613e-04,-2.043517422e-05,9.636268649e-05,7.592751227e-05,3.679587911e-04,-7.614795593e-05,2.918108352e-04,5.966510922e-04,-1.733207034e-04,4.233303888e-04,7.959368161e-04,-2.959252208e-04,5.000115953e-04,1.045551845e-03,-3.039065009e-04,7.416453443e-04,5.011305562e-04,-4.232122916e-04,7.791826458e-05,1.485343028e-04,-4.804714473e-05,1.004871581e-04,6.098435238e-04,-1.009315643e-04,5.089119595e-04,2.862368418e-04,2.964642180e-05,3.158832636e-04,-1.071563728e-04,4.085928828e-04,3.014365099e-04,2.358864621e-04,1.225716019e-05,2.481436223e-04,3.590768514e-04,-1.042144385e-04,2.548624129e-04,8.115619712e-04,-3.909098168e-04,4.206521545e-04
