Time,S1D1HbO,S1D1HbR,S1D1HbT,S2D2HbO,S2D2HbR,S2D2HbT,S3D3HbO,S3D3HbR,S3D3HbT,S4D4HbO,S4D4HbR,S4D4HbT,S5D5HbO,S5D5HbR,S5D5HbT,S6D6HbO,S6D6HbR,S6D6HbT,S7D7HbO,S7D7HbR,S7D7HbT,S8D8HbO,S8D8HbR,S8D8HbT,S9D9HbO,S9D9HbR,S9D9HbT,S10D10HbO,S10D10HbR,S10D10HbT,S11D11HbO,S11D11HbR,S11D11HbT,S12D12HbO,S12D12HbR,S12D12HbT,S13D13HbO,S13D13HbR,S13D13HbT,S14D14HbO,S14D14HbR,S14D14HbT,S15D15HbO,S15D15HbR,S15D15HbT,S16D16HbO,S16D16HbR,S16D16HbT,S17D17HbO,S17D17HbR,S17D17HbT,S18D18HbO,S18D18HbR,S18D18HbT,S19D19HbO,S19D19HbR,S19D19HbT,S20D20HbO,S20D20HbR,S20D20HbT,S21D21HbO,S21D21HbR,S21D21HbT,S22D22HbO,S22D22HbR,S22D22HbT,S23D23HbO,S23D23HbR,S23D23HbT,S24D24HbO,S24D24HbR,S24D24HbT,S25D25HbO,S25D25HbR,S25D25HbT,S26D26HbO,S26D26HbR,S26D26HbT,S27D27HbO,S27D27HbR,S27D27HbT,S28D28HbO,S28D28HbR,S28D28HbT,S29D29HbO,S29D29HbR,S29D29HbT,S30D30HbO,S30D30HbR,S30D30HbT,S31D31HbO,S31D31HbR,S31D31HbT,S32D32HbO,S32D32HbR,S32D32HbT,S33D33HbO,S33D33HbR,S33D33HbT,S34D34HbO,S34D34HbR,S34D34HbT,S35D35HbO,S35D35HbR,S35D35HbT,S36D36HbO,S36D36HbR,S36D36HbT,
-10,-8.831007081e-04,3.485266101e-04,-5.345740980e-04,-2.317242327e-03,-1.332001506e-04,-2.450442478e-03,-2.034434597e-03,-1.024952613e-04,-2.136929859e-03,-3.986373943e-03,-4.598287363e-04,-4.446202680e-03,-1.449456070e-03,-2.433018340e-04,-1.692757904e-03,-2.576009670e-03,-7.279259887e-05,-2.648802269e-03,-2.386878019e-03,-1.187757769e-04,-2.505653796e-03,-2.074914201e-03,2.448032673e-05,-2.050433874e-03,-3.789786039e-03,-1.912932233e-04,-3.981079262e-03,-2.867978687e-03,1.262575083e-04,-2.741721179e-03,-2.463341126e-03,-2.935773104e-04,-2.756918436e-03,-1.186361414e-03,2.595400326e-06,-1.183766013e-03,-8.427301724e-04,-3.022583442e-04,-1.144988517e-03,-2.066320026e-03,4.759109559e-05,-2.018728930e-03,-1.091105833e-03,-6.067557900e-05,-1.151781412e-03,-1.878010396e-03,-4.079586831e-05,-1.918806264e-03,-1.872792131e-03,-4.991377187e-05,-1.922705903e-03,-1.628992055e-03,-6.109256632e-06,-1.635101312e-03,-1.527482004e-03,-3.404211522e-06,-1.530886216e-03,-1.665204942e-03,6.592449249e-05,-1.599280450e-03,-1.970771335e-03,-2.751800972e-04,-2.245951432e-03,-1.812175292e-03,-3.486054894e-04,-2.160780781e-03,-1.431265284e-03,-1.471998747e-04,-1.578465159e-03,-1.311874442e-03,-1.208551697e-04,-1.432729611e-03,-2.407563957e-03,1.689628297e-04,-2.238601127e-03,-1.520799733e-03,-1.598493224e-05,-1.536784666e-03,1.587418558e-04,-1.892010914e-03,-1.733269059e-03,-2.361626750e-03,1.761612836e-04,-2.185465466e-03,-1.756133017e-03,-9.929735457e-05,-1.855430371e-03,-2.409387007e-03,-1.982344195e-05,-2.429210449e-03,-2.253484889e-03,-7.177681440e-05,-2.325261704e-03,-2.615368056e-03,-2.746147073e-05,-2.642829527e-03,-2.520680036e-03,-4.446329270e-05,-2.565143329e-03,-2.412756110e-03,-6.972306286e-05,-2.482479173e-03,-3.063980729e-03,-3.126156325e-04,-3.376596362e-03,-3.084569528e-03,-2.618003724e-04,-3.346369900e-03
-9.9,-8.768736555e-04,3.457783302e-04,-5.310953252e-04,-2.326909898e-03,-1.297864883e-04,-2.456696386e-03,-2.050671224e-03,-1.012017309e-04,-2.151872955e-03,-3.984543424e-03,-4.527358984e-04,-4.437279323e-03,-1.480762854e-03,-2.304736664e-04,-1.711236520e-03,-2.607048272e-03,-7.007604799e-05,-2.677124320e-03,-2.433251347e-03,-1.103063128e-04,-2.543557660e-03,-2.102538213e-03,4.191800944e-05,-2.060620204e-03,-3.800712282e-03,-1.786744666e-04,-3.979386749e-03,-2.839508650e-03,1.396270972e-04,-2.699881553e-03,-2.461168646e-03,-2.830131770e-04,-2.744181823e-03,-1.198029531e-03,1.063128446e-05,-1.187398247e-03,-8.422966108e-04,-3.170355418e-04,-1.159332153e-03,-2.066026913e-03,4.663828645e-05,-2.019388627e-03,-1.157133458e-03,-5.402645786e-05,-1.211159916e-03,-1.907604880e-03,-3.590547220e-05,-1.943510353e-03,-1.896414137e-03,-5.577244852e-05,-1.952186585e-03,-1.655260954e-03,-1.495904390e-05,-1.670219998e-03,-1.551542230e-03,-1.848550587e-06,-1.553390781e-03,-1.654119280e-03,7.321213058e-05,-1.580907150e-03,-1.968388158e-03,-2.687923114e-04,-2.237180469e-03,-1.841509692e-03,-3.443967589e-04,-2.185906451e-03,-1.440135320e-03,-1.431817234e-04,-1.583317043e-03,-1.313064426e-03,-1.190347970e-04,-1.432099223e-03,-2.426116202e-03,1.674131133e-04,-2.258703089e-03,-1.517194728e-03,-2.929961809e-05,-1.546494346e-03,1.177775600e-04,-1.859186774e-03,-1.741409214e-03,-2.372623027e-03,1.703327150e-04,-2.202290312e-03,-1.767806207e-03,-9.612134509e-05,-1.863927552e-03,-2.448309275e-03,-2.076245102e-05,-2.469071726e-03,-2.270329517e-03,-7.647245671e-05,-2.346801974e-03,-2.647197163e-03,-2.563974606e-05,-2.672836909e-03,-2.525923849e-03,-5.048505399e-05,-2.576408903e-03,-2.417810783e-03,-6.997456697e-05,-2.487785350e-03,-3.066315082e-03,-3.162255803e-04,-3.382540663e-03,-3.058836986e-03,-2.737525705e-04,-3.332589556e-03
-9.8,-8.710480782e-04,3.424327965e-04,-5.286152817e-04,-2.335275381e-03,-1.264928722e-04,-2.461768253e-03,-2.065994551e-03,-1.002277600e-04,-2.166222311e-03,-3.979354519e-03,-4.452452095e-04,-4.424599728e-03,-1.509901456e-03,-2.179004862e-04,-1.727801942e-03,-2.634641477e-03,-6.744014435e-05,-2.702081621e-03,-2.475399687e-03,-1.019795560e-04,-2.577379243e-03,-2.127314092e-03,5.908061996e-05,-2.068233472e-03,-3.806203101e-03,-1.658727534e-04,-3.972075855e-03,-2.806805470e-03,1.525812721e-04,-2.654224198e-03,-2.454939641e-03,-2.722550288e-04,-2.727194669e-03,-1.207606448e-03,1.860783228e-05,-1.188998615e-03,-8.400334365e-04,-3.301591314e-04,-1.170192568e-03,-2.062688169e-03,4.535600401e-05,-2.017332165e-03,-1.219587715e-03,-4.768644347e-05,-1.267274159e-03,-1.933371954e-03,-3.011126639e-05,-1.963483221e-03,-1.914788510e-03,-6.149957448e-05,-1.976288085e-03,-1.678768460e-03,-2.318937578e-05,-1.701957836e-03,-1.572017855e-03,8.604495684e-08,-1.571931810e-03,-1.640628436e-03,8.005633336e-05,-1.560572103e-03,-1.963513682e-03,-2.623351105e-04,-2.225848792e-03,-1.869304234e-03,-3.395704189e-04,-2.208874653e-03,-1.447819587e-03,-1.394106726e-04,-1.587230260e-03,-1.313606912e-03,-1.174039860e-04,-1.431010898e-03,-2.439919297e-03,1.652422457e-04,-2.274677051e-03,-1.512164899e-03,-4.126806475e-05,-1.553432964e-03,6.895541619e-05,-1.819570802e-03,-1.750615385e-03,-2.377959976e-03,1.636251130e-04,-2.214334863e-03,-1.774972026e-03,-9.284988518e-05,-1.867821912e-03,-2.482165094e-03,-2.175237346e-05,-2.503917468e-03,-2.281668001e-03,-8.117402399e-05,-2.362842025e-03,-2.673441575e-03,-2.373655625e-05,-2.697178132e-03,-2.526380593e-03,-5.621498519e-05,-2.582595579e-03,-2.417783869e-03,-6.988117159e-05,-2.487665041e-03,-3.062520799e-03,-3.184983884e-04,-3.381019187e-03,-3.027160670e-03,-2.843414345e-04,-3.311502104e-03
-9.7,-8.655390445e-04,3.385230039e-04,-5.270160406e-04,-2.342246017e-03,-1.233161949e-04,-2.465562212e-03,-2.080217101e-03,-9.950560086e-05,-2.179722702e-03,-3.970829002e-03,-4.373523444e-04,-4.408181347e-03,-1.536897602e-03,-2.055952945e-04,-1.742492897e-03,-2.658706109e-03,-6.488892787e-05,-2.723595037e-03,-2.513265147e-03,-9.378773256e-05,-2.607052879e-03,-2.149120296e-03,7.591992594e-05,-2.073200370e-03,-3.806332699e-03,-1.529003509e-04,-3.959233049e-03,-2.769996036e-03,1.650869977e-04,-2.604909039e-03,-2.444822485e-03,-2.613084022e-04,-2.706130887e-03,-1.215159091e-03,2.653990392e-05,-1.188619187e-03,-8.362679913e-04,-3.413575698e-04,-1.177625561e-03,-2.056408110e-03,4.379794256e-05,-2.012610167e-03,-1.278397041e-03,-4.165164719e-05,-1.320048688e-03,-1.955366707e-03,-2.343986844e-05,-1.978806576e-03,-1.928146422e-03,-6.704071459e-05,-1.995187136e-03,-1.699601993e-03,-3.073497312e-05,-1.730336966e-03,-1.589059446e-03,2.369893597e-06,-1.586689553e-03,-1.624724888e-03,8.646849534e-05,-1.538256393e-03,-1.956230418e-03,-2.558161326e-04,-2.212046551e-03,-1.895444280e-03,-3.341525972e-04,-2.229596877e-03,-1.454267310e-03,-1.358651380e-04,-1.590132448e-03,-1.313588131e-03,-1.159805257e-04,-1.429568656e-03,-2.448984716e-03,1.624741557e-04,-2.286510561e-03,-1.505846346e-03,-5.181293096e-05,-1.557659277e-03,1.305273013e-05,-1.774130317e-03,-1.761077587e-03,-2.377799671e-03,1.560760477e-04,-2.221723623e-03,-1.777723547e-03,-8.954982314e-05,-1.867273370e-03,-2.510996294e-03,-2.278928505e-05,-2.533785579e-03,-2.287642841e-03,-8.583527495e-05,-2.373478116e-03,-2.694155001e-03,-2.173181546e-05,-2.715886817e-03,-2.522202460e-03,-6.167132673e-05,-2.583873787e-03,-2.412918589e-03,-6.946525508e-05,-2.482383844e-03,-3.053033170e-03,-3.193533364e-04,-3.372386507e-03,-2.990180041e-03,-2.934304045e-04,-3.283610446e-03
-9.6,-8.602697665e-04,3.340826956e-04,-5.261870709e-04,-2.347736532e-03,-1.202536153e-04,-2.467990147e-03,-2.093166735e-03,-9.896946381e-05,-2.192136198e-03,-3.959001379e-03,-4.290574214e-04,-4.388058800e-03,-1.561780105e-03,-1.935698034e-04,-1.755349908e-03,-2.679174087e-03,-6.242677200e-05,-2.741600859e-03,-2.546805530e-03,-8.572434543e-05,-2.632529876e-03,-2.167833750e-03,9.238231233e-05,-2.075451438e-03,-3.801192493e-03,-1.397720108e-04,-3.940964504e-03,-2.729223766e-03,1.771143735e-04,-2.552109392e-03,-2.430994171e-03,-2.501793799e-04,-2.681173551e-03,-1.220778278e-03,3.444399871e-05,-1.186334280e-03,-8.313194962e-04,-3.503910833e-04,-1.181710580e-03,-2.047308666e-03,4.202557135e-05,-2.005283095e-03,-1.333516650e-03,-3.590521207e-05,-1.369421862e-03,-1.973652600e-03,-1.593252907e-05,-1.989585129e-03,-1.936734042e-03,-7.233298094e-05,-2.009067023e-03,-1.717850881e-03,-3.753008737e-05,-1.755380968e-03,-1.602820670e-03,4.966173655e-06,-1.597854496e-03,-1.606415626e-03,9.246000416e-05,-1.513955621e-03,-1.946628729e-03,-2.492417358e-04,-2.195870464e-03,-1.919825288e-03,-3.281761923e-04,-2.248001480e-03,-1.459426756e-03,-1.325210960e-04,-1.591947852e-03,-1.313088124e-03,-1.147782618e-04,-1.427866385e-03,-2.453370033e-03,1.591469585e-04,-2.294223074e-03,-1.498373963e-03,-6.087364819e-05,-1.559247611e-03,-4.910030045e-05,-1.723846300e-03,-1.772946600e-03,-2.372364428e-03,1.477427635e-04,-2.224621665e-03,-1.776172299e-03,-8.628211431e-05,-1.862454413e-03,-2.534863491e-03,-2.386621074e-05,-2.558729701e-03,-2.288411059e-03,-9.041007281e-05,-2.378821132e-03,-2.709402040e-03,-1.960557533e-05,-2.729007615e-03,-2.513539856e-03,-6.687003615e-05,-2.580409893e-03,-2.403461652e-03,-6.875129205e-05,-2.472212944e-03,-3.038317677e-03,-3.186967462e-04,-3.357014423e-03,-2.948531522e-03,-3.008935391e-04,-3.249425061e-03
-9.5,-8.551705586e-04,3.291459854e-04,-5.260245733e-04,-2.351666990e-03,-1.173024446e-04,-2.468969435e-03,-2.104686150e-03,-9.855643884e-05,-2.203242589e-03,-3.943913218e-03,-4.203649196e-04,-4.364278138e-03,-1.584576502e-03,-1.818343434e-04,-1.766410846e-03,-2.695988697e-03,-6.005723716e-05,-2.756045934e-03,-2.575990248e-03,-7.778408658e-05,-2.653774334e-03,-2.183328070e-03,1.084098021e-04,-2.074918268e-03,-3.790887175e-03,-1.265049217e-04,-3.917392097e-03,-2.684644123e-03,1.886368305e-04,-2.496007292e-03,-2.413636625e-03,-2.388750001e-04,-2.652511625e-03,-1.224574685e-03,4.233895825e-05,-1.182235726e-03,-8.254920615e-04,-3.570541744e-04,-1.182546236e-03,-2.035525521e-03,4.010670538e-05,-1.995418815e-03,-1.384923279e-03,-3.041672775e-05,-1.415340007e-03,-1.988296368e-03,-7.644384178e-06,-1.995940752e-03,-1.940804537e-03,-7.730464570e-05,-2.018109182e-03,-1.733603026e-03,-4.351004912e-05,-1.777113075e-03,-1.613452636e-03,7.833336822e-06,-1.605619300e-03,-1.585719141e-03,9.804168159e-05,-1.487677459e-03,-1.934803262e-03,-2.426173093e-04,-2.177420572e-03,-1.942351401e-03,-3.216799955e-04,-2.264031396e-03,-1.463244395e-03,-1.293524199e-04,-1.592596815e-03,-1.312178362e-03,-1.138066103e-04,-1.425984972e-03,-2.453172703e-03,1.553140865e-04,-2.297858617e-03,-1.489875831e-03,-6.840772896e-05,-1.558283560e-03,-1.166414680e-04,-1.669686524e-03,-1.786327992e-03,-2.361928703e-03,1.387007984e-04,-2.223227904e-03,-1.770441606e-03,-8.310247290e-05,-1.853544079e-03,-2.553841247e-03,-2.497283253e-05,-2.578814079e-03,-2.284139233e-03,-9.485278707e-05,-2.378992020e-03,-2.719253296e-03,-1.733982171e-05,-2.736593118e-03,-2.500535637e-03,-7.182343399e-05,-2.572359071e-03,-2.389653724e-03,-6.776517593e-05,-2.457418900e-03,-3.018857843e-03,-3.164216059e-04,-3.335279449e-03,-2.902833671e-03,-3.066168031e-04,-3.209450474e-03
-9.4,-8.501783133e-04,3.237470861e-04,-5.264312271e-04,-2.353961359e-03,-1.144600501e-04,-2.468421409e-03,-2.114633228e-03,-9.820734892e-05,-2.212840577e-03,-3.925608927e-03,-4.112833728e-04,-4.336892299e-03,-1.605310867e-03,-1.703978438e-04,-1.775708710e-03,-2.709103077e-03,-5.778209325e-05,-2.766885170e-03,-2.600798509e-03,-6.996283183e-05,-2.670761341e-03,-2.195474104e-03,1.239416415e-04,-2.071532463e-03,-3.775532498e-03,-1.131187705e-04,-3.888651268e-03,-2.636421650e-03,1.996311717e-04,-2.436790478e-03,-2.392934678e-03,-2.274036740e-04,-2.620338352e-03,-1.226675405e-03,5.024636309e-05,-1.176429042e-03,-8.190715913e-04,-3.611776233e-04,-1.180249215e-03,-2.021205029e-03,3.811331108e-05,-1.983091718e-03,-1.432608857e-03,-2.514429614e-05,-1.457753153e-03,-1.999365373e-03,1.356472736e-06,-1.998008901e-03,-1.940613118e-03,-8.187583386e-05,-2.022488952e-03,-1.746941647e-03,-4.861411267e-05,-1.795555759e-03,-1.621100541e-03,1.092765946e-05,-1.610172882e-03,-1.562663616e-03,1.032233377e-04,-1.459440278e-03,-1.920850650e-03,-2.359476327e-04,-2.156798283e-03,-1.962935190e-03,-3.147074090e-04,-2.277642599e-03,-1.465664834e-03,-1.263311997e-04,-1.591996033e-03,-1.310920096e-03,-1.130700316e-04,-1.423990128e-03,-2.448524153e-03,1.510441701e-04,-2.297479983e-03,-1.480468991e-03,-7.439163754e-05,-1.554860629e-03,-1.886985243e-04,-1.612579523e-03,-1.801278048e-03,-2.346811357e-03,1.290423939e-04,-2.217768963e-03,-1.760663224e-03,-8.006180493e-05,-1.840725029e-03,-2.568016447e-03,-2.609493341e-05,-2.594111380e-03,-2.275001021e-03,-9.911872290e-05,-2.374119743e-03,-2.723783179e-03,-1.492044344e-05,-2.738703622e-03,-2.483323428e-03,-7.653958189e-05,-2.559863010e-03,-2.371724374e-03,-6.653379307e-05,-2.438258167e-03,-2.995144300e-03,-3.124105747e-04,-3.307554875e-03,-2.853678704e-03,-3.105008114e-04,-3.164179515e-03
-9.3,-8.452365195e-04,3.179200727e-04,-5.273164468e-04,-2.354546916e-03,-1.117237266e-04,-2.466270642e-03,-2.122882067e-03,-9.786753975e-05,-2.220749606e-03,-3.904133090e-03,-4.018250268e-04,-4.305958117e-03,-1.624003455e-03,-1.592678915e-04,-1.783271346e-03,-2.718480337e-03,-5.560063731e-05,-2.774080975e-03,-2.621219346e-03,-6.225769734e-05,-2.683477044e-03,-2.204142560e-03,1.389163944e-04,-2.065226166e-03,-3.755254292e-03,-9.963583458e-05,-3.854890127e-03,-2.584728403e-03,2.100775162e-04,-2.374650887e-03,-2.369075335e-03,-2.157755425e-04,-2.584850878e-03,-1.227220125e-03,5.818978163e-05,-1.169030344e-03,-8.123248072e-04,-3.626299778e-04,-1.174954785e-03,-2.004501827e-03,3.611882007e-05,-1.968383007e-03,-1.476573644e-03,-2.003861594e-05,-1.496612260e-03,-2.006927255e-03,1.099017572e-05,-1.995937079e-03,-1.936414666e-03,-8.596053121e-05,-2.022375198e-03,-1.757942286e-03,-5.278950793e-05,-1.810731794e-03,-1.625902260e-03,1.420526325e-05,-1.611696997e-03,-1.537286237e-03,1.080135369e-04,-1.429272701e-03,-1.904868470e-03,-2.292371515e-04,-2.134105621e-03,-1.981498492e-03,-3.073048072e-04,-2.288803299e-03,-1.466631371e-03,-1.234280311e-04,-1.590059402e-03,-1.309363515e-03,-1.125675899e-04,-1.421931105e-03,-2.439584106e-03,1.464192606e-04,-2.293164845e-03,-1.470257085e-03,-7.882080467e-05,-1.549077890e-03,-2.644139497e-04,-1.553387397e-03,-1.817801347e-03,-2.327368486e-03,1.188740529e-04,-2.208494433e-03,-1.746976301e-03,-7.720662292e-05,-1.824182924e-03,-2.577488494e-03,-2.721380356e-05,-2.604702297e-03,-2.261176281e-03,-1.031649181e-04,-2.364341199e-03,-2.723070197e-03,-1.233886769e-05,-2.735409064e-03,-2.462029096e-03,-8.102246668e-05,-2.543051563e-03,-2.349890506e-03,-6.508501563e-05,-2.414975522e-03,-2.967663132e-03,-3.065428038e-04,-3.274205936e-03,-2.801628146e-03,-3.124649959e-04,-3.114093142e-03
-9.2,-8.402955283e-04,3.116986036e-04,-5.285969247e-04,-2.353354239e-03,-1.090905144e-04,-2.462444753e-03,-2.129324082e-03,-9.748758731e-05,-2.226811669e-03,-3.879528873e-03,-3.920055741e-04,-4.271534448e-03,-1.640671227e-03,-1.484508245e-04,-1.789122052e-03,-2.724094097e-03,-5.350937347e-05,-2.777603470e-03,-2.637252334e-03,-5.466711361e-05,-2.691919448e-03,-2.209207953e-03,1.532744943e-04,-2.055933458e-03,-3.730187732e-03,-8.608102898e-05,-3.816268761e-03,-2.529743122e-03,2.199591807e-04,-2.309783941e-03,-2.342247531e-03,-2.040027119e-04,-2.546250243e-03,-1.226356686e-03,6.619327541e-05,-1.160163410e-03,-8.054980371e-04,-3.613180502e-04,-1.166816087e-03,-1.985576686e-03,3.419543170e-05,-1.951381254e-03,-1.516820198e-03,-1.504714729e-05,-1.531867346e-03,-2.011050606e-03,2.116635993e-05,-1.989884246e-03,-1.928462544e-03,-8.946966006e-05,-2.017932204e-03,-1.766670169e-03,-5.599590771e-05,-1.822666077e-03,-1.627987763e-03,1.762325725e-05,-1.610364506e-03,-1.509633087e-03,1.124195575e-04,-1.397213529e-03,-1.886954941e-03,-2.224901687e-04,-2.109445110e-03,-1.997973500e-03,-2.995198267e-04,-2.297493327e-03,-1.466086776e-03,-1.206123024e-04,-1.586699078e-03,-1.307547456e-03,-1.122927331e-04,-1.419840189e-03,-2.426534700e-03,1.415314382e-04,-2.285003262e-03,-1.459329600e-03,-8.170854986e-05,-1.541038150e-03,-3.429699287e-04,-1.492877977e-03,-1.835847905e-03,-2.303986118e-03,1.083129193e-04,-2.195673199e-03,-1.729527253e-03,-7.457954187e-05,-1.804106795e-03,-2.582369392e-03,-2.830578883e-05,-2.610675181e-03,-2.242850397e-03,-1.069513536e-04,-2.349801751e-03,-2.717198553e-03,-9.593156455e-06,-2.726791710e-03,-2.436772966e-03,-8.527312234e-05,-2.522046089e-03,-2.324356565e-03,-6.344787001e-05,-2.387804435e-03,-2.936882533e-03,-2.987029212e-04,-3.235585454e-03,-2.747209681e-03,-3.124517956e-04,-3.059661477e-03
-9.1,-8.353125789e-04,3.051155968e-04,-5.301969821e-04,-2.350317223e-03,-1.065569316e-04,-2.456874155e-03,-2.133868355e-03,-9.702387935e-05,-2.230892235e-03,-3.851836575e-03,-3.818439903e-04,-4.233680565e-03,-1.655327981e-03,-1.379517935e-04,-1.793279774e-03,-2.725927927e-03,-5.150218040e-05,-2.777430107e-03,-2.648907587e-03,-4.719085764e-05,-2.696098445e-03,-2.210552633e-03,1.669609337e-04,-2.043591700e-03,-3.700475693e-03,-7.248186838e-05,-3.772957562e-03,-2.471650047e-03,2.292624702e-04,-2.242387576e-03,-2.312641329e-03,-1.920993465e-04,-2.504740676e-03,-1.224236199e-03,7.428004935e-05,-1.149956149e-03,-7.988141422e-04,-3.571862953e-04,-1.156000438e-03,-1.964593802e-03,3.241172766e-05,-1.932182075e-03,-1.553349245e-03,-1.011672300e-05,-1.563465968e-03,-2.011804791e-03,3.178530068e-05,-1.980019490e-03,-1.917006707e-03,-9.231464680e-05,-2.009321353e-03,-1.773177560e-03,-5.820947175e-05,-1.831387032e-03,-1.627477985e-03,2.114006191e-05,-1.606337923e-03,-1.479758669e-03,1.164474692e-04,-1.363311200e-03,-1.867208427e-03,-2.157109881e-04,-2.082919415e-03,-2.012303114e-03,-2.913998005e-04,-2.303702914e-03,-1.463973721e-03,-1.178524925e-04,-1.581826214e-03,-1.305499197e-03,-1.122333660e-04,-1.417732563e-03,-2.409573937e-03,1.364785128e-04,-2.273095424e-03,-1.447762012e-03,-8.308398080e-05,-1.530845993e-03,-4.236071247e-04,-1.431699634e-03,-1.855306759e-03,-2.277072315e-03,9.748234782e-05,-2.179589967e-03,-1.708468925e-03,-7.221952638e-05,-1.780688452e-03,-2.582781713e-03,-2.934201724e-05,-2.612123730e-03,-2.220212550e-03,-1.104419146e-04,-2.330654464e-03,-2.706258970e-03,-6.688540805e-06,-2.712947511e-03,-2.407670174e-03,-8.929153576e-05,-2.496961709e-03,-2.295314338e-03,-6.165243421e-05,-2.356966773e-03,-2.903237396e-03,-2.887902345e-04,-3.192027630e-03,-2.690912491e-03,-3.104289856e-04,-3.001341477e-03
-9,-8.302510626e-04,2.982029055e-04,-5.320481570e-04,-2.345372456e-03,-1.041185849e-04,-2.449491041e-03,-2.136440456e-03,-9.643902874e-05,-2.232879485e-03,-3.821091348e-03,-3.713624355e-04,-4.192453784e-03,-1.667982879e-03,-1.277747599e-04,-1.795757638e-03,-2.723972438e-03,-4.957098075e-05,-2.773543418e-03,-2.656203704e-03,-3.982998156e-05,-2.696033686e-03,-2.208069503e-03,1.799276127e-04,-2.028141890e-03,-3.666265182e-03,-5.886833058e-05,-3.725133513e-03,-2.410636242e-03,2.379763614e-04,-2.172659880e-03,-2.280445548e-03,-1.800816274e-04,-2.460527175e-03,-1.221007473e-03,8.247150941e-05,-1.138535964e-03,-7.924666872e-04,-3.502162966e-04,-1.142682984e-03,-1.941716575e-03,3.083069458e-05,-1.910885880e-03,-1.586157073e-03,-5.194031061e-06,-1.591351104e-03,-2.009257292e-03,4.273908247e-05,-1.966518210e-03,-1.902289344e-03,-9.441074981e-05,-1.996700094e-03,-1.777500607e-03,-5.942608304e-05,-1.836926690e-03,-1.624481886e-03,2.471514008e-05,-1.599766746e-03,-1.447724240e-03,1.201022976e-04,-1.327621942e-03,-1.845725778e-03,-2.089039472e-04,-2.054629725e-03,-2.024439855e-03,-2.829903378e-04,-2.307430193e-03,-1.460234441e-03,-1.151164706e-04,-1.575350912e-03,-1.303233818e-03,-1.123721679e-04,-1.415605985e-03,-2.388908038e-03,1.313598124e-04,-2.257548226e-03,-1.435615652e-03,-8.298941337e-05,-1.518605065e-03,-5.056325434e-04,-1.370361899e-03,-1.875994442e-03,-2.247048300e-03,8.650731192e-05,-2.160540988e-03,-1.683957358e-03,-7.016151849e-05,-1.754118876e-03,-2.578853013e-03,-3.028835460e-05,-2.609141368e-03,-2.193452185e-03,-1.136041841e-04,-2.307056369e-03,-2.690346803e-03,-3.637230621e-06,-2.693984034e-03,-2.374827950e-03,-9.307831700e-05,-2.467906267e-03,-2.262940271e-03,-5.972919228e-05,-2.322669463e-03,-2.867111570e-03,-2.767271428e-04,-3.143838713e-03,-2.633178282e-03,-3.063898244e-04,-2.939568107e-03
-8.9,-8.250787142e-04,2.909910259e-04,-5.340876883e-04,-2.338457454e-03,-1.017697029e-04,-2.440227157e-03,-2.136979427e-03,-9.570211593e-05,-2.232681543e-03,-3.787319488e-03,-3.605861132e-04,-4.147905601e-03,-1.678636902e-03,-1.179224683e-04,-1.796559370e-03,-2.718219681e-03,-4.770667383e-05,-2.765926355e-03,-2.659163171e-03,-3.258661868e-05,-2.691749790e-03,-2.201662397e-03,1.921350629e-04,-2.009527334e-03,-3.627701626e-03,-4.527261597e-05,-3.672974242e-03,-2.346886955e-03,2.460921241e-04,-2.100794831e-03,-2.245843451e-03,-1.679676088e-04,-2.413811060e-03,-1.216810206e-03,9.078621252e-05,-1.126023993e-03,-7.866109821e-04,-3.404282827e-04,-1.127039265e-03,-1.917101552e-03,2.950820950e-05,-1.887593342e-03,-1.615232954e-03,-2.245691301e-07,-1.615457523e-03,-2.003468179e-03,5.391320055e-05,-1.949554978e-03,-1.884537297e-03,-9.567972875e-05,-1.980217026e-03,-1.779655502e-03,-5.966366884e-05,-1.839319171e-03,-1.619091136e-03,2.830846756e-05,-1.590782669e-03,-1.413594670e-03,1.233883044e-04,-1.290206366e-03,-1.822599143e-03,-2.020732488e-04,-2.024672392e-03,-2.034343113e-03,-2.743341034e-04,-2.308677217e-03,-1.454809624e-03,-1.123718132e-04,-1.567181437e-03,-1.300752863e-03,-1.126869957e-04,-1.413439859e-03,-2.364742375e-03,1.262727229e-04,-2.238469652e-03,-1.422936311e-03,-8.147793509e-05,-1.504414246e-03,-5.884179658e-04,-1.309222498e-03,-1.897640464e-03,-2.214338081e-03,7.551032453e-05,-2.138827756e-03,-1.656145739e-03,-6.843544902e-05,-1.724581188e-03,-2.570706867e-03,-3.110575466e-05,-2.601812621e-03,-2.162753690e-03,-1.164078736e-04,-2.279161563e-03,-2.669556844e-03,-4.574384892e-07,-2.670014283e-03,-2.338340384e-03,-9.663491496e-05,-2.434975299e-03,-2.227389538e-03,-5.770786579e-05,-2.285097404e-03,-2.828818820e-03,-2.624664752e-04,-3.091285296e-03,-2.574386353e-03,-3.003527085e-04,-2.874739062e-03
-8.8,-8.197649182e-04,2.835088380e-04,-5.362560802e-04,-2.329507835e-03,-9.950274562e-05,-2.429010581e-03,-2.135433471e-03,-9.478879254e-05,-2.230222264e-03,-3.750533600e-03,-3.495429160e-04,-4.100076516e-03,-1.687278058e-03,-1.083964532e-04,-1.795674511e-03,-2.708656004e-03,-4.589999356e-05,-2.754555998e-03,-2.657806220e-03,-2.546370850e-05,-2.683269928e-03,-2.191244323e-03,2.035533467e-04,-1.987690976e-03,-3.584922197e-03,-3.172882109e-05,-3.616651018e-03,-2.280579740e-03,2.536029082e-04,-2.026976832e-03,-2.209007328e-03,-1.557770256e-04,-2.364784354e-03,-1.211767153e-03,9.923821638e-05,-1.112528936e-03,-7.813528669e-04,-3.278853634e-04,-1.109238230e-03,-1.890891446e-03,2.849206915e-05,-1.862399377e-03,-1.640556212e-03,4.848948598e-06,-1.635707263e-03,-1.994482795e-03,6.518867212e-05,-1.929294123e-03,-1.863952175e-03,-9.605202725e-05,-1.960004202e-03,-1.779634288e-03,-5.896353574e-05,-1.838597824e-03,-1.611373099e-03,3.188020807e-05,-1.579492891e-03,-1.377434431e-03,1.263093251e-04,-1.251125106e-03,-1.797911805e-03,-1.952226595e-04,-1.993134464e-03,-2.041974982e-03,-2.654700542e-04,-2.307445036e-03,-1.447637035e-03,-1.095861924e-04,-1.557223228e-03,-1.298042560e-03,-1.131512356e-04,-1.411193796e-03,-2.337271359e-03,1.213099127e-04,-2.215961446e-03,-1.409751600e-03,-7.861126914e-05,-1.488362869e-03,-6.713941022e-04,-1.248480998e-03,-1.919875100e-03,-2.179356635e-03,6.460855675e-05,-2.114748079e-03,-1.625177372e-03,-6.706497511e-05,-1.692242347e-03,-2.558452752e-03,-3.175118020e-05,-2.590203933e-03,-2.128290296e-03,-1.188227200e-04,-2.247113016e-03,-2.643976431e-03,2.828138527e-06,-2.641148293e-03,-2.298282539e-03,-9.996215436e-05,-2.398244693e-03,-2.188788529e-03,-5.561602829e-05,-2.244404557e-03,-2.788585416e-03,-2.459980611e-04,-3.034583477e-03,-2.514835200e-03,-2.923619474e-04,-2.807197148e-03
-8.7,-8.142777800e-04,2.757833962e-04,-5.384943839e-04,-2.318454134e-03,-9.730824402e-05,-2.415762378e-03,-2.131755493e-03,-9.368126153e-05,-2.225436754e-03,-3.710727894e-03,-3.382627645e-04,-4.048990659e-03,-1.693877132e-03,-9.919709573e-05,-1.793074227e-03,-2.695255475e-03,-4.414205651e-05,-2.739397532e-03,-2.652145202e-03,-1.846469347e-05,-2.670609896e-03,-2.176734791e-03,2.141617138e-04,-1.962573077e-03,-3.538050075e-03,-1.827256461e-05,-3.556322639e-03,-2.211878892e-03,2.605032570e-04,-1.951375636e-03,-2.170093504e-03,-1.435311098e-04,-2.313624614e-03,-1.205976683e-03,1.078350797e-04,-1.098141603e-03,-7.767380151e-04,-3.126989686e-04,-1.089436984e-03,-1.863208838e-03,2.782149285e-05,-1.835387345e-03,-1.662094449e-03,1.008830684e-05,-1.652006142e-03,-1.982324809e-03,7.644426193e-05,-1.905880547e-03,-1.840700693e-03,-9.546873058e-05,-1.936169423e-03,-1.777401171e-03,-5.739055789e-05,-1.834791729e-03,-1.601364074e-03,3.539092965e-05,-1.565973144e-03,-1.339303710e-03,1.288689668e-04,-1.210434743e-03,-1.771734162e-03,-1.883553047e-04,-1.960089467e-03,-2.047295513e-03,-2.564333226e-04,-2.303728835e-03,-1.438650549e-03,-1.067278793e-04,-1.545378428e-03,-1.295072251e-03,-1.137340853e-04,-1.408806336e-03,-2.306668748e-03,1.165568387e-04,-2.190111910e-03,-1.396068330e-03,-7.445760815e-05,-1.470525938e-03,-7.540443255e-04,-1.188181105e-03,-1.942225431e-03,-2.142497892e-03,5.391251447e-05,-2.088585378e-03,-1.591180473e-03,-6.606644040e-05,-1.657246913e-03,-2.542177701e-03,-3.217912020e-05,-2.574356821e-03,-2.090218828e-03,-1.208169186e-04,-2.211035747e-03,-2.613679798e-03,6.194028323e-06,-2.607485770e-03,-2.254706098e-03,-1.030581001e-04,-2.357764198e-03,-2.147228669e-03,-5.347802093e-05,-2.200706690e-03,-2.746538036e-03,-2.273549247e-04,-2.973892961e-03,-2.454726505e-03,-2.824895493e-04,-2.737216055e-03
-8.6,-8.085816964e-04,2.678398257e-04,-5.407418707e-04,-2.305219132e-03,-9.517487794e-05,-2.400394010e-03,-2.125899547e-03,-9.236811732e-05,-2.218267664e-03,-3.667874991e-03,-3.267767069e-04,-3.994651698e-03,-1.698385505e-03,-9.032370496e-05,-1.788709210e-03,-2.677975770e-03,-4.242452346e-05,-2.720400293e-03,-2.642181214e-03,-1.159322088e-05,-2.653774434e-03,-2.158057271e-03,2.239465860e-04,-1.934110685e-03,-3.487191064e-03,-4.940597828e-06,-3.492131662e-03,-2.140931596e-03,2.667885235e-04,-1.874143073e-03,-2.129239021e-03,-1.312524375e-04,-2.260491458e-03,-1.199507359e-03,1.165763785e-04,-1.082930980e-03,-7.727450721e-04,-2.950331134e-04,-1.067778185e-03,-1.834151861e-03,2.752687897e-05,-1.806624982e-03,-1.679804060e-03,1.556116882e-05,-1.664242891e-03,-1.966991389e-03,8.755831294e-05,-1.879433076e-03,-1.814907943e-03,-9.388324472e-05,-1.908791188e-03,-1.772890722e-03,-5.503192552e-05,-1.827922648e-03,-1.589064853e-03,3.880228861e-05,-1.550262564e-03,-1.299255505e-03,1.310705204e-04,-1.168184984e-03,-1.744120858e-03,-1.814736769e-04,-1.925594535e-03,-2.050258358e-03,-2.472555928e-04,-2.297513950e-03,-1.427780045e-03,-1.037663255e-04,-1.531546371e-03,-1.291793636e-03,-1.144008072e-04,-1.406194443e-03,-2.273080340e-03,1.120896064e-04,-2.160990734e-03,-1.381871479e-03,-6.908905040e-05,-1.450960530e-03,-8.358986146e-04,-1.128223982e-03,-1.964122597e-03,-2.104123801e-03,4.352579610e-05,-2.060598005e-03,-1.554266483e-03,-6.544835209e-05,-1.619714835e-03,-2.521941460e-03,-3.234356908e-05,-2.554285029e-03,-2.048676463e-03,-1.223565942e-04,-2.171033057e-03,-2.578725869e-03,9.613576198e-06,-2.569112293e-03,-2.207637891e-03,-1.059165028e-04,-2.313554394e-03,-2.102763852e-03,-5.131458872e-05,-2.154078441e-03,-2.702699804e-03,-2.066184684e-04,-2.909318272e-03,-2.394156077e-03,-2.708370205e-04,-2.664993097e-03
-8.5,-8.026358853e-04,2.597013826e-04,-5.429345027e-04,-2.289716376e-03,-9.308968834e-05,-2.382806064e-03,-2.117818706e-03,-9.084404252e-05,-2.208662749e-03,-3.621925091e-03,-3.151159223e-04,-3.937041013e-03,-1.700735579e-03,-8.177459831e-05,-1.782510177e-03,-2.656757264e-03,-4.073945707e-05,-2.697496721e-03,-2.627903557e-03,-4.852888252e-06,-2.632756445e-03,-2.135137000e-03,2.328981176e-04,-1.902238882e-03,-3.432432812e-03,8.229600231e-06,-3.424203211e-03,-2.067866411e-03,2.724542691e-04,-1.795412142e-03,-2.086560367e-03,-1.189647772e-04,-2.205525145e-03,-1.192395300e-03,1.254534073e-04,-1.066941892e-03,-7.692839144e-04,-2.751062339e-04,-1.044390148e-03,-1.803792271e-03,2.762972880e-05,-1.776162543e-03,-1.693632265e-03,2.134075252e-05,-1.672291512e-03,-1.948451202e-03,9.840984264e-05,-1.850041360e-03,-1.786654988e-03,-9.126267185e-05,-1.877917660e-03,-1.766009237e-03,-5.199425230e-05,-1.818003490e-03,-1.574439640e-03,4.207779108e-05,-1.532361849e-03,-1.257334157e-03,1.329166802e-04,-1.124417477e-03,-1.715109514e-03,-1.745797020e-04,-1.889689216e-03,-2.050807464e-03,-2.379656216e-04,-2.288773086e-03,-1.414952270e-03,-1.006727366e-04,-1.515625006e-03,-1.288141068e-03,-1.151130037e-04,-1.403254072e-03,-2.236620522e-03,1.079736257e-04,-2.128646896e-03,-1.367125438e-03,-6.257865907e-05,-1.429704097e-03,-9.165262668e-04,-1.068392565e-03,-1.984918832e-03,-2.064555199e-03,3.354508050e-05,-2.031010119e-03,-1.514531894e-03,-6.521117737e-05,-1.579743071e-03,-2.497775292e-03,-3.220027967e-05,-2.529975572e-03,-2.003779727e-03,-1.234062245e-04,-2.127185952e-03,-2.539159901e-03,1.306023869e-05,-2.526099662e-03,-2.157081843e-03,-1.085261048e-04,-2.265607948e-03,-2.055412261e-03,-4.914326494e-05,-2.104555526e-03,-2.656994970e-03,-1.839211426e-04,-2.840916113e-03,-2.333113284e-03,-2.575363666e-04,-2.590649651e-03
-8.4,-7.963939613e-04,2.513896651e-04,-5.450042963e-04,-2.271850063e-03,-9.103833270e-05,-2.362888395e-03,-2.107464246e-03,-8.910939452e-05,-2.196573640e-03,-3.572807571e-03,-3.033107666e-04,-3.876118338e-03,-1.700843424e-03,-7.354718644e-05,-1.774390611e-03,-2.631524888e-03,-3.907909738e-05,-2.670603985e-03,-2.609291545e-03,1.752925794e-06,-2.607538619e-03,-2.107899242e-03,2.410064338e-04,-1.866892809e-03,-3.373846046e-03,2.120027412e-05,-3.352645772e-03,-1.992793945e-03,2.774958006e-04,-1.715298145e-03,-2.042153892e-03,-1.066928914e-04,-2.148846783e-03,-1.184643705e-03,1.344496947e-04,-1.050194010e-03,-7.661979164e-04,-2.531907506e-04,-1.019388667e-03,-1.772175503e-03,2.814282966e-05,-1.744032673e-03,-1.703519546e-03,2.750267376e-05,-1.676016872e-03,-1.926645213e-03,1.088789255e-04,-1.817766288e-03,-1.755980484e-03,-8.758909425e-05,-1.843569579e-03,-1.756639252e-03,-4.839925938e-05,-1.805038511e-03,-1.557418356e-03,4.518330473e-05,-1.512235051e-03,-1.213575368e-03,1.344092531e-04,-1.079166115e-03,-1.684721000e-03,-1.676746370e-04,-1.852395637e-03,-2.048875058e-03,-2.285896887e-04,-2.277464746e-03,-1.400092474e-03,-9.742058297e-05,-1.497513057e-03,-1.284032769e-03,-1.158290112e-04,-1.399861780e-03,-2.197372775e-03,1.042632436e-04,-2.093109532e-03,-1.351777209e-03,-5.499753217e-05,-1.406774741e-03,-9.955259670e-04,-1.008383991e-03,-2.003909958e-03,-2.024065146e-03,2.406028871e-05,-2.000004857e-03,-1.472062455e-03,-6.534712812e-05,-1.537409583e-03,-2.469683527e-03,-3.170902115e-05,-2.501392548e-03,-1.955625287e-03,-1.239297473e-04,-2.079555034e-03,-2.495017985e-03,1.650862288e-05,-2.478509362e-03,-2.103024307e-03,-1.108700610e-04,-2.213894368e-03,-2.005162024e-03,-4.697914020e-05,-2.052141164e-03,-2.609260515e-03,-1.594453322e-04,-2.768705848e-03,-2.271488706e-03,-2.427493782e-04,-2.514238084e-03
-8.3,-7.898042975e-04,2.429248865e-04,-5.468794111e-04,-2.251516061e-03,-8.900536020e-05,-2.340521421e-03,-2.094785581e-03,-8.716971896e-05,-2.181955300e-03,-3.520434304e-03,-2.913900081e-04,-3.811824312e-03,-1.698612634e-03,-6.563806169e-05,-1.764250696e-03,-2.602191458e-03,-3.743580665e-05,-2.639627264e-03,-2.586317461e-03,8.221139776e-06,-2.578096321e-03,-2.076268304e-03,2.482587208e-04,-1.828009583e-03,-3.311486740e-03,3.393391251e-05,-3.277552828e-03,-1.915808934e-03,2.819079588e-04,-1.633900976e-03,-1.996097081e-03,-9.446226666e-05,-2.090559348e-03,-1.176222827e-03,1.435411473e-04,-1.032681680e-03,-7.632689647e-04,-2.296105717e-04,-9.928795364e-04,-1.739321837e-03,2.907075391e-05,-1.710251083e-03,-1.709402402e-03,3.411958098e-05,-1.675282821e-03,-1.901489982e-03,1.188469590e-04,-1.782643023e-03,-1.722884852e-03,-8.286091906e-05,-1.805745771e-03,-1.744645733e-03,-4.437875933e-05,-1.789024493e-03,-1.537901680e-03,4.808732075e-05,-1.489814359e-03,-1.168007261e-03,1.355489038e-04,-1.032458357e-03,-1.652960623e-03,-1.607587889e-04,-1.813719412e-03,-2.044380793e-03,-2.191519422e-04,-2.263532735e-03,-1.383126438e-03,-9.398604890e-05,-1.477112487e-03,-1.279372631e-03,-1.165045409e-04,-1.395877172e-03,-2.155393256e-03,1.010023507e-04,-2.054390905e-03,-1.335760660e-03,-4.641245345e-05,-1.382173113e-03,-1.072512949e-03,-9.478461270e-04,-2.020359076e-03,-1.982875036e-03,1.515542332e-05,-1.967719613e-03,-1.426937905e-03,-6.583992406e-05,-1.492777829e-03,-2.437646580e-03,-3.083548548e-05,-2.468482065e-03,-1.904291555e-03,-1.238921973e-04,-2.028183753e-03,-2.446332633e-03,1.993550175e-05,-2.426397132e-03,-2.045441666e-03,-1.129247956e-04,-2.158366461e-03,-1.951979086e-03,-4.483544738e-05,-1.996814534e-03,-2.559262018e-03,-1.334179263e-04,-2.692679944e-03,-2.209087923e-03,-2.266645332e-04,-2.435752456e-03
-8.2,-7.828106864e-04,2.343261147e-04,-5.484845717e-04,-2.228603472e-03,-8.697448649e-05,-2.315577958e-03,-2.079730162e-03,-8.503519450e-05,-2.164765356e-03,-3.464703462e-03,-2.793803685e-04,-3.744083830e-03,-1.693938038e-03,-5.804306017e-05,-1.751981099e-03,-2.568660951e-03,-3.580226165e-05,-2.604463212e-03,-2.558949159e-03,1.454900259e-05,-2.544400157e-03,-2.040167314e-03,2.546377427e-04,-1.785529571e-03,-3.245397920e-03,4.639381375e-05,-3.199004107e-03,-1.836992539e-03,2.856851438e-04,-1.551307395e-03,-1.948449689e-03,-8.229878928e-05,-2.030748478e-03,-1.167068939e-03,1.526952015e-04,-1.014373738e-03,-7.602252025e-04,-2.047356382e-04,-9.649608407e-04,-1.705227729e-03,3.041064077e-05,-1.674817088e-03,-1.711216207e-03,4.125502550e-05,-1.669961181e-03,-1.872882558e-03,1.281976670e-04,-1.744684891e-03,-1.687334901e-03,-7.709424625e-05,-1.764429148e-03,-1.729882272e-03,-4.006965762e-05,-1.769951930e-03,-1.515767660e-03,5.076121078e-05,-1.465006450e-03,-1.120651620e-03,1.363348650e-04,-9.843167553e-04,-1.619819286e-03,-1.538312390e-04,-1.773650525e-03,-2.037231630e-03,-2.096746693e-04,-2.246906299e-03,-1.363982305e-03,-9.034842661e-05,-1.454330732e-03,-1.274052149e-03,-1.170936144e-04,-1.391145763e-03,-2.110716167e-03,9.822604555e-05,-2.012490122e-03,-1.319000383e-03,-3.688480404e-05,-1.355885187e-03,-1.147104677e-03,-8.864145675e-04,-2.033519245e-03,-1.941152712e-03,6.909988213e-06,-1.934242724e-03,-1.379235105e-03,-6.666476815e-05,-1.445899873e-03,-2.401623757e-03,-2.955260383e-05,-2.431176361e-03,-1.849839807e-03,-1.232617107e-04,-1.973101518e-03,-2.393137350e-03,2.332101619e-05,-2.369816334e-03,-1.984307890e-03,-1.146583434e-04,-2.098966234e-03,-1.895815009e-03,-4.272347028e-05,-1.938538479e-03,-2.506710606e-03,-1.061012676e-04,-2.612811874e-03,-2.145647351e-03,-2.094921115e-04,-2.355139462e-03
-8.1,-7.753527390e-04,2.256114545e-04,-5.497412844e-04,-2.202996005e-03,-8.492880653e-05,-2.287924812e-03,-2.062242595e-03,-8.271999036e-05,-2.144962585e-03,-3.405502530e-03,-2.673063673e-04,-3.672808897e-03,-1.686708027e-03,-5.075726486e-05,-1.737465292e-03,-2.530830478e-03,-3.417167459e-05,-2.565002152e-03,-2.527150997e-03,2.073415941e-05,-2.506416838e-03,-1.999518121e-03,2.601218015e-04,-1.739396320e-03,-3.175609973e-03,5.854463246e-05,-3.117065341e-03,-1.756413663e-03,2.888214767e-04,-1.467592186e-03,-1.899253782e-03,-7.022839077e-05,-1.969482173e-03,-1.157082356e-03,1.618695690e-04,-9.952127875e-04,-7.567516547e-04,-1.789719632e-04,-9.357236180e-04,-1.669866480e-03,3.215317491e-05,-1.637713305e-03,-1.708896410e-03,4.895692900e-05,-1.659939481e-03,-1.840705150e-03,1.368191752e-04,-1.703885975e-03,-1.649266870e-03,-7.032412282e-05,-1.719590993e-03,-1.712196545e-03,-3.560890375e-05,-1.747805449e-03,-1.490878192e-03,5.317971195e-05,-1.437698480e-03,-1.071524375e-03,1.367646464e-04,-9.347597281e-04,-1.585273694e-03,-1.468897184e-04,-1.732163412e-03,-2.027321805e-03,-2.001784812e-04,-2.227500286e-03,-1.342591756e-03,-8.649045067e-05,-1.429082207e-03,-1.267951966e-03,-1.175497103e-04,-1.385501676e-03,-2.063359382e-03,9.596322955e-05,-1.967396152e-03,-1.301413598e-03,-2.647110258e-05,-1.327884700e-03,-1.218908039e-03,-8.237463475e-04,-2.042654386e-03,-1.899011322e-03,-5.996560239e-07,-1.899610978e-03,-1.329027886e-03,-6.778887308e-05,-1.396816759e-03,-2.361554221e-03,-2.784125814e-05,-2.389395479e-03,-1.792313769e-03,-1.220114445e-04,-1.914325213e-03,-2.335468326e-03,2.665003484e-05,-2.308818291e-03,-1.919599473e-03,-1.160286123e-04,-2.035628085e-03,-1.836612513e-03,-4.065159804e-05,-1.877264111e-03,-2.451276990e-03,-7.778262389e-05,-2.529059614e-03,-2.080847707e-03,-1.914589268e-04,-2.272306634e-03
-8,-7.673656114e-04,2.167982014e-04,-5.505674099e-04,-2.174572607e-03,-8.285091520e-05,-2.257423522e-03,-2.042262727e-03,-8.024154213e-05,-2.122504269e-03,-3.342709662e-03,-2.551903260e-04,-3.597899988e-03,-1.676804919e-03,-4.377497329e-05,-1.720579893e-03,-2.488590627e-03,-3.253771465e-05,-2.521128341e-03,-2.490882667e-03,2.677480923e-05,-2.464107858e-03,-1.954240287e-03,2.646856325e-04,-1.689554655e-03,-3.102139182e-03,7.035284846e-05,-3.031786334e-03,-1.674128761e-03,2.913110197e-04,-1.382817741e-03,-1.848532467e-03,-5.827668092e-05,-1.906809148e-03,-1.146125891e-03,1.710114465e-04,-9.751144448e-04,-7.525024198e-04,-1.527468201e-04,-9.052492400e-04,-1.633187964e-03,3.428362330e-05,-1.598904341e-03,-1.702376032e-03,5.725045908e-05,-1.645125572e-03,-1.804827915e-03,1.446066805e-04,-1.660221235e-03,-1.608586922e-03,-6.260535446e-05,-1.671192276e-03,-1.691435043e-03,-3.112787512e-05,-1.722562918e-03,-1.463083753e-03,5.532165728e-05,-1.407762096e-03,-1.020634966e-03,1.368339149e-04,-8.838010515e-04,-1.549285332e-03,-1.399306072e-04,-1.689215939e-03,-2.014532459e-03,-1.906823241e-04,-2.205214783e-03,-1.318890449e-03,-8.239856405e-05,-1.401289013e-03,-1.260942763e-03,-1.178269266e-04,-1.378769690e-03,-2.013328644e-03,9.423950399e-05,-1.919089140e-03,-1.282909182e-03,-1.522482010e-05,-1.298134003e-03,-1.287510003e-03,-7.595469340e-04,-2.047056937e-03,-1.856508237e-03,-7.299551503e-06,-1.863807788e-03,-1.276383354e-03,-6.917281503e-05,-1.345556169e-03,-2.317355853e-03,-2.569047600e-05,-2.343046329e-03,-1.731737966e-03,-1.201207880e-04,-1.851858754e-03,-2.273362711e-03,2.991341262e-05,-2.243449298e-03,-1.851296150e-03,-1.169820712e-04,-1.968278221e-03,-1.774307785e-03,-3.862374262e-05,-1.812931527e-03,-2.392599827e-03,-4.876454789e-05,-2.441364375e-03,-2.014323297e-03,-1.728037466e-04,-2.187127043e-03
-7.9,-7.587790651e-04,2.079029618e-04,-5.508761032e-04,-2.143207339e-03,-8.072301369e-05,-2.223930353e-03,-2.019723147e-03,-7.761979363e-05,-2.097342941e-03,-3.276193558e-03,-2.430523374e-04,-3.519245895e-03,-1.664103982e-03,-3.708971734e-05,-1.701193699e-03,-2.441825026e-03,-3.089403679e-05,-2.472719063e-03,-2.450096828e-03,3.266992714e-05,-2.417426901e-03,-1.904248938e-03,2.683013695e-04,-1.635947569e-03,-3.024985507e-03,8.178713983e-05,-2.943198367e-03,-1.590180748e-03,2.931480458e-04,-1.297032702e-03,-1.796288061e-03,-4.646859052e-05,-1.842756651e-03,-1.134025281e-03,1.800576691e-04,-9.539676122e-04,-7.471122179e-04,-1.264909021e-04,-8.736031200e-04,-1.595117974e-03,3.678279426e-05,-1.558335180e-03,-1.691580116e-03,6.613180719e-05,-1.625448308e-03,-1.765109722e-03,1.514648447e-04,-1.613644877e-03,-1.565170116e-03,-5.401237901e-05,-1.619182495e-03,-1.667446801e-03,-2.674657542e-05,-1.694193376e-03,-1.432225728e-03,5.717064317e-05,-1.375055085e-03,-9.679851362e-04,1.365366688e-04,-8.314484674e-04,-1.511798844e-03,-1.329489629e-04,-1.644747807e-03,-1.998731145e-03,-1.812032127e-04,-2.179934358e-03,-1.292818288e-03,-7.806312958e-05,-1.370881418e-03,-1.252885738e-03,-1.178809764e-04,-1.370766714e-03,-1.960619311e-03,9.307933739e-05,-1.867539974e-03,-1.263384165e-03,-3.198897507e-06,-1.266583062e-03,-1.352469913e-03,-6.935902490e-04,-2.046060162e-03,-1.813644116e-03,-1.311838183e-05,-1.826762498e-03,-1.221356611e-03,-7.077247164e-05,-1.292129083e-03,-2.268923628e-03,-2.309722216e-05,-2.292020850e-03,-1.668116446e-03,-1.175755258e-04,-1.785691972e-03,-2.206854861e-03,3.310880695e-05,-2.173746054e-03,-1.779378037e-03,-1.174535316e-04,-1.896831569e-03,-1.708830526e-03,-3.663769180e-05,-1.745468217e-03,-2.330289798e-03,-1.935723372e-05,-2.349647032e-03,-1.945668807e-03,-1.537740034e-04,-2.099442810e-03
-7.8,-7.495163492e-04,1.989416735e-04,-5.505746757e-04,-2.108769186e-03,-7.852711868e-05,-2.187296304e-03,-1.994547091e-03,-7.487645005e-05,-2.069423541e-03,-3.205813027e-03,-2.309101194e-04,-3.436723147e-03,-1.648472589e-03,-3.069441334e-05,-1.679167002e-03,-2.390410700e-03,-2.923363634e-05,-2.419644336e-03,-2.404737229e-03,3.841943398e-05,-2.366317795e-03,-1.849452798e-03,2.709391175e-04,-1.578513680e-03,-2.944131296e-03,9.281867119e-05,-2.851312625e-03,-1.504598346e-03,2.943273396e-04,-1.210271006e-03,-1.742501005e-03,-3.482806945e-05,-1.777329074e-03,-1.120572534e-03,1.889361255e-04,-9.316364083e-04,-7.402069762e-04,-1.006199653e-04,-8.408269416e-04,-1.555558456e-03,3.962784292e-05,-1.515930613e-03,-1.676420988e-03,7.556564883e-05,-1.600855339e-03,-1.721398360e-03,1.573093843e-04,-1.564088975e-03,-1.518860197e-03,-4.463802467e-05,-1.563498222e-03,-1.640085772e-03,-2.256903629e-05,-1.662654808e-03,-1.398137263e-03,5.871522706e-05,-1.339422036e-03,-9.135680724e-04,1.358656124e-04,-7.777024600e-04,-1.472740947e-03,-1.259385997e-04,-1.598679547e-03,-1.979771901e-03,-1.717557400e-04,-2.151527641e-03,-1.264320238e-03,-7.347861550e-05,-1.337798853e-03,-1.243633302e-03,-1.176699639e-04,-1.361303266e-03,-1.905215693e-03,9.250641665e-05,-1.812709276e-03,-1.242719005e-03,9.551285539e-06,-1.233167719e-03,-1.413309809e-03,-6.257350354e-04,-2.039044844e-03,-1.770362871e-03,-1.798889886e-05,-1.788351769e-03,-1.163987046e-03,-7.254085374e-05,-1.236527900e-03,-2.216129789e-03,-2.006595529e-05,-2.236195744e-03,-1.601433660e-03,-1.143671453e-04,-1.715800805e-03,-2.135972796e-03,3.624069532e-05,-2.099732101e-03,-1.703822047e-03,-1.173676821e-04,-1.821189729e-03,-1.640104238e-03,-3.468403120e-05,-1.674788269e-03,-2.263933395e-03,1.012699640e-05,-2.253806399e-03,-1.874446911e-03,-1.346238081e-04,-2.009070719e-03
-7.7,-7.394935715e-04,1.899294884e-04,-5.495640831e-04,-2.071122643e-03,-7.624540187e-05,-2.147368045e-03,-1.966647636e-03,-7.203425635e-05,-2.038681893e-03,-3.131417676e-03,-2.187788121e-04,-3.350196488e-03,-1.629770849e-03,-2.458164020e-05,-1.654352489e-03,-2.334220457e-03,-2.754832981e-05,-2.361768787e-03,-2.354738701e-03,4.402418960e-05,-2.310714512e-03,-1.789754358e-03,2.725674844e-04,-1.517186873e-03,-2.859542143e-03,1.034213030e-04,-2.756120840e-03,-1.417396984e-03,2.948444544e-04,-1.122552529e-03,-1.687130480e-03,-2.337789862e-05,-1.710508379e-03,-1.105532192e-03,1.975684754e-04,-9.079637162e-04,-7.314159860e-04,-7.551753478e-05,-8.069335208e-04,-1.514389642e-03,4.279292040e-05,-1.471596721e-03,-1.656797939e-03,8.548725816e-05,-1.571310681e-03,-1.673531943e-03,1.620680796e-04,-1.511463863e-03,-1.469472341e-03,-3.459142519e-05,-1.504063766e-03,-1.609212324e-03,-1.868086400e-05,-1.627893188e-03,-1.360644657e-03,5.994863038e-05,-1.300696027e-03,-8.573687054e-04,1.348125315e-04,-7.225561739e-04,-1.432020743e-03,-1.188923368e-04,-1.550913080e-03,-1.957496525e-03,-1.623515997e-04,-2.119848125e-03,-1.233348089e-03,-6.864376293e-05,-1.301991852e-03,-1.233030572e-03,-1.171550070e-04,-1.350185579e-03,-1.847089133e-03,9.254175678e-05,-1.754547376e-03,-1.220773534e-03,2.296478961e-05,-1.197808744e-03,-1.469502900e-03,-5.559400188e-04,-2.025442918e-03,-1.726553311e-03,-2.185062156e-05,-1.748403932e-03,-1.104298332e-03,-7.442945219e-05,-1.178727784e-03,-2.158827183e-03,-1.660814427e-05,-2.175435327e-03,-1.531658183e-03,-1.104918794e-04,-1.642150062e-03,-2.060736580e-03,3.931934719e-05,-2.021417233e-03,-1.624600631e-03,-1.166425454e-04,-1.741243177e-03,-1.568049092e-03,-3.274585984e-05,-1.600794952e-03,-2.193099384e-03,3.937705240e-05,-2.153722331e-03,-1.800199422e-03,-1.156122888e-04,-1.915811711e-03
-7.6,-7.286200063e-04,1.808805753e-04,-5.477394309e-04,-2.030129641e-03,-7.386058839e-05,-2.103990229e-03,-1.935928569e-03,-6.911631217e-05,-2.005044881e-03,-3.052850561e-03,-2.066708040e-04,-3.259521365e-03,-1.607854202e-03,-1.874397821e-05,-1.626598180e-03,-2.273127644e-03,-2.582852015e-05,-2.298956164e-03,-2.300029586e-03,4.948578016e-05,-2.250543806e-03,-1.725053151e-03,2.731545767e-04,-1.451898574e-03,-2.771170152e-03,1.135717207e-04,-2.657598432e-03,-1.328581688e-03,2.946958850e-04,-1.033885803e-03,-1.630116970e-03,-1.213964839e-05,-1.642256618e-03,-1.088649625e-03,2.058735310e-04,-8.827760936e-04,-7.203877194e-04,-5.151995558e-05,-7.719076750e-04,-1.471474295e-03,4.624968281e-05,-1.425224612e-03,-1.632601830e-03,9.580759453e-05,-1.536794235e-03,-1.621342528e-03,1.656818368e-04,-1.455660691e-03,-1.416799896e-03,-2.399520504e-05,-1.440795101e-03,-1.574695028e-03,-1.514879561e-05,-1.589843824e-03,-1.319571033e-03,6.086832755e-05,-1.258702705e-03,-7.993655004e-04,1.333686355e-04,-6.659968649e-04,-1.389531751e-03,-1.118024411e-04,-1.501334192e-03,-1.931737377e-03,-1.529992958e-04,-2.084736673e-03,-1.199863185e-03,-6.356171760e-05,-1.263424902e-03,-1.220917866e-03,-1.163008021e-04,-1.337218668e-03,-1.786196753e-03,9.320039300e-05,-1.692996360e-03,-1.197385227e-03,3.697247797e-05,-1.160412749e-03,-1.520466658e-03,-4.842753430e-04,-2.004742001e-03,-1.682052630e-03,-2.465376955e-05,-1.706706399e-03,-1.042302274e-03,-7.638920783e-05,-1.118691482e-03,-2.096855734e-03,-1.274185691e-05,-2.109597591e-03,-1.458748634e-03,-1.059501119e-04,-1.564698746e-03,-1.981159400e-03,4.235880051e-05,-1.938800599e-03,-1.541684301e-03,-1.151942037e-04,-1.656878505e-03,-1.492588301e-03,-3.079903588e-05,-1.523387337e-03,-2.117349608e-03,6.808518038e-05,-2.049264428e-03,-1.722463169e-03,-9.700091932e-05,-1.819464088e-03
-7.5,-7.167994078e-04,1.718079177e-04,-5.449914901e-04,-1.985652785e-03,-7.135633772e-05,-2.057009123e-03,-1.902286737e-03,-6.614545421e-05,-1.968432191e-03,-2.969952844e-03,-1.945956551e-04,-3.164548499e-03,-1.582577689e-03,-1.317434202e-05,-1.595752031e-03,-2.207012877e-03,-2.406318512e-05,-2.231076062e-03,-2.240536311e-03,5.480617225e-05,-2.185730139e-03,-1.655251640e-03,2.726694510e-04,-1.382582189e-03,-2.678959103e-03,1.232495034e-04,-2.555709599e-03,-1.238151710e-03,2.938792159e-04,-9.442724938e-04,-1.571386366e-03,-1.133751293e-06,-1.572520117e-03,-1.069660098e-03,2.137703574e-04,-8.558897407e-04,-7.068073475e-04,-2.890570785e-05,-7.357130553e-04,-1.426663496e-03,4.996762625e-05,-1.376695869e-03,-1.603722496e-03,1.064190830e-04,-1.497303413e-03,-1.564661932e-03,1.681061624e-04,-1.396555770e-03,-1.360624840e-03,-1.298182704e-05,-1.373606667e-03,-1.536413424e-03,-1.202179358e-05,-1.548435218e-03,-1.274742688e-03,6.147582442e-05,-1.213266864e-03,-7.395337332e-04,1.315250497e-04,-6.080086834e-04,-1.345155522e-03,-1.046611131e-04,-1.449816635e-03,-1.902321721e-03,-1.437039570e-04,-2.046025678e-03,-1.163839759e-03,-5.824013133e-05,-1.222079890e-03,-1.207134093e-03,-1.150762124e-04,-1.322210306e-03,-1.722482570e-03,9.448808217e-05,-1.627994488e-03,-1.172370756e-03,5.149544297e-05,-1.120875313e-03,-1.565569804e-03,-4.109238355e-04,-1.976493639e-03,-1.636651537e-03,-2.636396993e-05,-1.663015506e-03,-9.780053521e-04,-7.837111966e-05,-1.056376472e-03,-2.030051084e-03,-8.491430533e-06,-2.038542514e-03,-1.382660538e-03,-1.007464467e-04,-1.483406984e-03,-1.897251204e-03,4.537424402e-05,-1.851876960e-03,-1.455047843e-03,-1.129413823e-04,-1.567989225e-03,-1.413657238e-03,-2.881263931e-05,-1.442469877e-03,-2.036255701e-03,9.595038333e-05,-1.940305317e-03,-1.640789743e-03,-7.904927520e-05,-1.719839018e-03
-7.4,-7.039320640e-04,1.627231099e-04,-5.412089541e-04,-1.937559525e-03,-6.871757575e-05,-2.006277101e-03,-1.865615335e-03,-6.314373611e-05,-1.928759071e-03,-2.882569736e-03,-1.825601926e-04,-3.065129928e-03,-1.553801042e-03,-7.866278645e-06,-1.561667320e-03,-2.135771847e-03,-2.223989382e-05,-2.158011740e-03,-2.176189144e-03,5.998732843e-05,-2.116201815e-03,-1.580262660e-03,2.710837302e-04,-1.309178930e-03,-2.582850489e-03,1.324371754e-04,-2.450413314e-03,-1.146106106e-03,2.923933001e-04,-8.537128060e-04,-1.510854860e-03,9.620395516e-06,-1.501234464e-03,-1.048297638e-03,2.211806110e-04,-8.271170265e-04,-6.904110567e-04,-7.890471084e-06,-6.983015277e-04,-1.379802935e-03,5.391424328e-05,-1.325888692e-03,-1.570056154e-03,1.172006178e-04,-1.452855537e-03,-1.503328946e-03,1.693129352e-04,-1.334016010e-03,-1.300730112e-03,-1.689445593e-06,-1.302419558e-03,-1.494261356e-03,-9.333218721e-06,-1.503594575e-03,-1.225997154e-03,6.177660978e-05,-1.164220544e-03,-6.778498115e-04,1.292735613e-04,-5.485762503e-04,-1.298766288e-03,-9.746087377e-05,-1.396227162e-03,-1.869077304e-03,-1.344670675e-04,-2.003544372e-03,-1.125268364e-03,-5.269127593e-05,-1.177959640e-03,-1.191520692e-03,-1.134549483e-04,-1.304975640e-03,-1.655881091e-03,9.639874577e-05,-1.559482346e-03,-1.145530571e-03,6.644461850e-05,-1.079085952e-03,-1.604157044e-03,-3.361678868e-04,-1.940324931e-03,-1.590100906e-03,-2.696676511e-05,-1.617067671e-03,-9.114163604e-04,-8.032616710e-05,-9.917425275e-04,-1.958253783e-03,-3.887183091e-06,-1.962140966e-03,-1.303352815e-03,-9.489035481e-05,-1.398243170e-03,-1.809024006e-03,4.837945632e-05,-1.760644550e-03,-1.364679324e-03,-1.098084247e-04,-1.474487749e-03,-1.331213206e-03,-2.674963653e-05,-1.357962842e-03,-1.949421562e-03,1.226856220e-04,-1.826735940e-03,-1.554766415e-03,-6.200926890e-05,-1.616775684e-03
-7.3,-6.899171314e-04,1.536361306e-04,-5.362810008e-04,-1.885726540e-03,-6.593076586e-05,-1.951657306e-03,-1.825807285e-03,-6.013199598e-05,-1.885939281e-03,-2.790556610e-03,-1.705688212e-04,-2.961125431e-03,-1.521393448e-03,-2.814207392e-06,-1.524207655e-03,-2.059322707e-03,-2.034474427e-05,-2.079667451e-03,-2.106927740e-03,6.503085306e-05,-2.041896887e-03,-1.500017371e-03,2.683732040e-04,-1.231644167e-03,-2.482789243e-03,1.411202567e-04,-2.341668986e-03,-1.052449109e-03,2.902384515e-04,-7.622106571e-04,-1.448433650e-03,2.010436735e-05,-1.428329283e-03,-1.024303085e-03,2.280302249e-04,-7.962728600e-04,-6.709937005e-04,1.137250997e-05,-6.596211905e-04,-1.330738636e-03,5.805507578e-05,-1.272683561e-03,-1.531510942e-03,1.280212704e-04,-1.403489672e-03,-1.437196427e-03,1.692920062e-04,-1.267904421e-03,-1.236911377e-03,9.742068487e-06,-1.227169308e-03,-1.448150176e-03,-7.103347793e-06,-1.455253524e-03,-1.173191215e-03,6.178014364e-05,-1.111411071e-03,-6.142957668e-04,1.266074152e-04,-4.876883516e-04,-1.250235729e-03,-9.019487280e-05,-1.340430602e-03,-1.831838294e-03,-1.252861379e-04,-1.957124432e-03,-1.084158769e-03,-4.693219750e-05,-1.131090966e-03,-1.173925545e-03,-1.114163570e-04,-1.285341902e-03,-1.586321894e-03,9.891251843e-05,-1.487409376e-03,-1.116655221e-03,8.172129494e-05,-1.034933927e-03,-1.635584698e-03,-2.603650150e-04,-1.895949713e-03,-1.542119287e-03,-2.647109177e-05,-1.568590379e-03,-8.425535062e-04,-8.220419286e-05,-9.247576991e-04,-1.881317269e-03,1.034929019e-06,-1.880282340e-03,-1.220792752e-03,-8.839712790e-05,-1.309189880e-03,-1.716497393e-03,5.138491785e-05,-1.665112475e-03,-1.270589995e-03,-1.057261276e-04,-1.376316123e-03,-1.245243279e-03,-2.456788828e-05,-1.269811167e-03,-1.856508233e-03,1.480287955e-04,-1.708479438e-03,-1.464034864e-03,-4.611767144e-05,-1.510152535e-03
-7.2,-6.746547726e-04,1.445551181e-04,-5.300996545e-04,-1.830043607e-03,-6.298409729e-05,-1.893027704e-03,-1.782757991e-03,-5.712945858e-05,-1.839887450e-03,-2.693784155e-03,-1.586239704e-04,-2.852408126e-03,-1.485236984e-03,1.986450401e-06,-1.483250533e-03,-1.977611519e-03,-1.836236749e-05,-1.995973886e-03,-2.032705300e-03,6.993770644e-05,-1.962767593e-03,-1.414472837e-03,2.645193188e-04,-1.149953518e-03,-2.378728226e-03,1.492872705e-04,-2.229440955e-03,-9.571942924e-04,2.874166125e-04,-6.697776799e-04,-1.384032732e-03,3.030069249e-05,-1.353732040e-03,-9.974308645e-04,2.342506862e-04,-7.631801783e-04,-6.484096753e-04,2.878857770e-05,-6.196210976e-04,-1.279321288e-03,6.235367593e-05,-1.216967612e-03,-1.488010156e-03,1.387428636e-04,-1.349267293e-03,-1.366136671e-03,1.680519177e-04,-1.198084753e-03,-1.168986551e-03,2.117472260e-05,-1.147811828e-03,-1.398011474e-03,-5.341341311e-06,-1.403352816e-03,-1.116207304e-03,6.149982641e-05,-1.054707477e-03,-5.488630024e-04,1.235218666e-04,-4.253411358e-04,-1.199437051e-03,-8.285723053e-05,-1.282294282e-03,-1.790450478e-03,-1.161546174e-04,-1.906605096e-03,-1.040541855e-03,-4.098488092e-05,-1.081526736e-03,-1.154206395e-03,-1.089462262e-04,-1.263152621e-03,-1.513733626e-03,1.019943440e-04,-1.411739282e-03,-1.085531758e-03,9.721810368e-05,-9.883136543e-04,-1.659254810e-03,-1.839201981e-04,-1.843175008e-03,-1.492400098e-03,-2.491168676e-05,-1.517311785e-03,-7.714496514e-04,-8.395176510e-05,-8.554014165e-04,-1.799113591e-03,6.233870397e-06,-1.792879721e-03,-1.134958763e-03,-8.128889802e-05,-1.216247661e-03,-1.619702506e-03,5.439679443e-05,-1.565305712e-03,-1.172822416e-03,-1.006311486e-04,-1.273453564e-03,-1.155768282e-03,-2.222150230e-05,-1.177989784e-03,-1.757255884e-03,1.717549390e-04,-1.585500945e-03,-1.368305147e-03,-3.158669507e-05,-1.399891842e-03
-7.1,-6.580478335e-04,1.354862300e-04,-5.225616035e-04,-1.770416525e-03,-5.986757702e-05,-1.830284102e-03,-1.736367307e-03,-5.415333224e-05,-1.790520640e-03,-2.592141980e-03,-1.467264880e-04,-2.738868468e-03,-1.445228464e-03,6.539287645e-06,-1.438689177e-03,-1.890615094e-03,-1.627626375e-05,-1.906891358e-03,-1.953491134e-03,7.470796727e-05,-1.878783166e-03,-1.323618770e-03,2.595105459e-04,-1.064108224e-03,-2.270631477e-03,1.569296384e-04,-2.113701839e-03,-8.603672925e-04,2.839314783e-04,-5.764358143e-04,-1.317563715e-03,4.019282277e-05,-1.277370892e-03,-9.674545142e-04,2.397800986e-04,-7.276744156e-04,-6.225687207e-04,4.431573741e-05,-5.782529833e-04,-1.225409205e-03,6.677143074e-05,-1.158637775e-03,-1.439493669e-03,1.492215982e-04,-1.290272070e-03,-1.290044525e-03,1.656193216e-04,-1.124425203e-03,-1.096802861e-03,3.247580384e-05,-1.064327057e-03,-1.343799359e-03,-4.046080978e-06,-1.347845440e-03,-1.054957564e-03,6.095295825e-05,-9.940046062e-04,-4.815549999e-04,1.200144443e-04,-3.615405557e-04,-1.146248144e-03,-7.544343571e-05,-1.221691580e-03,-1.744775155e-03,-1.070622868e-04,-1.851837442e-03,-9.944704891e-04,-3.487635070e-05,-1.029346840e-03,-1.132233565e-03,-1.060373922e-04,-1.238270957e-03,-1.438046987e-03,1.055934922e-04,-1.332453495e-03,-1.051948790e-03,1.128198748e-04,-9.391289152e-04,-1.674639680e-03,-1.072619319e-04,-1.781901612e-03,-1.440618096e-03,-2.235076444e-05,-1.462968861e-03,-6.981554791e-04,-8.550964411e-05,-7.836651232e-04,-1.711537522e-03,1.166451672e-05,-1.699873005e-03,-1.045841437e-03,-7.359553174e-05,-1.119436969e-03,-1.518683758e-03,5.741656964e-05,-1.461267189e-03,-1.071455207e-03,-9.446517589e-05,-1.165920383e-03,-1.062842828e-03,-1.966242878e-05,-1.082505257e-03,-1.651498937e-03,1.936863798e-04,-1.457812557e-03,-1.267364743e-03,-1.859327744e-05,-1.285958020e-03
-7,-6.400032114e-04,1.264336451e-04,-5.135695663e-04,-1.706769332e-03,-5.657305974e-05,-1.763342392e-03,-1.686541224e-03,-5.121843373e-05,-1.737759658e-03,-2.485541100e-03,-1.348758543e-04,-2.620416955e-03,-1.401280548e-03,1.084702785e-05,-1.390433520e-03,-1.798342011e-03,-1.406958928e-05,-1.812411600e-03,-1.869272574e-03,7.934058557e-05,-1.789931988e-03,-1.227483860e-03,2.533438102e-04,-9.741400501e-04,-2.158477128e-03,1.640414518e-04,-1.994435677e-03,-7.620077118e-04,2.797885653e-04,-4.822191465e-04,-1.248942367e-03,4.976504086e-05,-1.199177326e-03,-9.341720653e-04,2.445642861e-04,-6.896077792e-04,-5.934291634e-04,5.795758961e-05,-5.354715738e-04,-1.168870769e-03,7.126734405e-05,-1.097603425e-03,-1.385918802e-03,1.593089366e-04,-1.226609866e-03,-1.208839704e-03,1.620374866e-04,-1.046802218e-03,-1.020242204e-03,4.352102596e-05,-9.767211782e-04,-1.285492465e-03,-3.205981983e-06,-1.288698447e-03,-9.893862815e-04,6.016072225e-05,-9.292255592e-04,-4.123894638e-04,1.160851182e-04,-2.963043456e-04,-1.090554466e-03,-6.795070483e-05,-1.158505171e-03,-1.694692124e-03,-9.799604225e-05,-1.792688166e-03,-9.460196975e-04,-2.863863137e-05,-9.746583289e-04,-1.107892283e-03,-1.026899630e-04,-1.210582246e-03,-1.359197249e-03,1.096442286e-04,-1.249553020e-03,-1.015699637e-03,1.284037147e-04,-8.872959226e-04,-1.681295928e-03,-3.082500793e-05,-1.712120936e-03,-1.386436096e-03,-1.887879838e-05,-1.405314894e-03,-6.227414707e-04,-8.681084624e-05,-7.095523170e-04,-1.618511009e-03,1.727922781e-05,-1.601231781e-03,-9.534443487e-04,-6.535525842e-05,-1.018799607e-03,-1.413499495e-03,6.044105850e-05,-1.353058437e-03,-9.666054736e-04,-8.717457536e-05,-1.053780049e-03,-9.665533313e-04,-1.684230112e-05,-9.833956324e-04,-1.539173929e-03,2.136988045e-04,-1.325475124e-03,-1.161084941e-03,-7.268818934e-06,-1.168353760e-03
-6.9,-6.204333447e-04,1.173996928e-04,-5.030336519e-04,-1.639046438e-03,-5.309428719e-05,-1.692140725e-03,-1.633194073e-03,-4.833691939e-05,-1.681530992e-03,-2.373916396e-03,-1.230702760e-04,-2.496986672e-03,-1.353323360e-03,1.491165595e-05,-1.338411704e-03,-1.700833326e-03,-1.172633273e-05,-1.712559659e-03,-1.780057520e-03,8.383313671e-05,-1.696224384e-03,-1.126142311e-03,2.460261131e-04,-8.801161983e-04,-2.042261004e-03,1.706191817e-04,-1.871641822e-03,-6.621712067e-04,2.749951918e-04,-3.871760149e-04,-1.178091780e-03,5.900231049e-05,-1.119089470e-03,-8.974126402e-04,2.485582378e-04,-6.488544024e-04,-5.609922516e-04,6.975712405e-05,-4.912351275e-04,-1.109587387e-03,7.579797728e-05,-1.033789409e-03,-1.327262464e-03,1.688524944e-04,-1.158409969e-03,-1.122470465e-03,1.573645846e-04,-9.651058804e-04,-9.392261867e-04,5.419713315e-05,-8.850290536e-04,-1.223095973e-03,-2.798520783e-06,-1.225894493e-03,-9.194722797e-04,5.914820346e-05,-8.603240762e-04,-3.414007064e-04,1.117365616e-04,-2.296641449e-04,-1.032252492e-03,-6.037822617e-05,-1.092630719e-03,-1.640102610e-03,-8.894082895e-05,-1.729043439e-03,-8.952865789e-04,-2.230851975e-05,-9.175950986e-04,-1.081085067e-03,-9.891112431e-05,-1.179996191e-03,-1.277127495e-03,1.140675203e-04,-1.163059975e-03,-9.765844314e-04,1.438382264e-04,-8.327462050e-04,-1.678870374e-03,4.496020570e-05,-1.633910169e-03,-1.329513239e-03,-1.461361779e-05,-1.344126857e-03,-5.452998779e-04,-8.778004484e-05,-6.330799228e-04,-1.519989530e-03,2.302984302e-05,-1.496959687e-03,-8.577861479e-04,-5.661497908e-05,-9.144011270e-04,-1.304223701e-03,6.346260606e-05,-1.240761095e-03,-8.584311472e-04,-7.871064693e-05,-9.371417942e-04,-8.670165424e-04,-1.371454719e-05,-8.807310896e-04,-1.420322671e-03,2.317227536e-04,-1.188599918e-03,-1.049427118e-03,2.308378757e-06,-1.047118739e-03
-6.8,-5.992581489e-04,1.083850758e-04,-4.908730731e-04,-1.567215174e-03,-4.942696774e-05,-1.616642142e-03,-1.576251714e-03,-4.551815138e-05,-1.621769865e-03,-2.257229901e-03,-1.113068072e-04,-2.368536708e-03,-1.301307423e-03,1.873453072e-05,-1.282572893e-03,-1.598164076e-03,-9.232748696e-06,-1.607396825e-03,-1.685878421e-03,8.818167470e-05,-1.597696746e-03,-1.019720551e-03,2.375760537e-04,-7.821444977e-04,-1.922001307e-03,1.766613916e-04,-1.745339916e-03,-5.609324167e-04,2.695603539e-04,-2.913720628e-04,-1.104946604e-03,6.789012765e-05,-1.037056476e-03,-8.570445255e-04,2.517279837e-04,-6.053165419e-04,-5.253008329e-04,7.979372229e-05,-4.455071106e-04,-1.047457527e-03,8.031762089e-05,-9.671399066e-04,-1.263525354e-03,1.776978140e-04,-1.085827540e-03,-1.030919703e-03,1.516720292e-04,-8.792476737e-04,-8.537221073e-04,6.440396060e-05,-7.893181467e-04,-1.156643900e-03,-2.790246165e-06,-1.159434146e-03,-8.452324510e-04,5.794434036e-05,-7.872881107e-04,-2.686427808e-04,1.069745367e-04,-1.616682441e-04,-9.712541660e-04,-5.272731426e-05,-1.023981480e-03,-1.580932570e-03,-7.988061050e-05,-1.660813181e-03,-8.423901105e-04,-1.592715883e-05,-8.583172693e-04,-1.051734334e-03,-9.471465231e-05,-1.146448986e-03,-1.191793820e-03,1.187736094e-04,-1.073020211e-03,-9.344129030e-04,1.589826188e-04,-7.754302842e-04,-1.667099532e-03,1.196733037e-04,-1.547426228e-03,-1.269515167e-03,-9.697136192e-06,-1.279212303e-03,-4.659473471e-04,-8.833458233e-05,-5.542819295e-04,-1.415970396e-03,2.886958373e-05,-1.387100812e-03,-7.589047410e-04,-4.743025419e-05,-8.063349952e-04,-1.190949883e-03,6.646921473e-05,-1.124480668e-03,-7.471341846e-04,-6.903055583e-05,-8.161647404e-04,-7.643801847e-04,-1.023663341e-05,-7.746168181e-04,-1.295093175e-03,2.477407412e-04,-1.047352433e-03,-9.324497578e-04,1.011636382e-05,-9.223333940e-04
-6.7,-5.764074079e-04,9.938919543e-05,-4.770182125e-04,-1.491268859e-03,-4.556884864e-05,-1.536837708e-03,-1.515655638e-03,-4.276865092e-05,-1.558424289e-03,-2.135475041e-03,-9.958159177e-05,-2.235056633e-03,-1.245207763e-03,2.231650216e-05,-1.222891261e-03,-1.490445857e-03,-6.578792080e-06,-1.497024650e-03,-1.586797557e-03,9.238073945e-05,-1.494416817e-03,-9.084034989e-04,2.280246215e-04,-6.803788774e-04,-1.797744055e-03,1.821684647e-04,-1.615575590e-03,-4.583888195e-04,2.634945401e-04,-1.948942793e-04,-1.029458211e-03,7.641441614e-05,-9.530437949e-04,-8.129834793e-04,2.540525173e-04,-5.589309619e-04,-4.864424301e-04,8.818304655e-05,-3.982593835e-04,-9.824018108e-04,8.477859109e-05,-8.976232197e-04,-1.194737712e-03,1.856915475e-04,-1.009046164e-03,-9.342132546e-04,1.450428864e-04,-7.891703681e-04,-7.637503847e-04,7.405625045e-05,-6.896941342e-04,-1.086201654e-03,-3.137528779e-06,-1.089339183e-03,-7.667263955e-04,5.658170304e-05,-7.101446925e-04,-1.941932495e-04,1.018083014e-04,-9.238494816e-05,-9.074921647e-04,-4.500151979e-05,-9.524936845e-04,-1.517136391e-03,-7.079928826e-05,-1.587935679e-03,-7.874707723e-04,-9.539419633e-06,-7.970101919e-04,-1.019785084e-03,-9.012029853e-05,-1.109905383e-03,-1.103172690e-03,1.236651591e-04,-9.795075313e-04,-8.890091241e-04,1.736866696e-04,-7.153224545e-04,-1.645803693e-03,1.929044698e-04,-1.452899224e-03,-1.206125278e-03,-4.289838672e-06,-1.210415117e-03,-3.848280027e-04,-8.838713932e-05,-4.732151421e-04,-1.306502005e-03,3.475444954e-05,-1.271747555e-03,-6.568636029e-04,-3.786492588e-05,-6.947285287e-04,-1.073796772e-03,6.944442350e-05,-1.004352349e-03,-6.329639139e-04,-5.809904044e-05,-6.910629544e-04,-6.588257480e-04,-6.372232343e-06,-6.651979804e-04,-1.163739116e-03,2.617804854e-04,-9.019586306e-04,-8.103155427e-04,1.618838630e-05,-7.941271564e-04
-6.6,-5.518233638e-04,9.041057883e-05,-4.614127850e-04,-1.411230082e-03,-4.151971501e-05,-1.452749797e-03,-1.451367511e-03,-4.009208631e-05,-1.491459597e-03,-2.008681365e-03,-8.789026098e-05,-2.096571626e-03,-1.185028452e-03,2.565805734e-05,-1.159370394e-03,-1.377830171e-03,-3.759166163e-06,-1.381589337e-03,-1.482912783e-03,9.642345901e-05,-1.386489324e-03,-7.924394637e-04,2.174147957e-04,-5.750246680e-04,-1.669568443e-03,1.871423265e-04,-1.482426117e-03,-3.546649848e-04,2.568095562e-04,-9.785542863e-05,-9.516001127e-04,8.456146857e-05,-8.670386441e-04,-7.651995818e-04,2.555251740e-04,-5.096744078e-04,-4.445539860e-04,9.507696892e-05,-3.494770171e-04,-9.143685503e-04,8.913157420e-05,-8.252369761e-04,-1.120965933e-03,1.926866879e-04,-9.282792449e-04,-8.324294245e-04,1.375703519e-04,-6.948590726e-04,-6.693925268e-04,8.308526619e-05,-5.863072606e-04,-1.011868489e-03,-3.787949673e-06,-1.015656439e-03,-6.840614660e-04,5.509617775e-05,-6.289652883e-04,-1.181569958e-04,9.625093566e-05,-2.190606017e-05,-8.409253197e-04,-3.720665589e-05,-8.781319755e-04,-1.448700782e-03,-6.168137592e-05,-1.510382158e-03,-7.306897431e-04,-3.193095745e-06,-7.338828389e-04,-9.852072859e-04,-8.515315701e-05,-1.070360443e-03,-1.011269209e-03,1.286403723e-04,-8.826288372e-04,-8.402183116e-04,1.877920586e-04,-6.524262530e-04,-1.614876766e-03,2.642496848e-04,-1.350627081e-03,-1.139055704e-03,1.436051688e-06,-1.137619652e-03,-3.021161183e-04,-8.784977000e-05,-3.899658883e-04,-1.191692591e-03,4.064417463e-05,-1.151048417e-03,-5.517595342e-04,-2.799020905e-05,-5.797497433e-04,-9.529143109e-04,7.236699785e-05,-8.805473131e-04,-5.162191847e-04,-4.589084299e-05,-5.621100277e-04,-5.505723221e-04,-2.093163962e-06,-5.526654861e-04,-1.026617798e-03,2.739055503e-04,-7.527122480e-04,-6.832962572e-04,2.060823717e-05,-6.626880200e-04
-6.5,-5.254630948e-04,8.144733570e-05,-4.440157591e-04,-1.327153676e-03,-3.728131114e-05,-1.364434988e-03,-1.383373373e-03,-3.748929156e-05,-1.420862665e-03,-1.876918926e-03,-7.622848202e-05,-1.953147408e-03,-1.120806532e-03,2.875950106e-05,-1.092047031e-03,-1.260511587e-03,-7.737356769e-07,-1.261285323e-03,-1.374362337e-03,1.003016741e-04,-1.274060663e-03,-6.721426292e-04,2.057999873e-04,-4.663426418e-04,-1.537591031e-03,1.915861604e-04,-1.346004870e-03,-2.499161993e-04,2.495184103e-04,-3.977890097e-07,-8.713725737e-04,9.231793601e-05,-7.790546377e-04,-7.137216338e-04,2.561543040e-04,-4.575673298e-04,-3.998253007e-04,1.006615102e-04,-2.991637905e-04,-8.433386908e-04,9.332610939e-05,-7.500125814e-04,-1.042319416e-03,1.985500858e-04,-8.437693301e-04,-7.257080770e-04,1.293560518e-04,-5.963520252e-04,-5.707974700e-04,9.143972519e-05,-4.793577449e-04,-9.337791821e-04,-4.682371177e-06,-9.384615532e-04,-5.973972105e-04,5.352664810e-05,-5.438705624e-04,-4.066926825e-05,9.031955496e-05,4.965028670e-05,-7.715432567e-04,-2.935067389e-05,-8.008939306e-04,-1.375648251e-03,-5.251233892e-05,-1.428160589e-03,-6.722273395e-04,3.062076905e-06,-6.691652626e-04,-9.479975509e-04,-7.984307419e-05,-1.027840625e-03,-9.161244769e-04,1.335955914e-04,-7.825288855e-04,-7.879147134e-04,2.011349246e-04,-5.867797887e-04,-1.574273377e-03,3.333015756e-04,-1.240971802e-03,-1.068056652e-03,7.303644582e-06,-1.060753007e-03,-2.180171112e-04,-8.663848994e-05,-3.046556011e-04,-1.071716676e-03,4.650303799e-05,-1.025213638e-03,-4.437303122e-04,-1.788308275e-05,-4.616133949e-04,-8.284878752e-04,7.521054598e-05,-7.532773292e-04,-3.972477364e-04,-3.239369247e-05,-4.296414288e-04,-4.398795371e-04,2.619058985e-06,-4.372604782e-04,-8.841863408e-04,2.842056493e-04,-5.999806915e-04,-5.517717903e-04,2.350273855e-05,-5.282690518e-04
-6.4,-4.973002252e-04,7.249755579e-05,-4.248026695e-04,-1.239128717e-03,-3.285722238e-05,-1.271985939e-03,-1.311686661e-03,-3.495832086e-05,-1.346644981e-03,-1.740301231e-03,-6.459260103e-05,-1.804893832e-03,-1.052614213e-03,3.162118077e-05,-1.020993032e-03,-1.138729264e-03,2.372571157e-06,-1.136356693e-03,-1.261327354e-03,1.040060961e-04,-1.157321258e-03,-5.478922591e-04,1.932419147e-04,-3.546503444e-04,-1.401967644e-03,1.955041285e-04,-1.206463515e-03,-1.443303052e-04,2.416352780e-04,9.730497288e-05,-7.888054234e-04,9.967089535e-05,-6.891345281e-04,-6.586386889e-04,2.559634086e-04,-4.026752803e-04,-3.524982025e-04,1.051522879e-04,-2.473459146e-04,-7.693289729e-04,9.731134051e-05,-6.720176324e-04,-9.589562901e-04,2.031707905e-04,-7.557854996e-04,-6.142573236e-04,1.205079803e-04,-4.937493433e-04,-4.681838181e-04,9.908551520e-05,-3.690983029e-04,-8.521040459e-04,-5.757900481e-06,-8.578619464e-04,-5.069478321e-04,5.191449480e-05,-4.550333373e-04,3.810286658e-05,8.403536606e-05,1.221382326e-04,-6.993693299e-04,-2.144342458e-05,-7.208127545e-04,-1.298039230e-03,-4.327880393e-05,-1.341318034e-03,-6.122803810e-04,9.175536272e-06,-6.031048447e-04,-9.081797074e-04,-7.422410951e-05,-9.824038169e-04,-8.178207404e-04,1.384274141e-04,-6.793933263e-04,-7.320088325e-04,2.135490070e-04,-5.184598255e-04,-1.523994788e-03,3.996393894e-04,-1.124355399e-03,-9.929234198e-04,1.313802844e-05,-9.797853914e-04,-1.327655245e-04,-8.467760248e-05,-2.174431269e-04,-9.468174959e-04,5.230061696e-05,-8.945168789e-04,-3.329601615e-04,-7.624051590e-06,-3.405842131e-04,-7.007390382e-04,7.794316779e-05,-6.227958704e-04,-2.764413507e-04,-1.761151541e-05,-2.940528661e-04,-3.270474858e-04,7.772246331e-06,-3.192752395e-04,-7.369950159e-04,2.927885917e-04,-4.442064242e-04,-4.162201369e-04,2.503188307e-05,-3.911882538e-04
-6.3,-4.673256950e-04,6.355964701e-05,-4.037660480e-04,-1.147279016e-03,-2.825274087e-05,-1.175531757e-03,-1.236349515e-03,-3.249453127e-05,-1.268844046e-03,-1.598985916e-03,-5.298023595e-05,-1.651966152e-03,-9.805586985e-04,3.424376197e-05,-9.463149365e-04,-1.012765723e-03,5.670027378e-06,-1.007095696e-03,-1.144031453e-03,1.075265371e-04,-1.036504915e-03,-4.201285666e-04,1.798087226e-04,-2.403198441e-04,-1.262892661e-03,1.989010924e-04,-1.063991568e-03,-3.812714108e-05,2.331755271e-04,1.950483860e-04,-7.039587192e-04,1.066079879e-04,-5.973507313e-04,-6.000983475e-04,2.549905055e-04,-3.451078420e-04,-3.028587156e-04,1.087867214e-04,-1.940719941e-04,-6.923928186e-04,1.010370097e-04,-5.913558089e-04,-8.710864396e-04,2.064663926e-04,-6.646200470e-04,-4.983566664e-04,1.111384164e-04,-3.872182500e-04,-3.618366664e-04,1.060041866e-04,-2.558324797e-04,-7.670467534e-04,-6.951590283e-06,-7.739983436e-04,-4.129812661e-04,5.030261118e-05,-3.626786549e-04,1.179610643e-04,7.742351596e-05,1.953845802e-04,-6.244614105e-04,-1.349643465e-05,-6.379578452e-04,-1.215972211e-03,-3.396891492e-05,-1.249941126e-03,-5.510584095e-04,1.509709749e-05,-5.359613120e-04,-8.658040784e-04,-6.833394895e-05,-9.341380273e-04,-7.164839425e-04,1.430347648e-04,-5.734491777e-04,-6.724522747e-04,2.248686684e-04,-4.475836062e-04,-1.464075492e-03,4.628225317e-04,-1.001252960e-03,-9.135014345e-04,1.877255601e-05,-8.947288785e-04,-4.661955510e-05,-8.190355482e-05,-1.285231099e-04,-8.173049092e-04,5.801232940e-05,-7.592925798e-04,-2.196817391e-04,2.705414982e-06,-2.169763241e-04,-5.699227990e-04,8.052738712e-05,-4.893954119e-04,-1.542266805e-04,-1.567358729e-06,-1.557940393e-04,-2.124126060e-04,1.336305198e-05,-1.990495541e-04,-5.856763049e-04,2.997744016e-04,-2.859019032e-04,-2.771988091e-04,2.537762672e-05,-2.518211824e-04
-6.2,-4.355477107e-04,5.463268737e-05,-3.809150233e-04,-1.051762159e-03,-2.347473704e-05,-1.075236896e-03,-1.157432652e-03,-3.009071242e-05,-1.187523364e-03,-1.453173275e-03,-4.139061607e-05,-1.494563891e-03,-9.047801428e-04,3.662852713e-05,-8.681516157e-04,-8.829432840e-04,9.104295198e-06,-8.738389888e-04,-1.022738105e-03,1.108521755e-04,-9.118859292e-04,-2.893461782e-04,1.655736722e-04,-1.237725059e-04,-1.120596553e-03,2.017822871e-04,-9.188142655e-04,6.844395292e-05,2.241557478e-04,2.925997007e-04,-6.169219174e-04,1.131175404e-04,-5.038043770e-04,-5.383019604e-04,2.532862987e-04,-2.850156617e-04,-2.512224757e-04,1.118122861e-04,-1.394101896e-04,-6.126196581e-04,1.044545367e-04,-5.081651214e-04,-7.789706766e-04,2.083847871e-04,-5.705858894e-04,-3.783568087e-04,1.013623092e-04,-2.769944994e-04,-2.520997990e-04,1.121906421e-04,-1.399091570e-04,-6.788403758e-04,-8.204149154e-06,-6.870445249e-04,-3.158145660e-04,4.873390220e-05,-2.670806638e-04,1.986777323e-04,7.051276796e-05,2.691905003e-04,-5.469110210e-04,-5.522767242e-06,-5.524337882e-04,-1.129582184e-03,-2.457288702e-05,-1.154155071e-03,-4.887791249e-04,2.077822194e-05,-4.680009030e-04,-8.209457268e-04,-6.221310890e-05,-8.831588357e-04,-6.122841666e-04,1.473213279e-04,-4.649628388e-04,-6.092397427e-04,2.349314963e-04,-3.743082464e-04,-1.394573151e-03,5.223909316e-04,-8.721822199e-04,-8.296904841e-04,2.405532856e-05,-8.056351555e-04,4.014635679e-05,-7.826845833e-05,-3.812210155e-05,-6.835501778e-04,6.361958137e-05,-6.199305964e-04,-1.041752790e-04,1.302543254e-05,-9.114984650e-05,-4.363233372e-04,8.292064012e-05,-3.534026971e-04,-3.105365922e-05,1.569430462e-05,-1.535935460e-05,-9.634078826e-05,1.937677124e-05,-7.696401702e-05,-4.309302667e-04,3.052910343e-04,-1.256392324e-04,-1.353223684e-04,2.473277565e-05,-1.105895928e-04
-6.1,-4.019913726e-04,4.571681280e-05,-3.562745598e-04,-9.527677063e-04,-1.853159076e-05,-9.712992971e-04,-1.075034675e-03,-2.773730969e-05,-1.102771984e-03,-1.303103927e-03,-2.982457099e-05,-1.332928498e-03,-8.254491923e-04,3.877763992e-05,-7.866715524e-04,-7.496198654e-04,1.265651608e-05,-7.369633493e-04,-8.977474080e-04,1.139717528e-04,-7.837756553e-04,-1.560866762e-04,1.506139828e-04,-5.472693344e-06,-9.753433015e-04,2.041529203e-04,-7.711903812e-04,1.751073185e-04,2.145937308e-04,3.897010494e-04,-5.278127756e-04,1.191885726e-04,-4.086242029e-04,-4.734978737e-04,2.509112756e-04,-2.225865980e-04,-1.979177008e-04,1.144719790e-04,-8.344572182e-05,-5.301342033e-04,1.075180599e-04,-4.226161434e-04,-6.829158496e-04,2.089007469e-04,-4.740151027e-04,-2.546770156e-04,9.129599018e-05,-1.633810255e-04,-1.393658519e-04,1.176504055e-04,-2.171544633e-05,-5.877428835e-04,-9.462894429e-06,-5.972057779e-04,-2.158070513e-04,4.724957739e-05,-1.685574740e-04,2.799984132e-04,6.333512453e-05,3.433335377e-04,-4.668419696e-04,2.463108616e-06,-4.643788610e-04,-1.039038388e-03,-1.508362185e-05,-1.054122010e-03,-4.256637405e-04,2.617334184e-05,-3.994903987e-04,-7.737022811e-04,-5.590384582e-05,-8.296061269e-04,-5.054350680e-04,1.511982972e-04,-3.542367708e-04,-5.424093581e-04,2.435807135e-04,-2.988286445e-04,-1.315564886e-03,5.778730536e-04,-7.376918322e-04,-7.414491122e-04,2.885597083e-05,-7.125931413e-04,1.272479881e-04,-7.374307369e-05,5.350491436e-05,-5.459799787e-04,6.910943900e-05,-4.768705397e-04,1.323315273e-05,2.326001411e-05,3.649316684e-05,-3.002512097e-04,8.507639418e-05,-2.151748155e-04,9.261557434e-05,3.410575601e-05,1.267213304e-04,2.077938651e-05,2.578732113e-05,4.656670764e-05,-2.735090843e-04,3.094708350e-04,3.596175061e-05,8.757030811e-06,2.329158661e-05,3.204861742e-05
-6,-3.666985286e-04,3.681355880e-05,-3.298849698e-04,-8.505153804e-04,-1.343323965e-05,-8.639486201e-04,-9.892817130e-04,-2.542276055e-05,-1.014704474e-03,-1.149057073e-03,-1.828428743e-05,-1.167341361e-03,-7.427655272e-04,4.069431872e-05,-7.020712085e-04,-6.131858615e-04,1.630345926e-05,-5.968824022e-04,-7.693936808e-04,1.168736466e-04,-6.525200342e-04,-2.093149541e-05,1.350092973e-04,1.140778019e-04,-8.274289114e-04,2.060177460e-04,-6.214111654e-04,2.815637153e-04,2.045083604e-04,4.860720758e-04,-4.367769288e-04,1.248107003e-04,-3.119662284e-04,-4.059741588e-04,2.479322667e-04,-1.580418921e-04,-1.432710857e-04,1.169899577e-04,-2.628112801e-05,-4.450967510e-04,1.101853705e-04,-3.349113805e-04,-5.832675289e-04,2.080097149e-04,-3.752578140e-04,-1.278008470e-04,8.105549050e-05,-4.674535646e-05,-2.406734646e-05,1.223966893e-04,9.832934285e-05,-4.940334667e-04,-1.068371444e-05,-5.047171811e-04,-1.133535307e-04,4.588756488e-05,-6.746596577e-05,3.616436162e-04,5.592545662e-05,4.175690728e-04,-3.844095042e-04,1.044554025e-05,-3.739639640e-04,-9.445423660e-04,-5.497269903e-06,-9.500396359e-04,-3.619329725e-04,3.124116542e-05,-3.306918071e-04,-7.241918442e-04,-4.944885651e-05,-7.736407007e-04,-3.961930521e-04,1.545867947e-04,-2.416062574e-04,-4.720431364e-04,2.506679285e-04,-2.213752079e-04,-1.227152710e-03,6.288003229e-04,-5.983523871e-04,-6.487993854e-04,3.307160026e-05,-6.157277852e-04,2.143945871e-04,-6.831869855e-05,1.460758886e-04,-4.050712812e-04,7.447383883e-05,-3.305974424e-04,1.321728679e-04,3.333897213e-05,1.655118400e-04,-1.620437261e-04,8.694586478e-05,-7.509786133e-05,2.163149788e-04,5.357445352e-05,2.698894324e-04,1.385408528e-04,3.255751381e-05,1.710983666e-04,-1.142031850e-04,3.124470038e-04,1.982438188e-04,1.543608381e-04,2.124355972e-05,1.756043978e-04
-5.9,-3.297281610e-04,2.792604776e-05,-3.018021133e-04,-7.452537948e-04,-8.191354663e-06,-7.534451495e-04,-9.003277450e-04,-2.313391237e-05,-9.234616573e-04,-9.913500572e-04,-6.773051176e-06,-9.981231083e-04,-6.569578681e-04,4.238289827e-05,-6.145749698e-04,-4.740629675e-04,2.001799754e-05,-4.540449700e-04,-6.380444435e-04,1.195458650e-04,-5.184985785e-04,1.155041054e-04,1.188399743e-04,2.343440797e-04,-6.771812879e-04,2.073807106e-04,-4.698005772e-04,3.874921384e-04,1.939194467e-04,5.814115851e-04,-3.439884080e-04,1.299740339e-04,-2.140143741e-04,-3.360520044e-04,2.444189872e-04,-9.163301726e-05,-8.759976802e-05,1.195602875e-04,3.196051950e-05,-3.577045354e-04,1.124186497e-04,-2.452858858e-04,-4.804033361e-04,2.057226458e-04,-2.746806903e-04,1.728996351e-06,7.075398213e-05,7.248297848e-05,9.332980954e-05,1.264474583e-04,2.197772678e-04,-3.980103147e-04,-1.183235325e-05,-4.098426679e-04,-8.879255407e-06,4.468112401e-05,3.580186861e-05,4.433099047e-04,4.832104394e-05,4.916309486e-04,-2.998003029e-04,1.840794205e-05,-2.813923608e-04,-8.463268690e-04,4.186273107e-06,-8.421405959e-04,-2.978041111e-04,3.594581440e-05,-2.618582967e-04,-6.725510949e-04,-4.288998493e-05,-7.154410799e-04,-2.848561446e-04,1.574190759e-04,-1.274370687e-04,-3.982686920e-04,2.560565750e-04,-1.422121170e-04,-1.129479847e-03,6.747265043e-04,-4.547533430e-04,-5.518314840e-04,3.663030438e-05,-5.152011797e-04,3.012887517e-04,-6.200771149e-05,2.392810403e-04,-2.613473173e-04,7.970840099e-05,-1.816389163e-04,2.522291229e-04,4.319916711e-05,2.954282900e-04,-2.206841958e-05,8.848026479e-05,6.641184520e-05,3.395793540e-04,7.398179467e-05,4.135611487e-04,2.565191072e-04,3.963968883e-05,2.961587960e-04,4.617048289e-05,3.143499041e-04,3.605203870e-04,3.007862732e-04,1.877095692e-05,3.195572301e-04
-5.8,-2.911573058e-04,1.905898995e-05,-2.720983159e-04,-6.372597977e-04,-2.819581026e-06,-6.400793787e-04,-8.083554507e-04,-2.085646455e-05,-8.292119152e-04,-8.303389530e-04,4.704867605e-06,-8.256340854e-04,-5.682849822e-04,4.384881597e-05,-5.244361662e-04,-3.327048001e-04,2.377011010e-05,-3.089346900e-04,-5.041005286e-04,1.219760376e-04,-3.821244909e-04,2.525757458e-04,1.021860918e-04,3.547618375e-04,-5.249609574e-04,2.082447175e-04,-3.167162399e-04,4.925508796e-04,1.828475642e-04,6.753984438e-04,-2.496507677e-04,1.346691579e-04,-1.149816099e-04,-2.640806113e-04,2.404410757e-04,-2.363953566e-05,-3.120951594e-05,1.223400668e-04,9.113055088e-05,-2.681933884e-04,1.141849116e-04,-1.540084768e-04,-3.747290088e-04,2.020638150e-04,-1.726651938e-04,1.333159710e-04,6.049867584e-05,1.938146468e-04,2.123304317e-04,1.298227890e-04,3.421532207e-04,-2.999895951e-04,-1.288531745e-05,-3.128749125e-04,9.716311160e-05,4.365755391e-05,1.408206655e-04,5.246705981e-04,4.056091877e-05,5.652315169e-04,-2.132328984e-04,2.633288017e-05,-1.869000182e-04,-7.446556229e-04,1.396290569e-05,-7.306927172e-04,-2.334891864e-04,4.025768344e-05,-1.932315030e-04,-6.189333671e-04,-3.626716319e-05,-6.552005303e-04,-1.717621242e-04,1.596380800e-04,-1.212404416e-05,-3.212619812e-04,2.596259621e-04,-6.163601913e-05,-1.022756681e-03,7.152510298e-04,-3.075056513e-04,-4.507071962e-04,3.949138534e-05,-4.112158108e-04,3.876246516e-04,-5.484314173e-05,3.327815099e-04,-1.153739499e-04,8.481094179e-05,-3.056300814e-05,3.729437841e-04,5.278488126e-05,4.257286654e-04,1.192717009e-04,8.963340420e-05,2.089051051e-04,4.619459127e-04,9.518262845e-05,5.571285411e-04,3.742711235e-04,4.697658847e-05,4.212477120e-04,2.067782558e-04,3.153036069e-04,5.220818627e-04,4.473029835e-04,1.604929676e-05,4.633522803e-04
-5.7,-2.510822207e-04,1.021856068e-05,-2.408636600e-04,-5.268380999e-04,2.666270931e-06,-5.241718290e-04,-7.135770883e-04,-1.857539299e-05,-7.321524813e-04,-6.664192549e-04,1.614410914e-05,-6.502751458e-04,-4.770366890e-04,4.509858947e-05,-4.319380996e-04,-1.895980745e-04,2.752826269e-05,-1.620698118e-04,-3.679963745e-04,1.241514113e-04,-2.438449632e-04,3.896136899e-04,8.512778316e-05,4.747414731e-04,-3.711615279e-04,2.086114879e-04,-1.625500400e-04,5.963785126e-04,1.713139278e-04,7.676924405e-04,-1.539980170e-04,1.388872048e-04,-1.511081215e-05,-1.904335186e-04,2.360657545e-04,4.563223592e-05,2.560257156e-05,1.254461928e-04,1.510487644e-04,-1.768386383e-04,1.154561479e-04,-6.138249045e-05,-2.666766501e-04,1.970705675e-04,-6.960608259e-05,2.663149012e-04,5.038795175e-05,3.167028530e-04,3.324127745e-04,1.325428866e-04,4.649556611e-04,-2.003050610e-04,-1.383013477e-05,-2.141351958e-04,2.042953934e-04,4.283693981e-05,2.471323332e-04,6.053767044e-04,3.268509910e-05,6.380618035e-04,-1.249577173e-04,3.420192830e-05,-9.075578905e-05,-6.398234637e-04,2.382393526e-05,-6.159995285e-04,-1.691938176e-04,4.415403318e-05,-1.250397845e-04,-5.635063742e-04,-2.961772367e-05,-5.931240979e-04,-5.728569573e-05,1.611957625e-04,1.039100668e-04,-2.412499937e-04,2.612756339e-04,2.002564027e-05,-9.072907474e-04,7.500440295e-04,-1.572467179e-04,-3.456618012e-04,4.164334330e-05,-3.040184579e-04,4.730868148e-04,-4.687762102e-05,4.262091938e-04,3.224468401e-05,8.977982819e-05,1.220245122e-04,4.938171725e-04,6.204747250e-05,5.558646450e-04,2.615330748e-04,9.036440630e-05,3.518974811e-04,5.829539052e-04,1.170059322e-04,6.999598374e-04,4.913341024e-04,5.450231145e-05,5.458364139e-04,3.667781118e-04,3.154229988e-04,6.822011106e-04,5.931497315e-04,1.324933160e-05,6.063990631e-04
-5.6,-2.096192717e-04,1.412239434e-06,-2.082070322e-04,-4.143204917e-04,8.248180489e-06,-4.060723112e-04,-6.162346354e-04,-1.627535855e-05,-6.325099940e-04,-5.000254510e-04,2.753787740e-05,-4.724875736e-04,-3.835336600e-04,4.613982175e-05,-3.373938383e-04,-4.526235482e-05,3.126069536e-05,-1.400165946e-05,-2.301991145e-04,1.260588261e-04,-1.041402884e-04,5.259269661e-04,6.774657609e-05,5.936735422e-04,-2.162085362e-04,2.084815008e-04,-7.727035390e-06,6.985958336e-04,1.593402828e-04,8.579361164e-04,-5.729429350e-05,1.426200123e-04,8.532571883e-05,-1.155050776e-04,2.313555195e-04,1.158504419e-04,8.254325963e-05,1.289542996e-04,2.114975593e-04,-8.395413772e-05,1.162093508e-04,3.225521308e-05,-1.567028480e-04,1.907929651e-04,3.409011712e-05,4.000379159e-04,4.050919271e-05,4.405471086e-04,4.530312638e-04,1.346269469e-04,5.876582107e-04,-9.930776970e-05,-1.466437692e-05,-1.139721466e-04,3.120161758e-04,4.223098746e-05,3.542471632e-04,6.850587277e-04,2.473391852e-05,7.097926462e-04,-3.525590604e-05,4.199547696e-05,6.739570921e-06,-5.321559993e-04,3.375593737e-05,-4.984000620e-04,-1.051161587e-04,4.761938401e-05,-5.749677468e-05,-5.064493008e-04,-2.297608418e-05,-5.294253850e-04,5.816539894e-05,1.620512483e-04,2.202166473e-04,-1.585119478e-04,2.609297339e-04,1.024177862e-04,-7.835127230e-04,7.788686789e-04,-4.644044165e-06,-2.370043417e-04,4.310131311e-05,-1.939030286e-04,5.573508796e-04,-3.818148706e-05,5.191693925e-04,1.808723418e-04,9.461236672e-05,2.754847086e-04,6.143121043e-04,7.094498119e-05,6.852570855e-04,4.042287315e-04,9.064030974e-05,4.948690412e-04,7.021441342e-04,1.392569649e-04,8.414010990e-04,6.072262931e-04,6.214333466e-05,6.693696277e-04,5.253271989e-04,3.148119707e-04,8.401391696e-04,7.375364632e-04,1.053874934e-05,7.480752125e-04
-5.5,-1.669049328e-04,-7.351350626e-06,-1.742562834e-04,-3.000638825e-04,1.390602507e-05,-2.861578574e-04,-5.165984653e-04,-1.394112763e-05,-5.305395929e-04,-3.316284518e-04,3.887742984e-05,-2.927510220e-04,-2.881250436e-04,4.698122427e-05,-2.411438194e-04,9.975321495e-05,3.493627313e-05,1.346894881e-04,-9.120526795e-05,1.276846904e-04,3.647942249e-05,6.608093259e-04,5.012688335e-05,7.109362093e-04,-6.055577049e-05,2.078540188e-04,1.472982483e-04,7.988095931e-04,1.469488139e-04,9.457584071e-04,4.016847618e-05,1.458603497e-04,1.860288259e-04,-3.970576443e-05,2.263653318e-04,1.866595674e-04,1.393190578e-04,1.328991222e-04,2.722181800e-04,1.011117290e-05,1.164267056e-04,1.265378785e-04,-4.528513888e-05,1.832923107e-04,1.380071718e-04,5.337623913e-04,3.093731499e-05,5.646997063e-04,5.736207513e-04,1.360926766e-04,7.097134279e-04,2.634657804e-06,-1.539326314e-05,-1.275860534e-05,4.198048677e-04,4.184202729e-05,4.616468950e-04,7.633297605e-04,1.674754124e-05,7.800773017e-04,5.556344402e-05,4.969270947e-05,1.052561535e-04,-4.220080864e-04,4.374099666e-05,-3.782670898e-04,-4.144557471e-05,5.064571985e-05,9.200145145e-06,-4.479492492e-04,-1.637366961e-05,-4.643229188e-04,1.741556434e-04,1.621695470e-04,3.363251904e-04,-7.337786886e-05,2.585409517e-04,1.851630829e-04,-6.519923197e-04,8.015962931e-04,1.496039734e-04,-1.251162058e-04,4.390498947e-05,-8.121121629e-05,6.400863195e-04,-2.883955215e-05,6.112467674e-04,3.298488650e-04,9.930342528e-05,4.291522903e-04,7.338604813e-04,7.944232369e-05,8.133028050e-04,5.468289368e-04,9.043820760e-05,6.372671444e-04,8.190598274e-04,1.617210979e-04,9.807809254e-04,7.214513733e-04,6.981981108e-05,7.912711844e-04,6.815890314e-04,3.135638510e-04,9.951528824e-04,8.796547001e-04,8.082238458e-06,8.877369385e-04
-5.4,-1.230946132e-04,-1.606260017e-05,-1.391572134e-04,-1.844468796e-04,1.961777465e-05,-1.648291049e-04,-4.149644489e-04,-1.155800671e-05,-4.265224557e-04,-1.617306806e-04,5.015161934e-05,-1.115790612e-04,-1.911838961e-04,4.763263824e-05,-1.435512579e-04,2.448761466e-04,3.852496612e-05,2.834011127e-04,4.846504020e-05,1.290149856e-04,1.774800258e-04,7.935472728e-04,3.235715864e-05,8.259044315e-04,9.532063387e-05,2.067271861e-04,3.020478200e-04,8.966179246e-04,1.341621264e-04,1.030780051e-03,1.380747429e-04,1.486021703e-04,2.866769132e-04,3.654371525e-05,2.211396041e-04,2.576833193e-04,1.956354260e-04,1.372760928e-04,3.329115188e-04,1.049786331e-04,1.160961153e-04,2.210747484e-04,6.708206754e-05,1.746391473e-04,2.417212148e-04,6.667411058e-04,2.173382468e-05,6.884749305e-04,6.936027765e-04,1.369560814e-04,8.305588578e-04,1.051395919e-04,-1.602627469e-05,8.911331724e-05,5.271278619e-04,4.166234787e-05,5.687902097e-04,8.397897500e-04,8.765567018e-06,8.485553170e-04,1.471673195e-04,5.727174378e-05,2.044390633e-04,-3.097610230e-04,5.375721882e-05,-2.560038042e-04,2.163880551e-05,5.323244830e-05,7.487125381e-05,-3.881974472e-04,-9.838873627e-06,-3.980363208e-04,2.902285072e-04,1.615208548e-04,4.517493619e-04,1.377556216e-05,2.540934491e-04,2.678690113e-04,-5.134422096e-04,8.182117213e-04,3.047695117e-04,-1.044790342e-05,4.411692872e-05,3.366902529e-05,7.209599030e-04,-1.894654092e-05,7.020133621e-04,4.784992160e-04,1.038444191e-04,5.823436351e-04,8.518717751e-04,8.751193453e-05,9.393837096e-04,6.887653256e-04,8.974647667e-05,7.785118022e-04,9.332486916e-04,1.841691851e-04,1.117417877e-03,8.335058991e-04,7.744736855e-05,9.109532676e-04,8.347405701e-04,3.117646865e-04,1.146505257e-03,1.018694490e-03,6.039875699e-06,1.024734366e-03
-5.3,-7.836060262e-05,-2.471105434e-05,-1.030716570e-04,-6.786541882e-05,2.535971040e-05,-4.250570841e-05,-3.116502378e-04,-9.112255984e-06,-3.207624938e-04,9.140204783e-06,6.134672880e-05,7.048693358e-05,-9.310158727e-05,4.810503904e-05,-4.499654823e-05,3.895180340e-04,4.199824861e-05,4.315162826e-04,1.882750252e-04,1.300352828e-04,3.183103080e-04,9.234287428e-04,1.453076829e-05,9.379595110e-04,2.509288482e-04,2.050981403e-04,4.560269885e-04,9.916163290e-04,1.210033149e-04,1.112619644e-03,2.360901962e-04,1.508407997e-04,3.869309959e-04,1.128185195e-04,2.157096780e-04,3.285281975e-04,2.512004237e-04,1.420436852e-04,3.932441088e-04,2.002457663e-04,1.152119027e-04,3.154576690e-04,1.798891895e-04,1.649124827e-04,3.448016723e-04,7.982131419e-04,1.294635410e-05,8.111594960e-04,8.123924366e-04,1.372312267e-04,9.496236634e-04,2.078115336e-04,-1.657358507e-05,1.912379485e-04,6.334456303e-04,4.167409320e-05,6.751197235e-04,9.140303296e-04,8.265842239e-07,9.148569138e-04,2.392031374e-04,6.470977440e-05,3.039129118e-04,-1.958190766e-04,6.377927506e-05,-1.320398015e-04,8.396915615e-05,5.538608635e-05,1.393552425e-04,-3.273859133e-04,-3.396934341e-06,-3.307828476e-04,4.059137838e-04,1.600803034e-04,5.659940873e-04,1.025309223e-04,2.476042078e-04,3.501351301e-04,-3.687112097e-04,8.288087860e-04,4.600975762e-04,1.064856642e-04,4.382031996e-05,1.503059842e-04,7.996383371e-04,-8.601974273e-06,7.910363628e-04,6.261415555e-04,1.082226982e-04,7.343642537e-04,9.677419955e-04,9.513411275e-05,1.062876108e-03,8.294373243e-04,8.856486996e-05,9.180021943e-04,1.044264728e-03,2.063637610e-04,1.250628490e-03,9.428873862e-04,8.493932390e-05,1.027826710e-03,9.839790890e-04,3.094979306e-04,1.293477020e-03,1.153862310e-03,4.564656348e-06,1.158426966e-03
-5.2,-3.288975769e-05,-3.328551078e-05,-6.617526847e-05,4.927161175e-05,3.110666484e-05,8.037827658e-05,-2.069917506e-04,-6.591455206e-06,-2.135832058e-04,1.804374213e-04,7.244667038e-05,2.528840917e-04,5.717278527e-06,4.841050169e-05,5.412778022e-05,5.330810858e-04,4.532958594e-05,5.784106717e-04,3.276775986e-04,1.307307430e-04,4.584083416e-04,1.049750676e-03,-3.253312811e-06,1.046497363e-03,4.057671512e-04,2.029630879e-04,6.087302390e-04,1.083402850e-03,1.074960841e-04,1.190898934e-03,3.338660795e-04,1.525729876e-04,4.864390671e-04,1.886950076e-04,2.100921757e-04,3.987871833e-04,3.057317541e-04,1.471256815e-04,4.528574356e-04,2.954915346e-04,1.137753420e-04,4.092668766e-04,2.926088540e-04,1.542019649e-04,4.468108189e-04,9.274134535e-04,4.608953937e-06,9.320224075e-04,9.294037110e-04,1.369298652e-04,1.066333576e-03,3.102443172e-04,-1.704320979e-05,2.932011074e-04,7.382189778e-04,4.184979853e-05,7.800687763e-04,9.856394686e-04,-7.032389311e-06,9.786070793e-04,3.313025111e-04,7.198314139e-05,4.032856524e-04,-8.060622704e-05,7.377890167e-05,-6.827325371e-06,1.453892176e-04,5.711970896e-05,2.025089265e-04,-2.657051693e-04,2.930282644e-06,-2.627748867e-04,5.207338224e-04,1.578282726e-04,6.785620951e-04,1.924363308e-04,2.391226258e-04,4.315589566e-04,-2.187702140e-04,8.335771518e-04,6.148069378e-04,2.251111258e-04,4.311533350e-05,2.682264593e-04,8.757892635e-04,2.094469619e-06,8.778837332e-04,7.720932182e-04,1.124212840e-04,8.845145023e-04,1.080861702e-03,1.022965543e-04,1.183158256e-03,9.682191290e-04,8.690374078e-05,1.055122870e-03,1.151668855e-03,2.280649464e-04,1.379733801e-03,1.049100526e-03,9.220886517e-05,1.141309391e-03,1.128528541e-03,3.068476742e-04,1.435376215e-03,1.284395109e-03,3.799460379e-06,1.288194569e-03
-5.1,1.311858425e-05,-4.177407604e-05,-2.865549179e-05,1.665460517e-04,3.683230400e-05,2.033783557e-04,-1.013403933e-04,-3.984831658e-06,-1.053252249e-04,3.515999408e-04,8.343340652e-05,4.350333473e-04,1.048585714e-04,4.856209240e-05,1.534206638e-04,6.749628386e-04,4.849492283e-05,7.234577614e-04,4.661201388e-04,1.310861095e-04,5.972062482e-04,1.171824719e-03,-2.089001454e-05,1.150934704e-03,5.593281456e-04,2.003173697e-04,7.596455154e-04,1.171581742e-03,9.366489260e-05,1.265246635e-03,4.310424084e-04,1.537968322e-04,5.848392406e-04,2.637550752e-04,2.042881321e-04,4.680432074e-04,3.589647459e-04,1.524130127e-04,5.113777586e-04,3.902806375e-04,1.117947565e-04,5.020753940e-04,4.046900241e-04,1.426130129e-04,5.473030370e-04,1.053579690e-03,-3.256439627e-06,1.050323250e-03,1.044052258e-03,1.360609927e-04,1.180113250e-03,4.120230499e-04,-1.743948493e-05,3.945835649e-04,8.409132337e-04,4.215342442e-05,8.830666581e-04,1.054205456e-03,-1.477650957e-05,1.039428947e-03,4.230839868e-04,7.906744832e-05,5.021514351e-04,3.543635390e-05,8.372543931e-05,1.191617932e-04,2.057536849e-04,5.845222825e-05,2.642059132e-04,-2.033431493e-04,9.124508646e-06,-1.942186407e-04,6.342076964e-04,1.547512310e-04,7.889589274e-04,2.830111451e-04,2.287285498e-04,5.117396949e-04,-6.469602204e-05,8.327839293e-04,7.680879073e-04,3.448039698e-04,4.211400339e-05,3.869179732e-04,9.490807439e-04,1.304648483e-05,9.621272288e-04,9.156745646e-04,1.164188507e-04,1.032093415e-03,1.190622377e-03,1.089930692e-04,1.299615447e-03,1.104465740e-03,8.478299497e-05,1.189248735e-03,1.255028562e-03,2.490349354e-04,1.504063498e-03,1.151660719e-03,9.917074826e-05,1.250831467e-03,1.267644959e-03,3.038985150e-04,1.571543474e-03,1.409569333e-03,3.873286916e-06,1.413442620e-03
-5,5.945436287e-05,-5.016422630e-05,9.290136574e-06,2.835333115e-04,4.250944735e-05,3.260427589e-04,4.939140137e-06,-1.283568863e-06,3.655571274e-06,5.220560800e-04,9.428736169e-05,6.163434417e-04,2.039011064e-04,4.857366297e-05,2.524747694e-04,8.145594363e-04,5.147299947e-05,8.660324358e-04,6.030478125e-04,1.310857372e-04,7.341335496e-04,1.288981397e-03,-3.826791604e-05,1.250713481e-03,7.111016891e-04,1.971555875e-04,9.082572766e-04,1.255765819e-03,7.953512973e-05,1.335300949e-03,5.272503281e-04,1.545116637e-04,6.817619918e-04,3.375897432e-04,1.982826224e-04,5.358723656e-04,4.106584603e-04,1.577663843e-04,5.684248446e-04,4.841672906e-04,1.092851196e-04,5.934524103e-04,5.155527108e-04,1.302724059e-04,6.458251167e-04,1.175956166e-03,-1.063730755e-05,1.165318859e-03,1.155756275e-03,1.346305355e-04,1.290386811e-03,5.127257113e-04,-1.776278660e-05,4.949629247e-04,9.410001965e-04,4.254170970e-05,9.835419062e-04,1.119320160e-03,-2.237357651e-05,1.096946584e-03,5.141549131e-04,8.593785079e-05,6.000927639e-04,1.518522464e-04,9.358639722e-05,2.454386436e-04,2.649269887e-04,5.940755641e-05,3.243345452e-04,-1.404849920e-04,1.517115641e-05,-1.253138356e-04,7.458538452e-04,1.508425524e-04,8.966963976e-04,3.737510465e-04,2.165289829e-04,5.902800293e-04,9.234400517e-05,8.267538321e-04,9.190978373e-04,4.648976563e-04,4.093436850e-05,5.058320248e-04,1.019180290e-03,2.416329030e-05,1.043343580e-03,1.056211395e-03,1.201899106e-04,1.176401305e-03,1.296421588e-03,1.152216377e-04,1.411643225e-03,1.237517700e-03,8.223120407e-05,1.319748905e-03,1.353917485e-03,2.690404485e-04,1.622957934e-03,1.250095712e-03,1.057424406e-04,1.355838153e-03,1.400620521e-03,3.007324669e-04,1.701352988e-03,1.528706003e-03,4.897008964e-06,1.533603012e-03
-4.9,1.058984643e-04,-5.844292875e-05,4.745553556e-05,3.998047354e-04,4.811041301e-05,4.479151484e-04,1.114710925e-04,1.518922174e-06,1.129900147e-04,6.912266077e-04,1.049876500e-04,7.962142577e-04,3.024187160e-04,4.845957959e-05,3.508782956e-04,9.512685753e-04,5.424544214e-05,1.005514017e-03,7.379063808e-04,1.307137035e-04,8.686200843e-04,1.400573841e-03,-5.526942943e-05,1.345304412e-03,8.605775244e-04,1.934718297e-04,1.054049354e-03,1.335578306e-03,6.513328526e-05,1.400711591e-03,6.221143404e-04,1.547179838e-04,7.768323242e-04,4.098022751e-04,1.920447837e-04,6.018470588e-04,4.605977742e-04,1.630221396e-04,6.236199137e-04,5.766993024e-04,1.062672464e-04,6.829665488e-04,6.245874354e-04,1.173310965e-04,7.419185319e-04,1.293796129e-03,-1.752695507e-05,1.276269174e-03,1.263936775e-03,1.326413455e-04,1.396578120e-03,6.119245848e-04,-1.800975441e-05,5.939148304e-04,1.037958704e-03,4.296564999e-05,1.080924354e-03,1.180581951e-03,-2.979423114e-05,1.150787719e-03,6.041131616e-04,9.256944673e-05,6.966826084e-04,2.681719416e-04,1.033278243e-04,3.714997659e-04,3.227819735e-04,6.001369304e-05,3.827956665e-04,-7.731310969e-05,2.105913760e-05,-5.625397208e-05,8.551925347e-04,1.461025927e-04,1.001295127e-03,4.641333372e-04,2.026537468e-04,6.667870840e-04,2.511080806e-04,8.158503211e-04,1.066958402e-03,5.846943551e-04,3.969453157e-05,6.243888866e-04,1.085755191e-03,3.536027068e-05,1.121115462e-03,1.193037056e-03,1.237052706e-04,1.316742326e-03,1.397668147e-03,1.209819560e-04,1.518650102e-03,1.366705744e-03,7.928489654e-05,1.445990640e-03,1.447915674e-03,2.878536367e-04,1.735769311e-03,1.343946862e-03,1.118450048e-04,1.455791867e-03,1.526787254e-03,2.974243389e-04,1.824211593e-03,1.641173613e-03,6.959243035e-06,1.648132856e-03
-4.8,1.522247388e-04,-6.659682781e-05,8.562791099e-05,5.149301270e-04,5.360739885e-05,5.685375259e-04,2.178716521e-04,4.426831712e-06,2.222984838e-04,8.585285621e-04,1.155120618e-04,9.740406239e-04,3.999830565e-04,4.823446815e-05,4.482175247e-04,1.084493469e-03,5.679668888e-05,1.141290158e-03,8.701457218e-04,1.299540211e-04,1.000099743e-03,1.505982704e-03,-7.177212643e-05,1.434210578e-03,1.007248832e-03,1.892599727e-04,1.196508805e-03,1.410655279e-03,5.048702298e-05,1.461142302e-03,7.152553263e-04,1.544174887e-04,8.696728150e-04,4.800110544e-04,1.855284976e-04,6.655395521e-04,5.085908443e-04,1.680028350e-04,6.765936793e-04,6.674233293e-04,1.027667707e-04,7.701901000e-04,7.311613453e-04,1.039628547e-04,8.351242000e-04,1.406364181e-03,-2.392043604e-05,1.382443745e-03,1.368018807e-03,1.300934863e-04,1.498112294e-03,7.091880511e-04,-1.817323199e-05,6.910148191e-04,1.131275450e-03,4.337189186e-05,1.174647342e-03,1.237599063e-03,-3.701193188e-05,1.200587131e-03,6.925497033e-04,9.893762138e-05,7.914873247e-04,3.839162464e-04,1.129143112e-04,4.968305576e-04,3.791990502e-04,6.030179525e-05,4.395008454e-04,-1.400686631e-05,2.678042055e-05,1.277355424e-05,9.617493202e-04,1.405377520e-04,1.102287072e-03,5.536235554e-04,1.872506086e-04,7.408741640e-04,4.102988117e-04,8.004595860e-04,1.210758398e-03,7.034766759e-04,3.850685777e-05,7.419835337e-04,1.148475759e-03,4.655831535e-05,1.195034075e-03,1.325495715e-03,1.269328050e-04,1.452428520e-03,1.493788643e-03,1.262728740e-04,1.620061517e-03,1.491357217e-03,7.598792674e-05,1.567345143e-03,1.536611201e-03,3.052530407e-04,1.841864241e-03,1.432771687e-03,1.174040302e-04,1.550175717e-03,1.645523275e-03,2.940364466e-04,1.939559722e-03,1.746391348e-03,1.012294698e-05,1.756514295e-03
-4.7,1.982027687e-04,-7.461243287e-05,1.235903358e-04,6.284810681e-04,5.897290470e-05,6.874539728e-04,3.237532725e-04,7.441926174e-06,3.311951987e-04,1.023380672e-03,1.258368931e-04,1.149217565e-03,4.961679778e-04,4.791303304e-05,5.440810108e-04,1.213648803e-03,5.911384076e-05,1.272762643e-03,9.992249544e-04,1.287909533e-04,1.128015908e-03,1.604623615e-03,-8.765203225e-05,1.516971583e-03,1.150617483e-03,1.845140172e-04,1.335131500e-03,1.480649477e-03,3.562513604e-05,1.516274613e-03,8.062950059e-04,1.536131339e-04,9.599081398e-04,5.478525925e-04,1.786741568e-04,7.265267493e-04,5.544629346e-04,1.725315211e-04,7.269944556e-04,7.558918282e-04,9.881304573e-05,8.547048739e-04,8.346300523e-04,9.035937017e-05,9.249894225e-04,1.512940835e-03,-2.981056224e-05,1.483130273e-03,1.467434960e-03,1.269846642e-04,1.594419624e-03,8.040834385e-04,-1.824167556e-05,7.858417629e-04,1.220447676e-03,4.370394819e-05,1.264151624e-03,1.289994080e-03,-4.400285856e-05,1.245991222e-03,7.790527200e-04,1.050183268e-04,8.840710468e-04,4.986014673e-04,1.223087690e-04,6.209102363e-04,4.340661519e-04,6.030529395e-05,4.943714458e-04,4.925854918e-05,3.232948038e-05,8.158802956e-05,1.065060083e-03,1.341588973e-04,1.199218980e-03,6.416839928e-04,1.704804819e-04,8.121644747e-04,5.685837759e-04,7.809790369e-04,1.349562813e-03,8.205200117e-04,3.747220508e-05,8.579922168e-04,1.207021854e-03,5.768250956e-05,1.264704363e-03,1.452947825e-03,1.298384257e-04,1.582786250e-03,1.584235914e-03,1.310903985e-04,1.715326313e-03,1.610804926e-03,7.239102838e-05,1.683195955e-03,1.619603401e-03,3.210262041e-04,1.940629605e-03,1.516148695e-03,1.223507283e-04,1.638499423e-03,1.756263797e-03,2.906132121e-04,2.046877009e-03,1.843834815e-03,1.442339693e-05,1.858258212e-03
-4.6,2.436014566e-04,-8.247623645e-05,1.611252201e-04,7.400352458e-04,6.418013835e-05,8.042153842e-04,4.287301611e-04,1.056363568e-05,4.392937968e-04,1.185210290e-03,1.359368266e-04,1.321147117e-03,5.905553273e-04,4.750992107e-05,6.380652483e-04,1.338168479e-03,6.118647672e-05,1.399354956e-03,1.124619029e-03,1.272093937e-04,1.251828422e-03,1.695957098e-03,-1.027889649e-04,1.593168133e-03,1.290200630e-03,1.792284326e-04,1.469429062e-03,1.545235275e-03,2.057749532e-05,1.565812771e-03,8.948615917e-04,1.523092018e-04,1.047170793e-03,6.129849110e-04,1.714116414e-04,7.843965524e-04,5.980485987e-04,1.764468702e-04,7.744954689e-04,8.416712723e-04,9.443797453e-05,9.361092468e-04,9.343525388e-04,7.672306814e-05,1.011075607e-03,1.612830256e-03,-3.518479319e-05,1.577645462e-03,1.561631302e-03,1.233107941e-04,1.684942096e-03,8.961811469e-04,-1.819835703e-05,8.779827899e-04,1.304988281e-03,4.390331680e-05,1.348891598e-03,1.337409443e-03,-5.074578736e-05,1.286663656e-03,8.632130500e-04,1.107883696e-04,9.740014196e-04,6.117458564e-04,1.314723567e-04,7.432182130e-04,4.872793078e-04,6.005907955e-05,5.473383874e-04,1.123139053e-04,3.770281628e-05,1.500167216e-04,1.164677249e-03,1.269799777e-04,1.291657227e-03,7.277834912e-04,1.525131271e-04,8.802966183e-04,7.246162713e-04,7.578109538e-04,1.482427225e-03,9.351056829e-04,3.667398346e-05,9.717796663e-04,1.261091361e-03,6.866076985e-05,1.329752130e-03,1.574777302e-03,1.323869961e-04,1.707164298e-03,1.668498553e-03,1.354266758e-04,1.803925229e-03,1.724397263e-03,6.855155332e-05,1.792948816e-03,1.696507310e-03,3.349741843e-04,2.031481494e-03,1.593683822e-03,1.266231442e-04,1.720306966e-03,1.858515682e-03,2.871763720e-04,2.145692054e-03,1.933044126e-03,1.986786194e-05,1.952911988e-03
-4.5,2.881930114e-04,-9.017474767e-05,1.980182637e-04,8.491813240e-04,6.920330566e-05,9.183846296e-04,5.324240732e-04,1.378916916e-05,5.462132424e-04,1.343460714e-03,1.457850573e-04,1.489245771e-03,6.827410372e-04,4.703955845e-05,7.297805957e-04,1.457513821e-03,6.300632920e-05,1.520520150e-03,1.245825568e-03,1.251952536e-04,1.371020822e-03,1.779499105e-03,-1.170728352e-04,1.662426269e-03,1.425537246e-03,1.733984916e-04,1.598935738e-03,1.604113727e-03,5.375124480e-06,1.609488851e-03,9.805955318e-04,1.505113570e-04,1.131106889e-03,6.750909478e-04,1.636642087e-04,8.387551565e-04,6.391844412e-04,1.796159516e-04,8.188003928e-04,9.243501829e-04,8.967476710e-05,1.014024950e-03,1.029706200e-03,6.325881781e-05,1.092965018e-03,1.705370680e-03,-4.002380357e-05,1.665346876e-03,1.650074228e-03,1.190669288e-04,1.769141157e-03,9.850594408e-04,-1.802092974e-05,9.670385110e-04,1.384432371e-03,4.391063807e-05,1.428343009e-03,1.379513053e-03,-5.722189837e-05,1.322291155e-03,9.446299616e-04,1.162256967e-04,1.060855658e-03,7.228760192e-04,1.403648170e-04,8.632408362e-04,5.387432785e-04,5.959872792e-05,5.983420064e-04,1.749977201e-04,4.289861431e-05,2.178963344e-04,1.260175774e-03,1.190175508e-04,1.379193325e-03,8.114069686e-04,1.335234815e-04,9.449304501e-04,8.770549826e-04,7.313618942e-04,1.608416877e-03,1.046534421e-03,3.617246386e-05,1.082706885e-03,1.310408322e-03,7.942249513e-05,1.389830817e-03,1.690398654e-03,1.345429960e-04,1.824941650e-03,1.746109432e-03,1.392697942e-04,1.885379227e-03,1.831507851e-03,6.453286135e-05,1.896040712e-03,1.766958291e-03,3.469167388e-04,2.113875030e-03,1.665016474e-03,1.301673615e-04,1.795183835e-03,1.951871766e-03,2.837209333e-04,2.235592700e-03,2.013631939e-03,2.643646605e-05,2.040068405e-03
-4.4,3.317566358e-04,-9.769447323e-05,2.340621626e-04,9.555234673e-04,7.401773573e-05,1.029541203e-03,6.344693739e-04,1.711360337e-05,6.515829773e-04,1.497597495e-03,1.553536659e-04,1.652951161e-03,7.723401259e-04,4.651593734e-05,8.188560632e-04,1.571180675e-03,6.456669248e-05,1.635747367e-03,1.362370489e-03,1.227358170e-04,1.485106306e-03,1.854829651e-03,-1.304092094e-04,1.724420442e-03,1.556193202e-03,1.670205657e-04,1.723213767e-03,1.657016521e-03,-9.949571817e-06,1.647066949e-03,1.063154199e-03,1.482266885e-04,1.211380887e-03,7.338813663e-04,1.553528765e-04,8.892342428e-04,6.777041372e-04,1.819422987e-04,8.596464359e-04,1.003545425e-03,8.455670065e-05,1.088102125e-03,1.120100262e-03,5.016511719e-05,1.170265380e-03,1.789946021e-03,-4.430233966e-05,1.745643682e-03,1.732255982e-03,1.142487206e-04,1.846504703e-03,1.070309011e-03,-1.768183741e-05,1.052627173e-03,1.458343338e-03,4.366695053e-05,1.502010289e-03,1.416002883e-03,-6.341454005e-05,1.352588343e-03,1.022916168e-03,1.213095662e-04,1.144225734e-03,8.315321247e-04,1.489451708e-04,9.804772955e-04,5.883717797e-04,5.895973184e-05,6.473315115e-04,2.371574339e-04,4.791652493e-05,2.850739588e-04,1.351157462e-03,1.102911029e-04,1.461448565e-03,8.920633624e-04,1.136885003e-04,1.005751863e-03,1.024580993e-03,7.020489171e-04,1.726629910e-03,1.154138223e-03,3.600055922e-05,1.190138782e-03,1.354728791e-03,8.989719033e-05,1.444625981e-03,1.799262477e-03,1.362709540e-04,1.935533431e-03,1.816651485e-03,1.426039937e-04,1.959255479e-03,1.931543904e-03,6.040256829e-05,1.991946472e-03,1.830616166e-03,3.566965772e-04,2.187312743e-03,1.729823401e-03,1.329385407e-04,1.862761942e-03,2.036021601e-03,2.802111833e-04,2.316232785e-03,2.085289161e-03,3.408316605e-05,2.119372327e-03
-4.3,3.740813853e-04,-1.050218689e-04,2.690595164e-04,1.058684815e-03,7.859988229e-05,1.137284697e-03,7.345167488e-04,2.052994454e-05,7.550466934e-04,1.647112962e-03,1.646141081e-04,1.811727070e-03,8.589898858e-04,4.595239314e-05,9.049422789e-04,1.678704396e-03,6.586166306e-05,1.744566059e-03,1.473811582e-03,1.198200391e-04,1.593631621e-03,1.921597667e-03,-1.427228694e-04,1.778874797e-03,1.681764306e-03,1.600923630e-04,1.841856669e-03,1.703708388e-03,-2.536251759e-05,1.678345871e-03,1.142215042e-03,1.454637352e-04,1.287678777e-03,7.890966242e-04,1.464008918e-04,9.354975160e-04,7.134366589e-04,1.833682748e-04,8.968049336e-04,1.078906087e-03,7.911598187e-05,1.158022069e-03,1.204987438e-03,3.762451815e-05,1.242611956e-03,1.865997353e-03,-4.799249157e-05,1.818004861e-03,1.807697704e-03,1.088541414e-04,1.916551846e-03,1.151536786e-03,-1.714968975e-05,1.134387096e-03,1.526317038e-03,4.311508218e-05,1.569432120e-03,1.446610136e-03,-6.930903343e-05,1.377301103e-03,1.097701562e-03,1.260205413e-04,1.223722103e-03,9.372715657e-04,1.571725079e-04,1.094444074e-03,6.360871862e-04,5.817675571e-05,6.942639419e-04,2.986497847e-04,5.275745811e-05,3.514072428e-04,1.437253280e-03,1.008233746e-04,1.538076655e-03,9.692915829e-04,9.318423565e-05,1.062475819e-03,1.165911703e-03,6.703119132e-04,1.836223616e-03,1.257288804e-03,3.616178574e-05,1.293450589e-03,1.393843447e-03,1.000135125e-04,1.493856960e-03,1.900859000e-03,1.375357764e-04,2.038394776e-03,1.879760231e-03,1.454100529e-04,2.025170284e-03,2.023953530e-03,5.622927357e-05,2.080182803e-03,1.887168883e-03,3.641816579e-04,2.251350541e-03,1.787820022e-03,1.349016129e-04,1.922721635e-03,2.110757176e-03,2.765763199e-04,2.387333496e-03,2.147787299e-03,4.273614166e-05,2.190523440e-03
-4.2,4.149680899e-04,-1.121432759e-04,3.028248140e-04,1.158309763e-03,8.292727385e-05,1.241237037e-03,8.322355470e-04,2.402917006e-05,8.562647171e-04,1.791528984e-03,1.735376646e-04,1.965066649e-03,9.423513885e-04,4.536141952e-05,9.877128080e-04,1.779662585e-03,6.688547811e-05,1.846548063e-03,1.579740223e-03,1.164387536e-04,1.696178976e-03,1.979521836e-03,-1.539590766e-04,1.825562759e-03,1.801877683e-03,1.526131118e-04,1.954490795e-03,1.743988185e-03,-4.082774181e-05,1.703160443e-03,1.217477470e-03,1.422324954e-04,1.359709966e-03,8.405085623e-04,1.367379085e-04,9.772464709e-04,7.462079868e-04,1.838722623e-04,9.300802491e-04,1.150115308e-03,7.338276161e-05,1.223498070e-03,1.283874167e-03,2.579363784e-05,1.309667805e-03,1.933033461e-03,-5.106873414e-05,1.881964727e-03,1.875950390e-03,1.028849857e-04,1.978835376e-03,1.228368997e-03,-1.639130454e-05,1.211977693e-03,1.587983650e-03,4.220125229e-05,1.630184902e-03,1.471101170e-03,-7.489253468e-05,1.396208636e-03,1.168635807e-03,1.303404155e-04,1.298976222e-03,1.039671453e-03,1.650066495e-04,1.204678102e-03,6.818198968e-04,5.728298860e-05,7.391028854e-04,3.593406397e-04,5.742328918e-05,4.167639288e-04,1.518124219e-03,9.064020249e-05,1.608764421e-03,1.042664623e-03,7.218296946e-05,1.114847592e-03,1.299813337e-03,6.366278059e-04,1.936441143e-03,1.355402688e-03,3.662996017e-05,1.392032648e-03,1.427577184e-03,1.096992223e-04,1.537276406e-03,1.994720466e-03,1.383029804e-04,2.133023446e-03,1.935123573e-03,1.476659448e-04,2.082789518e-03,2.108232351e-03,5.207814349e-05,2.160310494e-03,1.936336188e-03,3.692654528e-04,2.305601641e-03,1.838759918e-03,1.360315139e-04,1.974791432e-03,2.175974004e-03,2.727063523e-04,2.448680357e-03,2.200977391e-03,5.229799362e-05,2.253275384e-03
-4.1,4.542306361e-04,-1.190448967e-04,3.351857394e-04,1.254065425e-03,8.697846011e-05,1.341043885e-03,9.273152579e-04,2.760024761e-05,9.549155055e-04,1.930398671e-03,1.820957128e-04,2.112494384e-03,1.022110083e-03,4.475454313e-05,1.066864626e-03,1.873676375e-03,6.763208789e-05,1.941308463e-03,1.679782213e-03,1.125847728e-04,1.792366986e-03,2.028388953e-03,-1.640829697e-04,1.864305983e-03,1.916192539e-03,1.445837230e-04,2.060776262e-03,1.777689395e-03,-5.630728643e-05,1.721382109e-03,1.288664251e-03,1.385444481e-04,1.427208699e-03,8.879216189e-04,1.263037918e-04,1.014225411e-03,7.758454803e-04,1.834626128e-04,9.593080931e-04,1.216891101e-03,6.738430535e-05,1.284275406e-03,1.356329413e-03,1.479482015e-05,1.371124233e-03,1.990640023e-03,-5.351355012e-05,1.937126473e-03,1.936594874e-03,9.634811689e-05,2.032942991e-03,1.300453892e-03,-1.537396980e-05,1.285079923e-03,1.643007916e-03,4.087683539e-05,1.683884751e-03,1.489278848e-03,-8.015388727e-05,1.409124961e-03,1.235390370e-03,1.342522589e-04,1.369642629e-03,1.138330668e-03,1.724086292e-04,1.310739297e-03,7.255077221e-04,5.630965918e-05,7.818173813e-04,4.191047224e-04,6.191642463e-05,4.810211470e-04,1.593461480e-03,7.977013693e-05,1.673231617e-03,1.111791975e-03,5.085076398e-05,1.162642739e-03,1.425114469e-03,6.015201586e-04,2.026634627e-03,1.447944018e-03,3.735031100e-05,1.485294329e-03,1.455787362e-03,1.188816706e-04,1.574669032e-03,2.080423681e-03,1.385387057e-04,2.218962387e-03,1.982480163e-03,1.493479754e-04,2.131828138e-03,2.183929691e-03,4.800618398e-05,2.231935875e-03,1.977873484e-03,3.718661420e-04,2.349739626e-03,1.882433780e-03,1.363130176e-04,2.018746798e-03,2.231669080e-03,2.684496155e-04,2.500118695e-03,2.244786605e-03,6.264681990e-05,2.307433425e-03
-4,4.916971688e-04,-1.257128954e-04,3.659842734e-04,1.345642972e-03,9.073298060e-05,1.436375953e-03,1.019466972e-03,3.123015386e-05,1.050697126e-03,2.063308091e-03,1.902597527e-04,2.253567844e-03,1.097976646e-03,4.414227284e-05,1.142118918e-03,1.960411606e-03,6.809500032e-05,2.028506606e-03,1.773599093e-03,1.082529208e-04,1.881852014e-03,2.068052113e-03,-1.730778700e-04,1.894974242e-03,2.024401646e-03,1.360069500e-04,2.160408596e-03,1.804681092e-03,-7.176123457e-05,1.732919857e-03,1.355523402e-03,1.344126337e-04,1.489936036e-03,9.311736774e-04,1.150522517e-04,1.046225929e-03,8.021830499e-04,1.821707614e-04,9.843538112e-04,1.278987496e-03,6.114433000e-05,1.340131826e-03,1.421991966e-03,4.711754931e-06,1.426703721e-03,2.038487248e-03,-5.532245943e-05,1.983164788e-03,1.989242240e-03,8.925685591e-05,2.078499096e-03,1.367464659e-03,-1.406752447e-05,1.353397134e-03,1.691089218e-03,3.910002820e-05,1.730189246e-03,1.500984190e-03,-8.508346096e-05,1.415900729e-03,1.297660770e-03,1.377406615e-04,1.435401431e-03,1.232872259e-03,1.793410289e-04,1.412213288e-03,7.670957784e-04,5.528569522e-05,8.223814736e-04,4.778257034e-04,6.623926826e-05,5.440649716e-04,1.662986636e-03,6.824440765e-05,1.731231043e-03,1.176320709e-03,2.934623589e-05,1.205666945e-03,1.540721639e-03,5.655595879e-04,2.106281227e-03,1.534426374e-03,3.824246126e-05,1.572668835e-03,1.478363281e-03,1.274879217e-04,1.605851203e-03,2.157594012e-03,1.382094610e-04,2.295803473e-03,2.021618254e-03,1.504323308e-04,2.172050585e-03,2.250654960e-03,4.405796155e-05,2.294712922e-03,2.011575869e-03,3.719262487e-04,2.383502118e-03,1.918669438e-03,1.357404016e-04,2.054409839e-03,2.277937770e-03,2.636129387e-04,2.541550709e-03,2.279214935e-03,7.363857070e-05,2.352853506e-03
-3.9,5.272117957e-04,-1.321336558e-04,3.950781399e-04,1.432759597e-03,9.417138222e-05,1.526930979e-03,1.108425660e-03,3.490395368e-05,1.143329614e-03,2.189879141e-03,1.980013081e-04,2.387880450e-03,1.169689155e-03,4.353413153e-05,1.213223287e-03,2.039580879e-03,6.826753920e-05,2.107848418e-03,1.860890942e-03,1.034400865e-04,1.964331029e-03,2.098430627e-03,-1.809434645e-04,1.917487163e-03,2.126234439e-03,1.268875224e-04,2.253121961e-03,1.824870242e-03,-8.714787230e-05,1.737722370e-03,1.417831199e-03,1.298518040e-04,1.547683003e-03,9.701368665e-04,1.029541694e-04,1.073091036e-03,8.250660047e-04,1.800450238e-04,1.005111029e-03,1.336196844e-03,5.468253413e-05,1.390879378e-03,1.480576727e-03,-4.410561765e-06,1.476166165e-03,2.076336059e-03,-5.650765303e-05,2.019828406e-03,2.033536179e-03,8.163267635e-05,2.115168856e-03,1.429102969e-03,-1.244582300e-05,1.416657146e-03,1.731963084e-03,3.683717354e-05,1.768800258e-03,1.506099002e-03,-8.967316729e-05,1.416425835e-03,1.355169678e-03,1.407920704e-04,1.495961749e-03,1.322946768e-03,1.857682126e-04,1.508714980e-03,8.065372255e-04,5.423745925e-05,8.607746847e-04,5.353969765e-04,7.039371999e-05,6.057906965e-04,1.726452702e-03,5.609742590e-05,1.782550128e-03,1.235936265e-03,7.820874338e-06,1.243757139e-03,1.645636009e-03,5.293553092e-04,2.174991318e-03,1.614415362e-03,3.920537378e-05,1.653620736e-03,1.495228326e-03,1.354442813e-04,1.630672607e-03,2.225911160e-03,1.372817887e-04,2.363192949e-03,2.052376467e-03,1.508966344e-04,2.203273101e-03,2.308084586e-03,4.026244235e-05,2.348347028e-03,2.037282736e-03,3.694134826e-04,2.406696219e-03,1.947334370e-03,1.343171884e-04,2.081651559e-03,2.314971315e-03,2.579648481e-04,2.572936163e-03,2.304334264e-03,8.511009497e-05,2.389444359e-03
-3.8,5.606370075e-04,-1.382941354e-04,4.223428721e-04,1.515161401e-03,9.727530746e-05,1.612436709e-03,1.193953466e-03,3.860498101e-05,1.232558447e-03,2.309773931e-03,2.052919860e-04,2.515065917e-03,1.237016813e-03,4.293873952e-05,1.279955552e-03,2.110946506e-03,6.814358266e-05,2.179090088e-03,1.941400625e-03,9.814534450e-05,2.039545970e-03,2.119512184e-03,-1.876948039e-04,1.931817380e-03,2.221461386e-03,1.172322125e-04,2.338693599e-03,1.838205366e-03,-1.024240575e-04,1.735781309e-03,1.475396075e-03,1.248785650e-04,1.600274640e-03,1.004718629e-03,8.999991624e-05,1.094718546e-03,8.443565564e-04,1.771453500e-04,1.021501906e-03,1.388353031e-03,4.801430043e-05,1.436367332e-03,1.531880386e-03,-1.256317605e-05,1.519317210e-03,2.104042887e-03,-5.709990850e-05,2.046942979e-03,2.069158239e-03,7.350674146e-05,2.142664981e-03,1.485103245e-03,-1.048729853e-05,1.474615946e-03,1.765404796e-03,3.406373014e-05,1.799468526e-03,1.504549388e-03,-9.391684812e-05,1.410632540e-03,1.407670884e-03,1.433950623e-04,1.551065946e-03,1.408236401e-03,1.916565783e-04,1.599892979e-03,8.437946583e-04,5.318853480e-05,8.969831932e-04,5.917230469e-04,7.438087597e-05,6.661039229e-04,1.783647057e-03,4.336740080e-05,1.827014458e-03,1.290364140e-03,-1.357967461e-05,1.276784466e-03,1.738970065e-03,4.935406242e-04,2.232510689e-03,1.687533313e-03,4.012334089e-05,1.727656654e-03,1.506343665e-03,1.426759006e-04,1.649019566e-03,2.285115614e-03,1.357221645e-04,2.420837778e-03,2.074646169e-03,1.507211670e-04,2.225367336e-03,2.355968156e-03,3.663169281e-05,2.392599849e-03,2.054883430e-03,3.643223065e-04,2.419205737e-03,1.968340698e-03,1.320560134e-04,2.100396711e-03,2.343054081e-03,2.512425715e-04,2.594296652e-03,2.320289352e-03,9.688250797e-05,2.417171860e-03
-3.7,5.918563605e-04,-1.441822144e-04,4.476741461e-04,1.592626730e-03,1.000276330e-04,1.692654363e-03,1.275843241e-03,4.231508602e-05,1.318158327e-03,2.422699751e-03,2.121038910e-04,2.634803642e-03,1.299764094e-03,4.236387754e-05,1.342127972e-03,2.174323384e-03,6.771850288e-05,2.242041887e-03,2.014918189e-03,9.237009692e-05,2.107288286e-03,2.131355916e-03,-1.933624107e-04,1.937993505e-03,2.309898211e-03,1.070498201e-04,2.416948031e-03,1.844680447e-03,-1.175458127e-04,1.727134634e-03,1.528062351e-03,1.195114188e-04,1.647573770e-03,1.034862809e-03,7.620002651e-05,1.111062836e-03,8.599413768e-04,1.735388091e-04,1.033480186e-03,1.435334245e-03,4.115050844e-05,1.476484753e-03,1.575786309e-03,-1.976984421e-05,1.556016464e-03,2.121562523e-03,-5.714883072e-05,2.064413693e-03,2.095835145e-03,6.492074421e-05,2.160755889e-03,1.535237348e-03,-8.174873836e-06,1.527062474e-03,1.791234255e-03,3.076500221e-05,1.821999258e-03,1.496309125e-03,-9.781092701e-05,1.398498198e-03,1.454953305e-03,1.455405002e-04,1.600493806e-03,1.488459209e-03,1.969749813e-04,1.685434191e-03,8.788414692e-04,5.215959127e-05,9.310010604e-04,6.467209837e-04,7.820101092e-05,7.249219946e-04,1.834395846e-03,3.009660374e-05,1.864492450e-03,1.339372385e-03,-3.471410204e-05,1.304658283e-03,1.819965162e-03,4.587539334e-04,2.278719095e-03,1.753465478e-03,4.087200832e-05,1.794337486e-03,1.511710944e-03,1.491070116e-04,1.660817955e-03,2.335013750e-03,1.334973800e-04,2.468511130e-03,2.088373760e-03,1.498895297e-04,2.238263289e-03,2.394131566e-03,3.316176978e-05,2.427293336e-03,2.064323007e-03,3.566753526e-04,2.420998359e-03,1.981650635e-03,1.289784049e-04,2.110629040e-03,2.362556735e-03,2.431641611e-04,2.605720896e-03,2.327297488e-03,1.087651147e-04,2.436062602e-03
-3.6,6.207765737e-04,-1.497869973e-04,4.709895764e-04,1.664968934e-03,1.024125805e-04,1.767381515e-03,1.353921043e-03,4.601487003e-05,1.399935914e-03,2.528412942e-03,2.184103624e-04,2.746823305e-03,1.357773608e-03,4.181647761e-05,1.399590085e-03,2.229580648e-03,6.698986038e-05,2.296570508e-03,2.081283747e-03,8.611812934e-05,2.167401877e-03,2.134093984e-03,-1.979928600e-04,1.936101124e-03,2.391408389e-03,9.635110156e-05,2.487759491e-03,1.844337586e-03,-1.324690369e-04,1.711868549e-03,1.575712588e-03,1.137706762e-04,1.689483264e-03,1.060550178e-03,6.158417981e-05,1.122134358e-03,8.717402124e-04,1.692956430e-04,1.041035855e-03,1.477063751e-03,3.409743537e-05,1.511161187e-03,1.612267337e-03,-2.608374958e-05,1.586183588e-03,2.128947938e-03,-5.672156404e-05,2.072226373e-03,2.113345811e-03,5.592706537e-05,2.169272876e-03,1.579318861e-03,-5.495937213e-06,1.573822923e-03,1.809320326e-03,2.693661890e-05,1.836256945e-03,1.481401632e-03,-1.013549828e-04,1.380046650e-03,1.496843967e-03,1.472216157e-04,1.644065583e-03,1.563372214e-03,2.016952801e-04,1.765067494e-03,9.116625012e-04,5.116833356e-05,9.628308348e-04,7.003212578e-04,8.185375973e-05,7.821750176e-04,1.878567975e-03,1.633128973e-05,1.894899265e-03,1.382773394e-03,-5.544396227e-05,1.327329432e-03,1.888009221e-03,4.256169383e-04,2.313626160e-03,1.811965225e-03,4.132416083e-05,1.853289385e-03,1.511372303e-03,1.546616337e-04,1.666033936e-03,2.375479951e-03,1.305753609e-04,2.506055311e-03,2.093561269e-03,1.483886556e-04,2.241949924e-03,2.422476402e-03,2.983511524e-05,2.452311517e-03,2.065606044e-03,3.465240688e-04,2.412130112e-03,1.987279679e-03,1.251142006e-04,2.112393880e-03,2.373922123e-03,2.334453617e-04,2.607367485e-03,2.325643791e-03,1.205597154e-04,2.446203506e-03
-3.5,6.473283899e-04,-1.550990952e-04,4.922292947e-04,1.732037770e-03,1.044157194e-04,1.836453489e-03,1.428046765e-03,4.968385733e-05,1.477730622e-03,2.626720403e-03,2.241868571e-04,2.850907260e-03,1.410926503e-03,4.130256697e-05,1.452229070e-03,2.276641428e-03,6.595760750e-05,2.342599035e-03,2.140387810e-03,7.939553129e-05,2.219783341e-03,2.127929571e-03,-2.016487748e-04,1.926280796e-03,2.465903130e-03,8.514867969e-05,2.551051809e-03,1.837267416e-03,-1.471502089e-04,1.690117207e-03,1.618267886e-03,1.076782990e-04,1.725946185e-03,1.081798119e-03,4.619885425e-05,1.127996973e-03,8.797125466e-04,1.644856107e-04,1.044198157e-03,1.513507952e-03,2.685681213e-05,1.540364764e-03,1.641384173e-03,-3.158334824e-05,1.609800825e-03,2.126346212e-03,-5.590009960e-05,2.070446113e-03,2.121525953e-03,4.658851738e-05,2.168114470e-03,1.617206056e-03,-2.443073363e-06,1.614762982e-03,1.819583114e-03,2.258464598e-05,1.842167760e-03,1.459899810e-03,-1.045520429e-04,1.355347767e-03,1.533209182e-03,1.484340371e-04,1.681643219e-03,1.632772956e-03,2.057926979e-04,1.838565654e-03,9.422537195e-04,5.022949402e-05,9.924832135e-04,7.524675750e-04,8.533832455e-05,8.378058995e-04,1.916076948e-03,2.121467771e-06,1.918198415e-03,1.420423520e-03,-7.563217093e-05,1.344791349e-03,1.942649795e-03,3.947133822e-04,2.337363177e-03,1.862855939e-03,4.135546806e-05,1.904211407e-03,1.505407643e-03,1.592644843e-04,1.664672127e-03,2.406455359e-03,1.269260759e-04,2.533381435e-03,2.090264486e-03,1.462084417e-04,2.236472928e-03,2.440976727e-03,2.662312328e-05,2.467599850e-03,2.058797425e-03,3.339480928e-04,2.392745518e-03,1.985295915e-03,1.205005298e-04,2.105796444e-03,2.377644073e-03,2.218185227e-04,2.599462595e-03,2.315671372e-03,1.320646982e-04,2.447736071e-03
