Time,S1D1HbO,S1D1HbR,S1D1HbT,S2D2HbO,S2D2HbR,S2D2HbT,S3D3HbO,S3D3HbR,S3D3HbT,S4D4HbO,S4D4HbR,S4D4HbT,S5D5HbO,S5D5HbR,S5D5HbT,S6D6HbO,S6D6HbR,S6D6HbT,S7D7HbO,S7D7HbR,S7D7HbT,S8D8HbO,S8D8HbR,S8D8HbT,S9D9HbO,S9D9HbR,S9D9HbT,S10D10HbO,S10D10HbR,S10D10HbT,S11D11HbO,S11D11HbR,S11D11HbT,S12D12HbO,S12D12HbR,S12D12HbT,S13D13HbO,S13D13HbR,S13D13HbT,S14D14HbO,S14D14HbR,S14D14HbT,S15D15HbO,S15D15HbR,S15D15HbT,S16D16HbO,S16D16HbR,S16D16HbT,S17D17HbO,S17D17HbR,S17D17HbT,S18D18HbO,S18D18HbR,S18D18HbT,S19D19HbO,S19D19HbR,S19D19HbT,S20D20HbO,S20D20HbR,S20D20HbT,S21D21HbO,S21D21HbR,S21D21HbT,S22D22HbO,S22D22HbR,S22D22HbT,S23D23HbO,S23D23HbR,S23D23HbT,S24D24HbO,S24D24HbR,S24D24HbT,S25D25HbO,S25D25HbR,S25D25HbT,S26D26HbO,S26D26HbR,S26D26HbT,S27D27HbO,S27D27HbR,S27D27HbT,S28D28HbO,S28D28HbR,S28D28HbT,S29D29HbO,S29D29HbR,S29D29HbT,S30D30HbO,S30D30HbR,S30D30HbT,S31D31HbO,S31D31HbR,S31D31HbT,S32D32HbO,S32D32HbR,S32D32HbT,S33D33HbO,S33D33HbR,S33D33HbT,S34D34HbO,S34D34HbR,S34D34HbT,S35D35HbO,S35D35HbR,S35D35HbT,S36D36HbO,S36D36HbR,S36D36HbT,
-10,-8.980206244e-04,1.339896783e-04,-7.640309461e-04,-2.015123904e-03,1.142086869e-04,-1.900915217e-03,-1.335949182e-03,-1.106293316e-04,-1.446578513e-03,-1.974941001e-03,2.180445807e-05,-1.953136543e-03,-1.669112210e-03,-1.656510597e-04,-1.834763270e-03,-2.176203860e-03,7.333083839e-05,-2.102873022e-03,-1.772146364e-03,-1.417824348e-04,-1.913928799e-03,-1.376700824e-03,9.911522708e-05,-1.277585597e-03,-1.791275439e-03,-6.173032656e-05,-1.853005765e-03,-1.821166780e-03,4.904260497e-05,-1.772124175e-03,-2.202740871e-03,-1.582597291e-04,-2.361000600e-03,-8.828734527e-04,-8.637746433e-05,-9.692509171e-04,-1.206471850e-03,-3.857053204e-05,-1.245042382e-03,-6.177030022e-04,-1.248485494e-04,-7.425515516e-04,-6.865592291e-04,-5.791301688e-05,-7.444722459e-04,-1.111150260e-03,3.119895662e-05,-1.079951303e-03,-2.124654678e-03,-8.381695669e-05,-2.208471634e-03,-1.566009150e-03,-2.474682054e-04,-1.813477355e-03,-1.664545506e-03,-9.269983238e-05,-1.757245339e-03,-1.634966205e-03,9.640944956e-05,-1.538556756e-03,-1.677823985e-03,-1.503936187e-05,-1.692863347e-03,-1.999510934e-03,4.347513813e-05,-1.956035796e-03,-1.286355626e-03,-1.045129879e-04,-1.390868614e-03,-2.071278904e-03,5.378983476e-05,-2.017489070e-03,-1.503985485e-03,3.601780252e-05,-1.467967683e-03,-1.172207957e-03,2.123121650e-05,-1.150976740e-03,-2.273780778e-03,-4.651712737e-05,-2.320297905e-03,-2.448837622e-03,2.853268055e-05,-2.420304941e-03,-1.543362055e-03,-1.729084942e-05,-1.560652905e-03,-2.020626715e-03,8.020138293e-05,-1.940425333e-03,-1.820463356e-03,-5.039472794e-05,-1.870858084e-03,-2.910624470e-03,1.045730731e-05,-2.900167163e-03,-1.491008700e-03,-7.199801413e-05,-1.563006714e-03,-1.512704447e-03,-7.649767611e-05,-1.589202124e-03,-1.760266215e-03,-9.423010022e-05,-1.854496315e-03,-1.628525924e-03,-2.075365449e-04,-1.836062469e-03
-9.9,-8.839122253e-04,1.263843198e-04,-7.575279055e-04,-2.000519758e-03,1.106843372e-04,-1.889835421e-03,-1.325630527e-03,-1.152534297e-04,-1.440883957e-03,-1.972034699e-03,1.677926760e-05,-1.955255431e-03,-1.672834345e-03,-1.645563536e-04,-1.837390699e-03,-2.173090975e-03,7.040541999e-05,-2.102685555e-03,-1.787788147e-03,-1.429654938e-04,-1.930753641e-03,-1.390111940e-03,9.937718763e-05,-1.290734753e-03,-1.799854375e-03,-6.323655960e-05,-1.863090935e-03,-1.819595503e-03,4.911277752e-05,-1.770482725e-03,-2.180204015e-03,-1.535515818e-04,-2.333755597e-03,-8.980917854e-04,-8.968074788e-05,-9.877725333e-04,-1.215493441e-03,-5.266130684e-05,-1.268154748e-03,-6.378976501e-04,-1.262554592e-04,-7.641531094e-04,-7.112154521e-04,-5.777771344e-05,-7.689931656e-04,-1.120970881e-03,2.532142779e-05,-1.095649453e-03,-2.122738010e-03,-9.323314746e-05,-2.215971158e-03,-1.575038211e-03,-2.502644136e-04,-1.825302625e-03,-1.666967235e-03,-9.413277338e-05,-1.761100009e-03,-1.634734388e-03,9.472419430e-05,-1.540010193e-03,-1.667950156e-03,-1.696861294e-05,-1.684918769e-03,-1.988938235e-03,4.089643549e-05,-1.948041799e-03,-1.271345923e-03,-1.042745572e-04,-1.375620480e-03,-2.043832218e-03,4.983500797e-05,-1.993997210e-03,-1.514988695e-03,3.588901297e-05,-1.479099682e-03,-1.184013894e-03,1.974746604e-05,-1.164266428e-03,-2.272263201e-03,-4.850719270e-05,-2.320770393e-03,-2.444833956e-03,2.145579246e-05,-2.423378163e-03,-1.562587794e-03,-1.796538604e-05,-1.580553180e-03,-2.019137679e-03,7.836272986e-05,-1.940774949e-03,-1.847939057e-03,-5.107627617e-05,-1.899015333e-03,-2.899312298e-03,1.196819488e-05,-2.887344103e-03,-1.500682521e-03,-7.341469836e-05,-1.574097219e-03,-1.533909367e-03,-7.732265194e-05,-1.611232019e-03,-1.775306424e-03,-8.676295973e-05,-1.862069384e-03,-1.658774839e-03,-2.056387591e-04,-1.864413598e-03
-9.8,-8.677587135e-04,1.185771608e-04,-7.491815526e-04,-1.983069433e-03,1.070481815e-04,-1.876021251e-03,-1.313047164e-03,-1.197323207e-04,-1.432779485e-03,-1.965410099e-03,1.177485051e-05,-1.953635248e-03,-1.673512522e-03,-1.634391833e-04,-1.836951705e-03,-2.166821569e-03,6.731736680e-05,-2.099504202e-03,-1.800513478e-03,-1.440356503e-04,-1.944549128e-03,-1.401635367e-03,9.948893289e-05,-1.302146434e-03,-1.806150180e-03,-6.485261185e-05,-1.871002792e-03,-1.815323614e-03,4.909387816e-05,-1.766229736e-03,-2.154781051e-03,-1.488410647e-04,-2.303622116e-03,-9.114601814e-04,-9.265483768e-05,-1.004115019e-03,-1.221130695e-03,-6.659781473e-05,-1.287728510e-03,-6.561930042e-04,-1.275735349e-04,-7.837665391e-04,-7.335909490e-04,-5.766133910e-05,-7.912522881e-04,-1.128169907e-03,1.931383454e-05,-1.108856073e-03,-2.116686599e-03,-1.025056288e-04,-2.219192227e-03,-1.581290542e-03,-2.525653551e-04,-1.833855898e-03,-1.666601569e-03,-9.548497051e-05,-1.762086539e-03,-1.632078069e-03,9.290116386e-05,-1.539176905e-03,-1.655375522e-03,-1.895075498e-05,-1.674326277e-03,-1.975881875e-03,3.826702488e-05,-1.937614851e-03,-1.254569724e-03,-1.039864673e-04,-1.358556191e-03,-2.014462941e-03,4.588038564e-05,-1.968582556e-03,-1.523944399e-03,3.567272176e-05,-1.488271678e-03,-1.194719867e-03,1.841915873e-05,-1.176300708e-03,-2.268570698e-03,-5.054290684e-05,-2.319113605e-03,-2.438873816e-03,1.433459270e-05,-2.424539223e-03,-1.578956384e-03,-1.877996208e-05,-1.597736346e-03,-2.014515261e-03,7.639288340e-05,-1.938122377e-03,-1.872129146e-03,-5.137725999e-05,-1.923506406e-03,-2.884472821e-03,1.362289493e-05,-2.870849926e-03,-1.507438727e-03,-7.507236713e-05,-1.582511094e-03,-1.551386682e-03,-7.811985086e-05,-1.629506533e-03,-1.786706157e-03,-7.973034825e-05,-1.866436505e-03,-1.685291412e-03,-2.033129338e-04,-1.888604346e-03
-9.7,-8.496966826e-04,1.105929346e-04,-7.391037480e-04,-1.962872480e-03,1.033122595e-04,-1.859560221e-03,-1.298333284e-03,-1.240585194e-04,-1.422391803e-03,-1.955157685e-03,6.808159891e-06,-1.948349525e-03,-1.671160240e-03,-1.623064664e-04,-1.833466706e-03,-2.157440564e-03,6.407287409e-05,-2.093367690e-03,-1.810289607e-03,-1.449901150e-04,-1.955279722e-03,-1.411229257e-03,9.944336053e-05,-1.311785897e-03,-1.810158612e-03,-6.658348546e-05,-1.876742097e-03,-1.808379500e-03,4.899022011e-05,-1.759389280e-03,-2.126550795e-03,-1.441371376e-04,-2.270687933e-03,-9.230209639e-04,-9.526862042e-05,-1.018289584e-03,-1.223539720e-03,-8.030696314e-05,-1.303846683e-03,-6.726415495e-04,-1.287962770e-04,-8.014378266e-04,-7.537159454e-04,-5.757074567e-05,-8.112866911e-04,-1.132837768e-03,1.321320464e-05,-1.119624564e-03,-2.106635575e-03,-1.115741912e-04,-2.218209767e-03,-1.584800907e-03,-2.543636360e-04,-1.839164543e-03,-1.663518146e-03,-9.675741169e-05,-1.760275558e-03,-1.627011847e-03,9.094073558e-05,-1.536071111e-03,-1.640169318e-03,-2.096590134e-05,-1.661135219e-03,-1.960389661e-03,3.559702638e-05,-1.924792635e-03,-1.236146838e-03,-1.036479778e-04,-1.339794816e-03,-1.983296347e-03,4.192602142e-05,-1.941370326e-03,-1.530801898e-03,3.534272384e-05,-1.495459175e-03,-1.204349877e-03,1.724545682e-05,-1.187104420e-03,-2.262681073e-03,-5.261841154e-05,-2.315299485e-03,-2.431003497e-03,7.207404481e-06,-2.423796092e-03,-1.592494958e-03,-1.970689375e-05,-1.612201852e-03,-2.006810779e-03,7.428159340e-05,-1.932529186e-03,-1.892995084e-03,-5.133511302e-05,-1.944330197e-03,-2.866225287e-03,1.539848746e-05,-2.850826799e-03,-1.511335452e-03,-7.692832253e-05,-1.588263775e-03,-1.565185217e-03,-7.888027242e-05,-1.644065490e-03,-1.794395812e-03,-7.323718308e-05,-1.867632995e-03,-1.708077737e-03,-2.005875916e-04,-1.908665328e-03
-9.6,-8.298674538e-04,1.024605470e-04,-7.274069068e-04,-1.940034621e-03,9.948956963e-05,-1.840545051e-03,-1.281623856e-03,-1.282235764e-04,-1.409847433e-03,-1.941381024e-03,1.896763910e-06,-1.939484260e-03,-1.665802507e-03,-1.611638656e-04,-1.826966372e-03,-2.144999646e-03,6.068019239e-05,-2.084319453e-03,-1.817093894e-03,-1.458254985e-04,-1.962919393e-03,-1.418857261e-03,9.923413884e-05,-1.319623122e-03,-1.811881355e-03,-6.843275787e-05,-1.880314113e-03,-1.798797471e-03,4.880678670e-05,-1.749990684e-03,-2.095601133e-03,-1.394476916e-04,-2.235048825e-03,-9.328087885e-04,-9.749602572e-05,-1.030304814e-03,-1.222890666e-03,-9.372254642e-05,-1.316613212e-03,-6.872976708e-04,-1.299159342e-04,-8.172136049e-04,-7.716275278e-04,-5.751092408e-05,-8.291384519e-04,-1.135075685e-03,7.057858257e-06,-1.128017827e-03,-2.092727742e-03,-1.203934501e-04,-2.213121193e-03,-1.585610693e-03,-2.556597441e-04,-1.841270437e-03,-1.657792507e-03,-9.794984779e-05,-1.755742355e-03,-1.619556603e-03,8.884379645e-05,-1.530712806e-03,-1.622405485e-03,-2.299273571e-05,-1.645398221e-03,-1.942515828e-03,3.289704994e-05,-1.909618779e-03,-1.216199311e-03,-1.032576634e-04,-1.319456975e-03,-1.950459492e-03,3.797172878e-05,-1.912487763e-03,-1.535519723e-03,3.487574689e-05,-1.500643976e-03,-1.212927219e-03,1.622535109e-05,-1.196701868e-03,-2.254579375e-03,-5.472434805e-05,-2.309303723e-03,-2.421271362e-03,1.135485897e-07,-2.421157814e-03,-1.603237916e-03,-2.071598849e-05,-1.623953905e-03,-1.996090310e-03,7.202014295e-05,-1.924070167e-03,-1.910507589e-03,-5.098922743e-05,-1.961496816e-03,-2.844697296e-03,1.726881099e-05,-2.827428485e-03,-1.512438993e-03,-7.893697437e-05,-1.591375967e-03,-1.575373209e-03,-7.959032290e-05,-1.654963532e-03,-1.798328669e-03,-6.738490203e-05,-1.865713571e-03,-1.727143302e-03,-1.974973161e-04,-1.924640618e-03
-9.5,-8.084144203e-04,9.421291924e-05,-7.142015011e-04,-1.914664875e-03,9.559402594e-05,-1.819070849e-03,-1.263051849e-03,-1.322180059e-04,-1.395269855e-03,-1.924192896e-03,-2.941302894e-06,-1.927134198e-03,-1.657474025e-03,-1.600156121e-04,-1.817489637e-03,-2.129554365e-03,5.714954550e-05,-2.072404820e-03,-1.820912405e-03,-1.465377606e-04,-1.967450165e-03,-1.424487535e-03,9.885576607e-05,-1.325631769e-03,-1.811324433e-03,-7.040243143e-05,-1.881726865e-03,-1.786615944e-03,4.854902589e-05,-1.738066918e-03,-2.062026980e-03,-1.347795296e-04,-2.196806510e-03,-9.408480252e-04,-9.931623961e-05,-1.040164265e-03,-1.219361645e-03,-1.067836247e-04,-1.326145270e-03,-7.002148040e-04,-1.309236866e-04,-8.311384906e-04,-7.873666378e-04,-5.748508165e-05,-8.448517195e-04,-1.134991446e-03,8.870006326e-07,-1.134104446e-03,-2.075108572e-03,-1.289333150e-04,-2.204041887e-03,-1.583765664e-03,-2.564618498e-04,-1.840227514e-03,-1.649503393e-03,-9.906106324e-05,-1.748564456e-03,-1.609737926e-03,8.661174894e-05,-1.523126177e-03,-1.602160761e-03,-2.500897937e-05,-1.627169740e-03,-1.922319828e-03,3.017804685e-05,-1.892141782e-03,-1.194849574e-03,-1.028134306e-04,-1.297663005e-03,-1.916079795e-03,3.401732476e-05,-1.882062470e-03,-1.538064791e-03,3.425190367e-05,-1.503812888e-03,-1.220472153e-03,1.535760907e-05,-1.205114544e-03,-2.244256575e-03,-5.684712051e-05,-2.301103695e-03,-2.409724104e-03,-6.907673111e-06,-2.416631777e-03,-1.611224515e-03,-2.177631862e-05,-1.633000833e-03,-1.982432948e-03,6.960231257e-05,-1.912830636e-03,-1.924645443e-03,-5.038022585e-05,-1.975025669e-03,-2.820022019e-03,1.920614121e-05,-2.800815877e-03,-1.510820160e-03,-8.105141498e-05,-1.591871575e-03,-1.582035717e-03,-8.023182585e-05,-1.662267543e-03,-1.798482317e-03,-6.226734125e-05,-1.860749659e-03,-1.742502704e-03,-1.940824996e-04,-1.936585203e-03
-9.4,-7.854810501e-04,8.588667765e-05,-6.995943725e-04,-1.886873684e-03,9.164028782e-05,-1.795233396e-03,-1.242746194e-03,-1.360313246e-04,-1.378777519e-03,-1.903712755e-03,-7.687728252e-06,-1.911400483e-03,-1.646218173e-03,-1.588644573e-04,-1.805082630e-03,-2.111162812e-03,5.349294611e-05,-2.057669866e-03,-1.821739113e-03,-1.471221871e-04,-1.968861300e-03,-1.428092340e-03,9.830363154e-05,-1.329788709e-03,-1.808497525e-03,-7.249272812e-05,-1.880990253e-03,-1.771876650e-03,4.822270872e-05,-1.723653941e-03,-2.025929312e-03,-1.301383749e-04,-2.156067687e-03,-9.471524461e-04,-1.007143625e-04,-1.047866809e-03,-1.213136006e-03,-1.194323845e-04,-1.332568390e-03,-7.114447966e-04,-1.318098316e-04,-8.432546281e-04,-8.009771290e-04,-5.749477329e-05,-8.584719023e-04,-1.132697001e-03,-5.259725960e-06,-1.137956727e-03,-2.053924224e-03,-1.371777242e-04,-2.191101949e-03,-1.579314716e-03,-2.567852630e-04,-1.836099979e-03,-1.638730985e-03,-1.000891784e-04,-1.738820164e-03,-1.597585481e-03,8.424660951e-05,-1.513338871e-03,-1.579513641e-03,-2.699177592e-05,-1.606505417e-03,-1.899865630e-03,2.745118550e-05,-1.872414445e-03,-1.172219153e-03,-1.023125452e-04,-1.274531698e-03,-1.880284355e-03,3.006290951e-05,-1.850221445e-03,-1.538412327e-03,3.345497348e-05,-1.504957354e-03,-1.227000790e-03,1.464071874e-05,-1.212360071e-03,-2.231708768e-03,-5.896896342e-05,-2.290677731e-03,-2.396404524e-03,-1.381798773e-05,-2.410222512e-03,-1.616498310e-03,-2.285781018e-05,-1.639356120e-03,-1.965929953e-03,6.702516713e-05,-1.898904785e-03,-1.935396076e-03,-4.954926834e-05,-1.984945344e-03,-2.792336065e-03,2.118253831e-05,-2.771153526e-03,-1.506552015e-03,-8.322514144e-05,-1.589777157e-03,-1.585272741e-03,-8.078252913e-05,-1.666055270e-03,-1.794860102e-03,-5.796705580e-05,-1.852827158e-03,-1.754174592e-03,-1.903886764e-04,-1.944563269e-03
-9.3,-7.612097280e-04,7.752163876e-05,-6.836880892e-04,-1.856772188e-03,8.764347239e-05,-1.769128716e-03,-1.220830617e-03,-1.396521714e-04,-1.360482788e-03,-1.880065680e-03,-1.232419267e-05,-1.892389872e-03,-1.632086838e-03,-1.577116935e-04,-1.789798532e-03,-2.089885737e-03,4.972398892e-05,-2.040161748e-03,-1.819575793e-03,-1.475733679e-04,-1.967149160e-03,-1.429648275e-03,9.757410114e-05,-1.332074174e-03,-1.803414011e-03,-7.470184827e-05,-1.878115859e-03,-1.754624760e-03,4.783385959e-05,-1.706790900e-03,-1.987415066e-03,-1.255288756e-04,-2.112943942e-03,-9.517266762e-04,-1.016823939e-04,-1.053409070e-03,-1.204403065e-03,-1.316118117e-04,-1.336014877e-03,-7.210388140e-04,-1.325639548e-04,-8.536027688e-04,-8.125062918e-04,-5.754009020e-05,-8.700463820e-04,-1.128307744e-03,-1.134277516e-05,-1.139650519e-03,-2.029322829e-03,-1.451218477e-04,-2.174444677e-03,-1.572309603e-03,-2.566517870e-04,-1.828961390e-03,-1.625556240e-03,-1.010320200e-04,-1.726588260e-03,-1.583133081e-03,8.175107701e-05,-1.501382004e-03,-1.554544131e-03,-2.891811038e-05,-1.583462241e-03,-1.875221365e-03,2.472767195e-05,-1.850493693e-03,-1.148427757e-03,-1.017516977e-04,-1.250179455e-03,-1.843199769e-03,2.610908301e-05,-1.817090686e-03,-1.536546559e-03,3.247252636e-05,-1.504074033e-03,-1.232525105e-03,1.407282326e-05,-1.218452282e-03,-2.216937089e-03,-6.106869159e-05,-2.278005781e-03,-2.381350884e-03,-2.058103972e-05,-2.401931924e-03,-1.619107827e-03,-2.393251219e-05,-1.643040339e-03,-1.946684231e-03,6.428954205e-05,-1.882394689e-03,-1.942757332e-03,-4.853732614e-05,-1.991294658e-03,-2.761777770e-03,2.317062561e-05,-2.738607145e-03,-1.499708951e-03,-8.541391802e-05,-1.585122869e-03,-1.585197940e-03,-8.121703197e-05,-1.666414972e-03,-1.787491671e-03,-5.455281784e-05,-1.842044489e-03,-1.762181734e-03,-1.864655531e-04,-1.948647287e-03
-9.2,-7.357411898e-04,6.916013844e-05,-6.665810513e-04,-1.824472177e-03,8.361884243e-05,-1.740853334e-03,-1.197423063e-03,-1.430684295e-04,-1.340491493e-03,-1.853382081e-03,-1.683271247e-05,-1.870214794e-03,-1.615140591e-03,-1.565571551e-04,-1.771697746e-03,-2.065787142e-03,4.585765244e-05,-2.019929489e-03,-1.814432251e-03,-1.478851854e-04,-1.962317437e-03,-1.429136826e-03,9.666461310e-05,-1.332472213e-03,-1.796091134e-03,-7.702577508e-05,-1.873116909e-03,-1.734909276e-03,4.738869774e-05,-1.687520579e-03,-1.946597114e-03,-1.209546309e-04,-2.067551745e-03,-9.545682992e-04,-1.022201458e-04,-1.056788445e-03,-1.193360141e-03,-1.432635730e-04,-1.336623714e-03,-7.290481982e-04,-1.331751462e-04,-8.622233444e-04,-8.220053124e-04,-5.761993640e-05,-8.796252488e-04,-1.121942461e-03,-1.732321649e-05,-1.139265677e-03,-2.001457693e-03,-1.527681800e-04,-2.154225873e-03,-1.562805105e-03,-2.560890681e-04,-1.818894173e-03,-1.610060967e-03,-1.018874606e-04,-1.711948428e-03,-1.566418862e-03,7.912850386e-05,-1.487290358e-03,-1.527333842e-03,-3.076533403e-05,-1.558099177e-03,-1.848458981e-03,2.201849974e-05,-1.826440481e-03,-1.123592406e-03,-1.011270838e-04,-1.224719490e-03,-1.804951888e-03,2.215704851e-05,-1.782794840e-03,-1.532461615e-03,3.129593199e-05,-1.501165683e-03,-1.237053372e-03,1.365165113e-05,-1.223401721e-03,-2.199947837e-03,-6.312285551e-05,-2.263070692e-03,-2.364597104e-03,-2.716304815e-05,-2.391760152e-03,-1.619107272e-03,-2.497543976e-05,-1.644082711e-03,-1.924809492e-03,6.140041243e-05,-1.863409080e-03,-1.946738967e-03,-4.738444138e-05,-1.994123408e-03,-2.728485308e-03,2.514378890e-05,-2.703341519e-03,-1.490366224e-03,-8.757768536e-05,-1.577943910e-03,-1.581937227e-03,-8.150794168e-05,-1.663445168e-03,-1.776432293e-03,-5.207808121e-05,-1.828510374e-03,-1.766551498e-03,-1.823659199e-04,-1.948917418e-03
-9.1,-7.092140581e-04,6.084631579e-05,-6.483677423e-04,-1.790085936e-03,7.958157447e-05,-1.710504362e-03,-1.172635259e-03,-1.462673225e-04,-1.318902582e-03,-1.823797067e-03,-2.119602206e-05,-1.844993089e-03,-1.595448500e-03,-1.553991712e-04,-1.750847671e-03,-2.038934162e-03,4.191010084e-05,-1.997024062e-03,-1.806326391e-03,-1.480508549e-04,-1.954377246e-03,-1.426544722e-03,9.557371611e-05,-1.330971006e-03,-1.786549580e-03,-7.945819329e-05,-1.866007773e-03,-1.712782915e-03,4.689352486e-05,-1.665889391e-03,-1.903593479e-03,-1.164182712e-04,-2.020011750e-03,-9.556693691e-04,-1.023357609e-04,-1.058005130e-03,-1.180212491e-03,-1.543264611e-04,-1.334538952e-03,-7.355237626e-04,-1.336323092e-04,-8.691560718e-04,-8.295281836e-04,-5.773239512e-05,-8.872605788e-04,-1.113722547e-03,-2.316314594e-05,-1.136885693e-03,-1.970490321e-03,-1.601219886e-04,-2.130612310e-03,-1.550858900e-03,-2.551298523e-04,-1.805988753e-03,-1.592327922e-03,-1.026535850e-04,-1.694981507e-03,-1.547485029e-03,7.638286060e-05,-1.471102168e-03,-1.497965993e-03,-3.251170049e-05,-1.530477694e-03,-1.819653646e-03,1.933422515e-05,-1.800319421e-03,-1.097826246e-03,-1.004344608e-04,-1.198260707e-03,-1.765665051e-03,1.820865651e-05,-1.747456394e-03,-1.526161764e-03,2.992028979e-05,-1.496241474e-03,-1.240590118e-03,1.337443005e-05,-1.227215688e-03,-2.180751929e-03,-6.510715527e-05,-2.245859084e-03,-2.346172761e-03,-3.353322068e-05,-2.379705981e-03,-1.616556224e-03,-2.596495806e-05,-1.642521182e-03,-1.900428592e-03,5.836739342e-05,-1.842061199e-03,-1.947362462e-03,-4.612904223e-05,-1.993491504e-03,-2.692594093e-03,2.707593941e-05,-2.665518154e-03,-1.478598802e-03,-8.968228228e-05,-1.568281085e-03,-1.575626406e-03,-8.162707470e-05,-1.657253481e-03,-1.761761323e-03,-5.057968277e-05,-1.812341006e-03,-1.767315964e-03,-1.781445308e-04,-1.945460495e-03
-9,-6.817640409e-04,5.262541011e-05,-6.291386308e-04,-1.753725377e-03,7.554661702e-05,-1.678178760e-03,-1.146572074e-03,-1.492355223e-04,-1.295807596e-03,-1.791448744e-03,-2.539793225e-05,-1.816846676e-03,-1.573087192e-03,-1.542345237e-04,-1.727321715e-03,-2.009395730e-03,3.789846635e-05,-1.971497263e-03,-1.795283724e-03,-1.480630329e-04,-1.943346756e-03,-1.421863753e-03,9.430099544e-05,-1.327562758e-03,-1.774812296e-03,-8.199050991e-05,-1.856802806e-03,-1.688301201e-03,4.635456114e-05,-1.641946640e-03,-1.858525596e-03,-1.119215810e-04,-1.970447177e-03,-9.550166553e-04,-1.020458346e-04,-1.057062490e-03,-1.165169549e-03,-1.647354720e-04,-1.329905021e-03,-7.405133228e-04,-1.339245333e-04,-8.744378561e-04,-8.351287834e-04,-5.787514771e-05,-8.930039311e-04,-1.103769692e-03,-2.882605398e-05,-1.132595746e-03,-1.936591594e-03,-1.671866578e-04,-2.103778252e-03,-1.536530618e-03,-2.538110085e-04,-1.790341627e-03,-1.572440275e-03,-1.033286561e-04,-1.675768931e-03,-1.526377054e-03,7.351879544e-05,-1.452858258e-03,-1.466525183e-03,-3.413678830e-05,-1.500661971e-03,-1.788882908e-03,1.668484921e-05,-1.772198059e-03,-1.071237062e-03,-9.966918470e-05,-1.170906246e-03,-1.725460774e-03,1.426646503e-05,-1.711194309e-03,-1.517660528e-03,2.834429791e-05,-1.489316230e-03,-1.243135121e-03,1.323774197e-05,-1.229897380e-03,-2.159363320e-03,-6.699798103e-05,-2.226361302e-03,-2.326102165e-03,-3.966399822e-05,-2.365766163e-03,-1.611518214e-03,-2.688283692e-05,-1.638401051e-03,-1.873671073e-03,5.520531525e-05,-1.818465758e-03,-1.944659022e-03,-4.480730791e-05,-1.989466330e-03,-2.654233563e-03,2.894101032e-05,-2.625292553e-03,-1.464479111e-03,-9.170078701e-05,-1.556179898e-03,-1.566407652e-03,-8.154659711e-05,-1.647954250e-03,-1.743580253e-03,-5.007644144e-05,-1.793656695e-03,-1.764511406e-03,-1.738569078e-04,-1.938368314e-03
-8.9,-6.535227692e-04,4.454305481e-05,-6.089797144e-04,-1.715500559e-03,7.152854893e-05,-1.643972010e-03,-1.119330796e-03,-1.519593160e-04,-1.271290112e-03,-1.756475814e-03,-2.942358919e-05,-1.785899404e-03,-1.548139374e-03,-1.530584923e-04,-1.701197867e-03,-1.977240695e-03,3.384059405e-05,-1.943400101e-03,-1.781336472e-03,-1.479139589e-04,-1.929250431e-03,-1.415090198e-03,9.284693511e-05,-1.322243263e-03,-1.760903054e-03,-8.461189830e-05,-1.845514953e-03,-1.661521266e-03,4.577778654e-05,-1.615743480e-03,-1.811516262e-03,-1.074656403e-04,-1.918981903e-03,-9.525911702e-04,-1.013754022e-04,-1.053966572e-03,-1.148439255e-03,-1.744214151e-04,-1.322860670e-03,-7.440589211e-04,-1.340414358e-04,-8.781003568e-04,-8.388574531e-04,-5.804588450e-05,-8.969033377e-04,-1.092202563e-03,-3.427728841e-05,-1.126479852e-03,-1.899941252e-03,-1.739595673e-04,-2.073900820e-03,-1.519880224e-03,-2.521722705e-04,-1.772052494e-03,-1.550480483e-03,-1.039109583e-04,-1.654391441e-03,-1.503142689e-03,7.054173656e-05,-1.432600953e-03,-1.433097202e-03,-3.562183778e-05,-1.468719039e-03,-1.756225850e-03,1.407975134e-05,-1.742146099e-03,-1.043925848e-03,-9.882627114e-05,-1.142752119e-03,-1.684456416e-03,1.033381214e-05,-1.674122604e-03,-1.506978947e-03,2.657003051e-05,-1.480408916e-03,-1.244681838e-03,1.323728815e-05,-1.231444549e-03,-2.135796931e-03,-6.877382226e-05,-2.204570753e-03,-2.304402757e-03,-4.553119552e-05,-2.349933952e-03,-1.604059122e-03,-2.771422100e-05,-1.631773343e-03,-1.844670401e-03,5.193448245e-05,-1.792735919e-03,-1.938667011e-03,-4.345254784e-05,-1.982119559e-03,-2.613524135e-03,3.071238654e-05,-2.582811748e-03,-1.448074494e-03,-9.361435907e-05,-1.541688853e-03,-1.554425592e-03,-8.124007914e-05,-1.635665671e-03,-1.722010401e-03,-5.056807385e-05,-1.772578475e-03,-1.758177749e-03,-1.695579897e-04,-1.927735739e-03
-8.8,-6.246167133e-04,3.664454790e-05,-5.879721654e-04,-1.675518428e-03,6.754137212e-05,-1.607977055e-03,-1.091000825e-03,-1.544248295e-04,-1.245425655e-03,-1.719015651e-03,-3.325961022e-05,-1.752275261e-03,-1.520692571e-03,-1.518650083e-04,-1.672557580e-03,-1.942536692e-03,2.975475118e-05,-1.912781941e-03,-1.764522805e-03,-1.475955874e-04,-1.912118393e-03,-1.406224414e-03,9.121284801e-05,-1.315011566e-03,-1.744845524e-03,-8.730930301e-05,-1.832154827e-03,-1.632501207e-03,4.516882089e-05,-1.587332387e-03,-1.762688241e-03,-1.030509856e-04,-1.865739226e-03,-9.483682961e-04,-1.003580405e-04,-1.048726337e-03,-1.130223572e-03,-1.833110030e-04,-1.313534575e-03,-7.461955955e-04,-1.339734084e-04,-8.801690039e-04,-8.407589693e-04,-5.824262736e-05,-8.990015967e-04,-1.079134123e-03,-3.948462116e-05,-1.118618745e-03,-1.860727682e-03,-1.804289814e-04,-2.041156664e-03,-1.500966584e-03,-2.502548007e-04,-1.751221385e-03,-1.526529349e-03,-1.043985922e-04,-1.630927941e-03,-1.477831381e-03,6.745789917e-05,-1.410373482e-03,-1.397769380e-03,-3.695012790e-05,-1.434719508e-03,-1.721762598e-03,1.152755206e-05,-1.710235046e-03,-1.015985962e-03,-9.790049589e-05,-1.113886458e-03,-1.642764410e-03,6.414844460e-06,-1.636349566e-03,-1.494143813e-03,2.460256791e-05,-1.469541245e-03,-1.245216272e-03,1.336760408e-05,-1.231848668e-03,-2.110067109e-03,-7.041626637e-05,-2.180483375e-03,-2.281083816e-03,-5.111409834e-05,-2.332197915e-03,-1.594246513e-03,-2.844766997e-05,-1.622694183e-03,-1.813561580e-03,4.858026592e-05,-1.764981314e-03,-1.929430409e-03,-4.209465145e-05,-1.971525061e-03,-2.570575406e-03,3.236240041e-05,-2.538213005e-03,-1.429445813e-03,-9.541247223e-05,-1.524858285e-03,-1.539824185e-03,-8.068351123e-05,-1.620507696e-03,-1.697190258e-03,-5.203496067e-05,-1.749225219e-03,-1.748358849e-03,-1.653006525e-04,-1.913659501e-03
-8.7,-5.951666881e-04,2.897411726e-05,-5.661925708e-04,-1.633882563e-03,6.359827072e-05,-1.570284292e-03,-1.061664221e-03,-1.566182741e-04,-1.218282495e-03,-1.679203891e-03,-3.689414844e-05,-1.716098039e-03,-1.490838653e-03,-1.506468852e-04,-1.641485539e-03,-1.905350552e-03,2.565932049e-05,-1.879691231e-03,-1.744886693e-03,-1.470997081e-04,-1.891986401e-03,-1.395271055e-03,8.940094923e-05,-1.305870105e-03,-1.726663284e-03,-9.006740796e-05,-1.816730692e-03,-1.601300486e-03,4.453282670e-05,-1.556767659e-03,-1.712163956e-03,-9.867781031e-05,-1.810841766e-03,-9.423195657e-04,-9.903604171e-05,-1.041355607e-03,-1.110716919e-03,-1.913272991e-04,-1.302044218e-03,-7.469523994e-04,-1.337117844e-04,-8.806641838e-04,-8.408728219e-04,-5.846390752e-05,-8.993367294e-04,-1.064670846e-03,-4.441881566e-05,-1.109089662e-03,-1.819149689e-03,-1.865720945e-04,-2.005721784e-03,-1.479847022e-03,-2.480997992e-04,-1.727946822e-03,-1.500666083e-03,-1.047892459e-04,-1.605455329e-03,-1.450494441e-03,6.427417467e-05,-1.386220266e-03,-1.360631831e-03,-3.810742397e-05,-1.398739255e-03,-1.685574405e-03,9.035897695e-06,-1.676538508e-03,-9.875030477e-04,-9.688649791e-05,-1.084389546e-03,-1.600492343e-03,2.514474949e-06,-1.597977868e-03,-1.479186629e-03,2.244950227e-05,-1.456737126e-03,-1.244717096e-03,1.362182940e-05,-1.231095267e-03,-2.082187427e-03,-7.191046238e-05,-2.154097890e-03,-2.256146311e-03,-5.639559036e-05,-2.312541901e-03,-1.582150208e-03,-2.907519235e-05,-1.611225400e-03,-1.780479529e-03,4.517204719e-05,-1.735307481e-03,-1.916998982e-03,-4.075970578e-05,-1.957758688e-03,-2.525485983e-03,3.386178432e-05,-2.491624199e-03,-1.408648010e-03,-9.709250444e-05,-1.505740514e-03,-1.522745113e-03,-7.985639216e-05,-1.602601505e-03,-1.669272864e-03,-5.443884988e-05,-1.723711714e-03,-1.735103954e-03,-1.611342351e-04,-1.896238189e-03
-8.6,-5.652881145e-04,2.157422358e-05,-5.437138910e-04,-1.590694103e-03,5.971140026e-05,-1.530982703e-03,-1.031397154e-03,-1.585262111e-04,-1.189923365e-03,-1.637175625e-03,-4.031696990e-05,-1.677492595e-03,-1.458674261e-03,-1.493960761e-04,-1.608070337e-03,-1.865750127e-03,2.157249310e-05,-1.844177634e-03,-1.722478471e-03,-1.464180889e-04,-1.868896560e-03,-1.382239930e-03,8.741450337e-05,-1.294825427e-03,-1.706380597e-03,-9.286859756e-05,-1.799249194e-03,-1.567981228e-03,4.387441657e-05,-1.524106812e-03,-1.660066081e-03,-9.434619419e-05,-1.754412275e-03,-9.344162410e-04,-9.746024550e-05,-1.031876486e-03,-1.090107272e-03,-1.983902313e-04,-1.288497503e-03,-7.463549309e-04,-1.332489688e-04,-8.796038997e-04,-8.392353025e-04,-5.870878964e-05,-8.979440922e-04,-1.048913791e-03,-4.905415797e-05,-1.097967949e-03,-1.775419480e-03,-1.923543652e-04,-1.967773845e-03,-1.456578136e-03,-2.457473137e-04,-1.702325450e-03,-1.472969520e-03,-1.050799693e-04,-1.578049489e-03,-1.421185956e-03,6.099803593e-05,-1.360187920e-03,-1.321779479e-03,-3.908239829e-05,-1.360861877e-03,-1.647744312e-03,6.611307446e-06,-1.641133005e-03,-9.585555349e-04,-9.577883410e-05,-1.054334369e-03,-1.557743698e-03,-1.361714095e-06,-1.559105412e-03,-1.462143541e-03,2.012046274e-05,-1.442023078e-03,-1.243157065e-03,1.399162746e-05,-1.229165438e-03,-2.052171976e-03,-7.324510910e-05,-2.125417085e-03,-2.229584078e-03,-6.136228695e-05,-2.290946365e-03,-1.567843504e-03,-2.959209287e-05,-1.597435597e-03,-1.745558084e-03,4.174183326e-05,-1.703816251e-03,-1.901429790e-03,-3.946976822e-05,-1.940899559e-03,-2.478344550e-03,3.517894962e-05,-2.443165600e-03,-1.385732448e-03,-9.865874309e-05,-1.484391191e-03,-1.503327469e-03,-7.874297322e-05,-1.582070442e-03,-1.638423341e-03,-5.772445338e-05,-1.696147794e-03,-1.718470075e-03,-1.571031997e-04,-1.875573275e-03
-8.5,-5.350917867e-04,1.448493434e-05,-5.206068524e-04,-1.546053295e-03,5.589173079e-05,-1.490161564e-03,-1.000271836e-03,-1.601358505e-04,-1.160407687e-03,-1.593067362e-03,-4.351960124e-05,-1.636586963e-03,-1.424301646e-03,-1.481039270e-04,-1.572405573e-03,-1.823806518e-03,1.751198273e-05,-1.806294535e-03,-1.697355727e-03,-1.455426581e-04,-1.842898385e-03,-1.367147067e-03,8.525791763e-05,-1.281889149e-03,-1.684023351e-03,-9.569292866e-05,-1.779716279e-03,-1.532609790e-03,4.319756883e-05,-1.489412221e-03,-1.606518302e-03,-9.005630431e-05,-1.696574607e-03,-9.246338002e-04,-9.568893873e-05,-1.020322739e-03,-1.068578463e-03,-2.044168405e-04,-1.272995303e-03,-7.444278231e-04,-1.325785472e-04,-8.770063702e-04,-8.358820372e-04,-5.897674840e-05,-8.948587856e-04,-1.031960333e-03,-5.336898443e-05,-1.085329318e-03,-1.729764232e-03,-1.977303882e-04,-1.927494621e-03,-1.431217685e-03,-2.432351624e-04,-1.674452847e-03,-1.443519958e-03,-1.052670276e-04,-1.548786986e-03,-1.389963940e-03,5.763756536e-05,-1.332326375e-03,-1.281314304e-03,-3.986695397e-05,-1.321181258e-03,-1.608358031e-03,4.259184797e-06,-1.604098846e-03,-9.292152420e-04,-9.457198557e-05,-1.023787228e-03,-1.514618751e-03,-5.207610149e-06,-1.519826361e-03,-1.443055860e-03,1.762679196e-05,-1.425429068e-03,-1.240505085e-03,1.446726433e-05,-1.226037821e-03,-2.020037668e-03,-7.441202194e-05,-2.094449690e-03,-2.201385967e-03,-6.600451842e-05,-2.267390486e-03,-1.551403983e-03,-2.999655369e-05,-1.581400537e-03,-1.708929086e-03,3.832284618e-05,-1.670606240e-03,-1.882788928e-03,-3.824259926e-05,-1.921031527e-03,-2.429231325e-03,3.627922394e-05,-2.392952101e-03,-1.360750020e-03,-1.001209161e-04,-1.460870936e-03,-1.481707968e-03,-7.733357054e-05,-1.559041538e-03,-1.604816123e-03,-6.182198335e-05,-1.666638106e-03,-1.698524502e-03,-1.532459656e-04,-1.851770467e-03
-8.4,-5.046846151e-04,7.743385597e-06,-4.969412295e-04,-1.500060759e-03,5.214894854e-05,-1.447911810e-03,-9.683583092e-04,-1.614353563e-04,-1.129793665e-03,-1.547018461e-03,-4.649552441e-05,-1.593513985e-03,-1.387829193e-03,-1.467613936e-04,-1.534590587e-03,-1.779595514e-03,1.349480579e-05,-1.766100709e-03,-1.669583910e-03,-1.444657089e-04,-1.814049619e-03,-1.350015404e-03,8.293673245e-05,-1.267078672e-03,-1.659619536e-03,-9.851814439e-05,-1.758137681e-03,-1.495257828e-03,4.250554871e-05,-1.452752280e-03,-1.551645552e-03,-8.580853226e-05,-1.637454085e-03,-9.129559343e-04,-9.378547253e-05,-1.006741407e-03,-1.046311822e-03,-2.093211264e-04,-1.255632948e-03,-7.411958083e-04,-1.316953712e-04,-8.728911795e-04,-8.308495700e-04,-5.926743060e-05,-8.901170006e-04,-1.013905093e-03,-5.734609496e-05,-1.071251188e-03,-1.682424166e-03,-2.026462465e-04,-1.885070412e-03,-1.403826917e-03,-2.405977800e-04,-1.644424697e-03,-1.412400670e-03,-1.053459288e-04,-1.517746599e-03,-1.356891070e-03,5.420153788e-05,-1.302689533e-03,-1.239346998e-03,-4.045650030e-05,-1.279803499e-03,-1.567504568e-03,1.983916087e-06,-1.565520652e-03,-8.995476052e-04,-9.326035759e-05,-9.928079628e-04,-1.471215092e-03,-9.016760438e-06,-1.480231853e-03,-1.421970287e-03,1.498127714e-05,-1.406989010e-03,-1.236727967e-03,1.503777151e-05,-1.221690196e-03,-1.985806666e-03,-7.540523282e-05,-2.061211899e-03,-2.171538092e-03,-7.031604294e-05,-2.241854135e-03,-1.532913029e-03,-3.028903280e-05,-1.563202062e-03,-1.670720986e-03,3.494821115e-05,-1.635772775e-03,-1.861152450e-03,-3.709116807e-05,-1.898243618e-03,-2.378219051e-03,3.712427916e-05,-2.341094772e-03,-1.333753590e-03,-1.014924929e-04,-1.435246083e-03,-1.458020767e-03,-7.562567763e-05,-1.533646445e-03,-1.568631470e-03,-6.665037053e-05,-1.635281840e-03,-1.675346635e-03,-1.495938625e-04,-1.824940498e-03
-8.3,-4.741698902e-04,1.383359510e-06,-4.727865307e-04,-1.452817813e-03,4.849143401e-05,-1.404326379e-03,-9.357256385e-04,-1.624140898e-04,-1.098139728e-03,-1.499171090e-03,-4.924031627e-05,-1.548411406e-03,-1.349371121e-03,-1.453592064e-04,-1.494730327e-03,-1.733197695e-03,9.537157715e-06,-1.723660537e-03,-1.639236297e-03,-1.431801001e-04,-1.782416397e-03,-1.330874835e-03,8.045754885e-05,-1.250417286e-03,-1.633199083e-03,-1.013197869e-04,-1.734518870e-03,-1.456002563e-03,4.180081239e-05,-1.414201751e-03,-1.495573482e-03,-8.160360566e-05,-1.577177088e-03,-8.993772257e-04,-9.181483510e-05,-9.911920608e-04,-1.023485638e-03,-2.130138533e-04,-1.236499491e-03,-7.366831766e-04,-1.305956392e-04,-8.672788158e-04,-8.241755299e-04,-5.958038274e-05,-8.837559127e-04,-9.948394501e-04,-6.097278284e-05,-1.055812233e-03,-1.633646988e-03,-2.070428211e-04,-1.840689809e-03,-1.374472589e-03,-2.378649158e-04,-1.612337504e-03,-1.379698340e-03,-1.053116464e-04,-1.485009986e-03,-1.322034712e-03,5.069942269e-05,-1.271335289e-03,-1.195997640e-03,-4.085023294e-05,-1.236847873e-03,-1.525276321e-03,-2.110855163e-07,-1.525487407e-03,-8.696114984e-04,-9.183829848e-05,-9.614497969e-04,-1.427627620e-03,-1.278260004e-05,-1.440410220e-03,-1.398938095e-03,1.219766913e-05,-1.386740426e-03,-1.231791263e-03,1.569110356e-05,-1.216100159e-03,-1.949508083e-03,-7.621969927e-05,-2.025727782e-03,-2.140025369e-03,-7.429356273e-05,-2.214318931e-03,-1.512454121e-03,-3.047167057e-05,-1.542925791e-03,-1.631056966e-03,3.164975994e-05,-1.599407207e-03,-1.836606103e-03,-3.602309879e-05,-1.872629202e-03,-2.325373177e-03,3.767190028e-05,-2.287701277e-03,-1.304798827e-03,-1.027891099e-04,-1.407587937e-03,-1.432396454e-03,-7.362463843e-05,-1.506021092e-03,-1.530051657e-03,-7.212061544e-05,-1.602172273e-03,-1.649028759e-03,-1.461702052e-04,-1.795198965e-03
-8.2,-4.436470649e-04,-4.564997068e-06,-4.482120619e-04,-1.404425991e-03,4.492632119e-05,-1.359499670e-03,-9.024425811e-04,-1.630627594e-04,-1.065505340e-03,-1.449668950e-03,-5.175164929e-05,-1.501420599e-03,-1.309046577e-03,-1.438880074e-04,-1.452934585e-03,-1.684697803e-03,5.654352355e-06,-1.679043451e-03,-1.606393456e-03,-1.416794403e-04,-1.748072897e-03,-1.309761809e-03,7.782793181e-05,-1.231933877e-03,-1.604793487e-03,-1.040714379e-04,-1.708864924e-03,-1.414926583e-03,4.108488530e-05,-1.373841698e-03,-1.438427697e-03,-7.744273790e-05,-1.515870435e-03,-8.839049330e-04,-8.983993129e-05,-9.737448643e-04,-1.000272097e-03,-2.154032278e-04,-1.215675324e-03,-7.309128592e-04,-1.292769988e-04,-8.601898581e-04,-8.158982732e-04,-5.991481947e-05,-8.758130927e-04,-9.748503914e-04,-6.424035621e-05,-1.039090748e-03,-1.583680569e-03,-2.108594389e-04,-1.794540008e-03,-1.343228409e-03,-2.350602791e-04,-1.578288688e-03,-1.345502563e-03,-1.051589437e-04,-1.450661507e-03,-1.285466668e-03,4.714130482e-05,-1.238325363e-03,-1.151395589e-03,-4.105133581e-05,-1.192446925e-03,-1.481768906e-03,-2.323402952e-06,-1.484092309e-03,-8.394590644e-04,-9.030011920e-05,-9.297591837e-04,-1.383948381e-03,-1.649866408e-05,-1.400447045e-03,-1.374013556e-03,9.289930750e-06,-1.364723625e-03,-1.225659430e-03,1.641424759e-05,-1.209245183e-03,-1.911178885e-03,-7.684994010e-05,-1.988028825e-03,-2.106832388e-03,-7.793623721e-05,-2.184768625e-03,-1.490110949e-03,-3.054784385e-05,-1.520658792e-03,-1.590053201e-03,2.845695139e-05,-1.561596249e-03,-1.809244367e-03,-3.504055316e-05,-1.844284920e-03,-2.270751863e-03,3.787626752e-05,-2.232875596e-03,-1.273943914e-03,-1.040273728e-04,-1.377971287e-03,-1.404960609e-03,-7.134385644e-05,-1.476304465e-03,-1.489257845e-03,-7.813894362e-05,-1.567396788e-03,-1.619676035e-03,-1.429896862e-04,-1.762665721e-03
-8.1,-4.132115064e-04,-1.007535582e-05,-4.232868622e-04,-1.354986581e-03,4.145959296e-05,-1.313526988e-03,-8.685782469e-04,-1.633735231e-04,-1.031951770e-03,-1.398656006e-03,-5.402917506e-05,-1.452685181e-03,-1.266978867e-03,-1.423385176e-04,-1.409317385e-03,-1.634184597e-03,1.860760220e-06,-1.632323837e-03,-1.571142805e-03,-1.399582590e-04,-1.711101064e-03,-1.286719003e-03,7.505630043e-05,-1.211662703e-03,-1.574435856e-03,-1.067450499e-04,-1.681180906e-03,-1.372117897e-03,4.035825430e-05,-1.331759643e-03,-1.380333493e-03,-7.332781649e-05,-1.453661310e-03,-8.665611254e-04,-8.791825958e-05,-9.544793850e-04,-9.768328587e-04,-2.163972631e-04,-1.193230122e-03,-7.239066859e-04,-1.277386564e-04,-8.516453423e-04,-8.060574314e-04,-6.026945653e-05,-8.663268879e-04,-9.540201555e-04,-6.714332351e-05,-1.021163479e-03,-1.532766572e-03,-2.140373776e-04,-1.746803950e-03,-1.310176298e-03,-2.322003066e-04,-1.542376605e-03,-1.309905308e-03,-1.048826692e-04,-1.414787977e-03,-1.247263354e-03,4.353785435e-05,-1.203725499e-03,-1.105679177e-03,-4.106693778e-05,-1.146746115e-03,-1.437081176e-03,-4.351589502e-06,-1.441432766e-03,-8.091360534e-04,-8.864010221e-05,-8.977761556e-04,-1.340266716e-03,-2.015875043e-05,-1.360425467e-03,-1.347252745e-03,6.271469637e-06,-1.340981275e-03,-1.218296261e-03,1.719327477e-05,-1.201102986e-03,-1.870864697e-03,-7.728902941e-05,-1.948153727e-03,-2.071944550e-03,-8.124529514e-05,-2.153189845e-03,-1.465966573e-03,-3.052189263e-05,-1.496488465e-03,-1.547817972e-03,2.539592739e-05,-1.522422044e-03,-1.779169676e-03,-3.414087035e-05,-1.813310547e-03,-2.214406937e-03,3.768894052e-05,-2.176717997e-03,-1.241249568e-03,-1.052240797e-04,-1.346473648e-03,-1.375832897e-03,-6.880466079e-05,-1.444637557e-03,-1.446428588e-03,-8.460962372e-05,-1.531038211e-03,-1.587406436e-03,-1.400582528e-04,-1.727464689e-03
-8,-3.829546724e-04,-1.512538810e-05,-3.980800605e-04,-1.304600919e-03,3.809613884e-05,-1.266504780e-03,-8.342031763e-04,-1.633401072e-04,-9.975432835e-04,-1.346276334e-03,-5.607438217e-05,-1.402350716e-03,-1.223295387e-03,-1.407017689e-04,-1.363997156e-03,-1.581751920e-03,-1.830270100e-06,-1.583582190e-03,-1.533578685e-03,-1.380121472e-04,-1.671590832e-03,-1.261795434e-03,7.215182438e-05,-1.189643610e-03,-1.542161710e-03,-1.093113002e-04,-1.651473010e-03,-1.327670678e-03,3.962034477e-05,-1.288050333e-03,-1.321416464e-03,-6.926155900e-05,-1.390678023e-03,-8.473860811e-04,-8.609919397e-05,-9.334852751e-04,-9.533151247e-04,-2.159079324e-04,-1.169223057e-03,-7.156874268e-04,-1.259814254e-04,-8.416688522e-04,-7.946960706e-04,-6.064238187e-05,-8.553384525e-04,-9.324275291e-04,-6.967852982e-05,-1.002106059e-03,-1.481136825e-03,-2.165228959e-04,-1.697659720e-03,-1.275407915e-03,-2.292932203e-04,-1.504701135e-03,-1.273001173e-03,-1.044779723e-04,-1.377479146e-03,-1.207506678e-03,3.990038581e-05,-1.167606292e-03,-1.058995531e-03,-4.090777282e-05,-1.099903304e-03,-1.391315637e-03,-6.295031469e-06,-1.397610668e-03,-7.786828221e-04,-8.685254059e-05,-8.655353626e-04,-1.296669823e-03,-2.375706739e-05,-1.320426890e-03,-1.318713601e-03,3.154597932e-06,-1.315559003e-03,-1.209666205e-03,1.801333071e-05,-1.191652874e-03,-1.828621064e-03,-7.752837481e-05,-1.906149439e-03,-2.035350335e-03,-8.422367187e-05,-2.119574007e-03,-1.440103841e-03,-3.039906788e-05,-1.470502909e-03,-1.504451954e-03,2.248874056e-05,-1.481963213e-03,-1.746492507e-03,-3.331776919e-05,-1.779810277e-03,-2.156386420e-03,3.706052254e-05,-2.119325897e-03,-1.206780525e-03,-1.063957594e-04,-1.313176285e-03,-1.345127398e-03,-6.603589433e-05,-1.411163292e-03,-1.401740414e-03,-9.143712961e-05,-1.493177544e-03,-1.552351235e-03,-1.373733031e-04,-1.689724538e-03
-7.9,-3.529648144e-04,-1.969698849e-05,-3.726618029e-04,-1.253371511e-03,3.483974059e-05,-1.218531771e-03,-7.993908154e-04,-1.629579322e-04,-9.623487476e-04,-1.292675196e-03,-5.789048282e-05,-1.350565678e-03,-1.178128239e-03,-1.389693673e-04,-1.317097606e-03,-1.527500754e-03,-5.406462581e-06,-1.532907217e-03,-1.493802977e-03,-1.358378479e-04,-1.629640825e-03,-1.235047020e-03,6.912435945e-05,-1.165922660e-03,-1.508010316e-03,-1.117399316e-04,-1.619750248e-03,-1.281686563e-03,3.886961298e-05,-1.242816950e-03,-1.261803704e-03,-6.524757708e-05,-1.327051281e-03,-8.264427235e-04,-8.442176731e-05,-9.108644908e-04,-9.298493174e-04,-2.138565854e-04,-1.143705903e-03,-7.062819621e-04,-1.240076643e-04,-8.302896264e-04,-7.818639902e-04,-6.103090117e-05,-8.428948914e-04,-9.101504147e-04,-7.184445327e-05,-9.819948680e-04,-1.429012225e-03,-2.182696805e-04,-1.647281905e-03,-1.239026373e-03,-2.263385383e-04,-1.465364911e-03,-1.234888492e-03,-1.039404777e-04,-1.338828970e-03,-1.166285300e-03,3.624087873e-05,-1.130044421e-03,-1.011500390e-03,-4.058768884e-05,-1.052088079e-03,-1.344579043e-03,-8.153783533e-06,-1.352732826e-03,-7.481357722e-04,-8.493186596e-05,-8.330676382e-04,-1.253243506e-03,-2.728840869e-05,-1.280531915e-03,-1.288457140e-03,-4.973717719e-08,-1.288506877e-03,-1.199736518e-03,1.885858682e-05,-1.180877931e-03,-1.784514945e-03,-7.755844253e-05,-1.862073387e-03,-1.997044626e-03,-8.687556475e-05,-2.083920191e-03,-1.412606264e-03,-3.018575934e-05,-1.442792023e-03,-1.460049347e-03,1.975275721e-05,-1.440296590e-03,-1.711332265e-03,-3.256265907e-05,-1.743894924e-03,-2.096738196e-03,3.594268947e-05,-2.060795507e-03,-1.170608530e-03,-1.075582792e-04,-1.278166809e-03,-1.312954173e-03,-6.307318864e-05,-1.376027362e-03,-1.355369931e-03,-9.852747192e-05,-1.453897403e-03,-1.514656057e-03,-1.349238869e-04,-1.649579944e-03
-7.8,-3.233279218e-04,-2.377649170e-05,-3.471044135e-04,-1.201403444e-03,3.169303921e-05,-1.169710405e-03,-7.642189621e-04,-1.622241907e-04,-9.264431528e-04,-1.238000582e-03,-5.948230492e-05,-1.297482887e-03,-1.131614964e-03,-1.371337008e-04,-1.268748665e-03,-1.471541250e-03,-8.856600824e-06,-1.480397851e-03,-1.451925834e-03,-1.334333021e-04,-1.585359136e-03,-1.206537229e-03,6.598442017e-05,-1.140552808e-03,-1.472025988e-03,-1.140001074e-04,-1.586026095e-03,-1.234275836e-03,3.810369339e-05,-1.196172142e-03,-1.201624868e-03,-6.129036096e-05,-1.262915229e-03,-8.038205992e-04,-8.291297662e-05,-8.867335759e-04,-9.065477618e-04,-2.101798157e-04,-1.116727577e-03,-6.957241066e-04,-1.218211146e-04,-8.175452213e-04,-7.676208291e-04,-6.143131494e-05,-8.290521440e-04,-8.872683716e-04,-7.364076590e-05,-9.609091375e-04,-1.376602395e-03,-2.192407893e-04,-1.595843184e-03,-1.201147529e-03,-2.233271528e-04,-1.424474682e-03,-1.195670596e-03,-1.032664373e-04,-1.298937034e-03,-1.123695579e-03,3.257183173e-05,-1.091123747e-03,-9.633575166e-04,-4.012317832e-05,-1.003480695e-03,-1.296982720e-03,-9.928490712e-06,-1.306911211e-03,-7.175288185e-04,-8.287286986e-05,-8.004016884e-04,-1.210072716e-03,-3.074831621e-05,-1.240821032e-03,-1.256549097e-03,-3.331951321e-06,-1.259881048e-03,-1.188479494e-03,1.971223161e-05,-1.168767262e-03,-1.738625680e-03,-7.737013175e-05,-1.815995812e-03,-1.957032069e-03,-8.920593916e-05,-2.046238009e-03,-1.383558220e-03,-2.988986369e-05,-1.413448083e-03,-1.414699009e-03,1.720019779e-05,-1.397498811e-03,-1.673818109e-03,-3.186578113e-05,-1.705683890e-03,-2.035513736e-03,3.429027130e-05,-2.001223464e-03,-1.132815916e-03,-1.087262397e-04,-1.241542156e-03,-1.279421279e-03,-5.995791378e-05,-1.339379193e-03,-1.307495962e-03,-1.057891552e-04,-1.413285117e-03,-1.474481862e-03,-1.326908442e-04,-1.607172706e-03
-7.7,-2.941283788e-04,-2.735480868e-05,-3.214831875e-04,-1.148805211e-03,2.865758546e-05,-1.120147625e-03,-7.287705744e-04,-1.611378439e-04,-8.899084183e-04,-1.182404018e-03,-6.085614329e-05,-1.243260161e-03,-1.083898671e-03,-1.351880246e-04,-1.219086696e-03,-1.413993532e-03,-1.217047166e-05,-1.426164003e-03,-1.408065923e-03,-1.307976872e-04,-1.538863610e-03,-1.176337324e-03,6.274311903e-05,-1.113594205e-03,-1.434258677e-03,-1.160608347e-04,-1.550319512e-03,-1.185557705e-03,3.731949731e-05,-1.148238208e-03,-1.141012301e-03,-5.739523875e-05,-1.198407540e-03,-7.796371704e-04,-8.158698403e-05,-8.612241545e-04,-8.835024383e-04,-2.048351914e-04,-1.088337630e-03,-6.840556750e-04,-1.194266946e-04,-8.034823696e-04,-7.520375096e-04,-6.183866778e-05,-8.138761774e-04,-8.638635155e-04,-7.506822846e-05,-9.389317440e-04,-1.324104025e-03,-2.194100949e-04,-1.543514120e-03,-1.161900138e-03,-2.202419256e-04,-1.382142063e-03,-1.155456364e-03,-1.024527852e-04,-1.257909149e-03,-1.079841662e-03,2.890598260e-05,-1.050935680e-03,-9.147373556e-04,-3.953293214e-05,-9.542702878e-04,-1.248642253e-03,-1.162039294e-05,-1.260262646e-03,-6.868945506e-04,-8.067097109e-05,-7.675655217e-04,-1.167241534e-03,-3.413312558e-05,-1.201374660e-03,-1.223061154e-03,-6.683502369e-06,-1.229744656e-03,-1.175873945e-03,2.055661400e-05,-1.155317331e-03,-1.691044560e-03,-7.695634632e-05,-1.768000906e-03,-1.915329211e-03,-9.122014439e-05,-2.006549355e-03,-1.353043955e-03,-2.952096836e-05,-1.382564924e-03,-1.368484805e-03,1.483781132e-05,-1.353646993e-03,-1.634088608e-03,-3.121712179e-05,-1.665305730e-03,-1.972770890e-03,3.206343480e-05,-1.940707456e-03,-1.093498280e-03,-1.099120672e-04,-1.203410347e-03,-1.244636205e-03,-5.673582372e-05,-1.301372028e-03,-1.258300229e-03,-1.131343486e-04,-1.371434578e-03,-1.432005004e-03,-1.306470413e-04,-1.562652045e-03
-7.6,-2.654489129e-04,-3.042746581e-05,-2.958763787e-04,-1.095688403e-03,2.573401034e-05,-1.069954392e-03,-6.931335616e-04,-1.596995755e-04,-8.528331371e-04,-1.126039894e-03,-6.201954924e-05,-1.188059443e-03,-1.035127154e-03,-1.331264471e-04,-1.168253601e-03,-1.354986771e-03,-1.533881104e-05,-1.370325582e-03,-1.362349844e-03,-1.279314691e-04,-1.490281314e-03,-1.144525860e-03,5.941200118e-05,-1.085113859e-03,-1.394763657e-03,-1.178914654e-04,-1.512655122e-03,-1.135659393e-03,3.651322871e-05,-1.099146164e-03,-1.080100063e-03,-5.356833643e-05,-1.133668400e-03,-7.540351168e-04,-8.044554996e-05,-8.344806668e-04,-8.607804571e-04,-1.978068025e-04,-1.058587260e-03,-6.713255175e-04,-1.168302873e-04,-7.881558048e-04,-7.351955074e-04,-6.224654476e-05,-7.974420522e-04,-8.400188712e-04,-7.612900657e-05,-9.161478778e-04,-1.271697178e-03,-2.187631628e-04,-1.490460341e-03,-1.121424560e-03,-2.170586098e-04,-1.338483170e-03,-1.114359506e-03,-1.014970526e-04,-1.215856559e-03,-1.034834656e-03,2.525601616e-05,-1.009578640e-03,-8.658149491e-04,-3.883729323e-05,-9.046522423e-04,-1.199676534e-03,-1.323131916e-05,-1.212907853e-03,-6.562650691e-04,-7.832249600e-05,-7.345875651e-04,-1.124832613e-03,-3.743984318e-05,-1.162272456e-03,-1.188071215e-03,-1.009630164e-05,-1.198167516e-03,-1.161905502e-03,2.137358112e-05,-1.140531921e-03,-1.641872586e-03,-7.631346394e-05,-1.718186050e-03,-1.871964790e-03,-9.292375035e-05,-1.964888540e-03,-1.321145861e-03,-2.909014910e-05,-1.350236010e-03,-1.321485266e-03,1.266673388e-05,-1.308818533e-03,-1.592289896e-03,-3.060710876e-05,-1.622897005e-03,-1.908575485e-03,2.923017688e-05,-1.879345308e-03,-1.052765157e-03,-1.111249686e-04,-1.163890125e-03,-1.208706213e-03,-5.345537175e-05,-1.262161585e-03,-1.207966391e-03,-1.204800904e-04,-1.328446481e-03,-1.387416038e-03,-1.287578348e-04,-1.516173873e-03
-7.5,-2.373698790e-04,-3.299459383e-05,-2.703644729e-04,-1.042166488e-03,2.292223229e-05,-1.019244255e-03,-6.573997828e-04,-1.579117537e-04,-8.153115365e-04,-1.069063701e-03,-6.298105567e-05,-1.132044756e-03,-9.854513183e-04,-1.309439093e-04,-1.116395228e-03,-1.294657232e-03,-1.835327431e-05,-1.313010506e-03,-1.314910922e-03,-1.248364444e-04,-1.439747367e-03,-1.111187628e-03,5.600280716e-05,-1.055184821e-03,-1.353600708e-03,-1.194621963e-04,-1.473062904e-03,-1.084714557e-03,3.568038748e-05,-1.049034169e-03,-1.019022504e-03,-4.981651582e-05,-1.068839020e-03,-7.271769200e-04,-7.947934902e-05,-8.066562691e-04,-8.384183111e-04,-1.891106044e-04,-1.027528915e-03,-6.575877557e-04,-1.140385130e-04,-7.716262687e-04,-7.171849991e-04,-6.264694997e-05,-7.798319491e-04,-8.158150148e-04,-7.682740002e-05,-8.926424148e-04,-1.219540776e-03,-2.172976723e-04,-1.436838448e-03,-1.079870390e-03,-2.137469968e-04,-1.293617387e-03,-1.072496848e-03,-1.003972292e-04,-1.172894077e-03,-9.887913467e-04,2.163431475e-05,-9.671570319e-04,-8.167675015e-04,-3.805757837e-05,-8.548250799e-04,-1.150206513e-03,-1.476362802e-05,-1.164970141e-03,-6.256727965e-04,-7.582498644e-05,-7.014977829e-04,-1.082926366e-03,-4.066592078e-05,-1.123592287e-03,-1.151662793e-03,-1.356210008e-05,-1.165224893e-03,-1.146566139e-03,2.214492747e-05,-1.124421212e-03,-1.591217183e-03,-7.544241761e-05,-1.666659601e-03,-1.826978619e-03,-9.432254264e-05,-1.921301161e-03,-1.287943079e-03,-2.860950478e-05,-1.316552583e-03,-1.273773427e-03,1.068261612e-05,-1.263090811e-03,-1.548573133e-03,-3.002708381e-05,-1.578600217e-03,-1.843002179e-03,2.576895298e-05,-1.817233227e-03,-1.010739044e-03,-1.123699207e-04,-1.123108965e-03,-1.171738194e-03,-5.016569157e-05,-1.221903886e-03,-1.156678622e-03,-1.277486723e-04,-1.284427295e-03,-1.340917728e-03,-1.269818223e-04,-1.467899551e-03
-7.4,-2.099683958e-04,-3.506089231e-05,-2.450292881e-04,-9.883535139e-04,2.022159524e-05,-9.681319187e-04,-6.216639099e-04,-1.557784084e-04,-7.774423183e-04,-1.011630408e-03,-6.374984055e-05,-1.075380249e-03,-9.350236724e-04,-1.286362244e-04,-1.063659897e-03,-1.233146650e-03,-2.120642340e-05,-1.254353073e-03,-1.265887956e-03,-1.215157306e-04,-1.387403687e-03,-1.076412626e-03,5.252727615e-05,-1.023885350e-03,-1.310833543e-03,-1.207444911e-04,-1.431578034e-03,-1.032862001e-03,3.481584365e-05,-9.980461571e-04,-9.579133089e-04,-4.614726975e-05,-1.004060579e-03,-6.992395147e-04,-7.866944679e-05,-7.779089615e-04,-8.164179711e-04,-1.787988292e-04,-9.952168003e-04,-6.429008951e-04,-1.110584785e-04,-7.539593736e-04,-6.981035870e-04,-6.303029282e-05,-7.611338798e-04,-7.913271255e-04,-7.717072664e-05,-8.684978521e-04,-1.167769390e-03,-2.150235684e-04,-1.382792958e-03,-1.037393797e-03,-2.102722780e-04,-1.247666075e-03,-1.029986518e-03,-9.915167276e-05,-1.129138191e-03,-9.418331249e-04,1.805272227e-05,-9.237804026e-04,-7.677721229e-04,-3.721539394e-05,-8.049875169e-04,-1.100354064e-03,-1.622014645e-05,-1.116574211e-03,-5.951516092e-04,-7.317754781e-05,-6.683291570e-04,-1.041600291e-03,-4.380903394e-05,-1.085409325e-03,-1.113924118e-03,-1.707211219e-05,-1.130996230e-03,-1.129853859e-03,2.285284435e-05,-1.107001014e-03,-1.539189365e-03,-7.434904685e-05,-1.613538412e-03,-1.780420145e-03,-9.542251670e-05,-1.875842662e-03,-1.253511297e-03,-2.809165625e-05,-1.281602953e-03,-1.225417679e-03,8.876137720e-06,-1.216541542e-03,-1.503092586e-03,-2.946940582e-05,-1.532561992e-03,-1.776135515e-03,2.167093019e-05,-1.754464585e-03,-9.675542549e-04,-1.136466169e-04,-1.081200872e-03,-1.133839146e-03,-4.691436322e-05,-1.180753509e-03,-1.104620996e-03,-1.348667273e-04,-1.239487723e-03,-1.292722954e-03,-1.252719654e-04,-1.417994920e-03
-7.3,-1.833178978e-04,-3.663552109e-05,-2.199534189e-04,-9.343635104e-04,1.763093323e-05,-9.167325772e-04,-5.860226818e-04,-1.533051751e-04,-7.393278568e-04,-9.538939254e-04,-6.433535506e-05,-1.018229281e-03,-8.839974845e-04,-1.262001605e-04,-1.010197645e-03,-1.170601809e-03,-2.389172352e-05,-1.194493533e-03,-1.215424444e-03,-1.179737004e-04,-1.333398145e-03,-1.040295535e-03,4.899704828e-05,-9.912984866e-04,-1.266529924e-03,-1.217114242e-04,-1.388241348e-03,-9.802451783e-04,3.391398969e-05,-9.463311886e-04,-8.969054557e-04,-4.256859329e-05,-9.394740490e-04,-6.704104360e-04,-7.798880382e-05,-7.483992399e-04,-7.947478519e-04,-1.669622525e-04,-9.617101043e-04,-6.273285202e-04,-1.078975436e-04,-7.352260638e-04,-6.780564570e-04,-6.338552166e-05,-7.414419787e-04,-7.666240052e-04,-7.716999090e-05,-8.437939961e-04,-1.116492631e-03,-2.119630151e-04,-1.328455646e-03,-9.941553713e-04,-2.065965427e-04,-1.200751914e-03,-9.869469276e-04,-9.775904251e-05,-1.084705970e-03,-8.940854826e-04,1.452231532e-05,-8.795631673e-04,-7.190040915e-04,-3.633206237e-05,-7.553361539e-04,-1.050241168e-03,-1.760415095e-05,-1.067845319e-03,-5.647383945e-04,-7.038120066e-05,-6.351195951e-04,-1.000928558e-03,-4.686689843e-05,-1.047795456e-03,-1.074947613e-03,-2.061688717e-05,-1.095564500e-03,-1.111773183e-03,2.348034443e-05,-1.088292838e-03,-1.485902494e-03,-7.304358641e-05,-1.558946081e-03,-1.732347539e-03,-9.622980046e-05,-1.828577339e-03,-1.217923931e-03,-2.754923959e-05,-1.245473170e-03,-1.176483831e-03,7.233934547e-06,-1.169249897e-03,-1.456005205e-03,-2.892700055e-05,-1.484932206e-03,-1.708071887e-03,1.694155070e-05,-1.691130337e-03,-9.233567843e-04,-1.149482755e-04,-1.038305060e-03,-1.095117914e-03,-4.374514768e-05,-1.138863062e-03,-1.051977784e-03,-1.417635272e-04,-1.193741311e-03,-1.243052961e-03,-1.235771030e-04,-1.366630064e-03
-7.2,-1.574882892e-04,-3.773186517e-05,-1.952201544e-04,-8.803106893e-04,1.514863324e-05,-8.651620560e-04,-5.505745925e-04,-1.504991804e-04,-7.010737728e-04,-8.960076539e-04,-6.474697483e-05,-9.607546287e-04,-8.325266062e-04,-1.236335103e-04,-9.561601165e-04,-1.107175101e-03,-2.640355687e-05,-1.133578658e-03,-1.163668313e-03,-1.142158982e-04,-1.277884211e-03,-1.002935689e-03,4.542362384e-05,-9.575120655e-04,-1.220762333e-03,-1.223379896e-04,-1.343100323e-03,-9.270122871e-04,3.296891932e-05,-8.940433678e-04,-8.361317792e-04,-3.908885146e-05,-8.752206307e-04,-6.408846974e-04,-7.740422684e-05,-7.182889242e-04,-7.733495608e-04,-1.537295828e-04,-9.270791436e-04,-6.109409025e-04,-1.045631628e-04,-7.155040653e-04,-6.571574889e-04,-6.370037530e-05,-7.208578642e-04,-7.417689694e-04,-7.684014554e-05,-8.186091150e-04,-1.065796696e-03,-2.081502116e-04,-1.273946907e-03,-9.503187006e-04,-2.026803158e-04,-1.152999016e-03,-9.434967450e-04,-9.621820439e-05,-1.039714949e-03,-8.456779755e-04,1.105325788e-05,-8.346247176e-04,-6.706356155e-04,-3.542813507e-05,-7.060637506e-04,-9.999893835e-04,-1.891933474e-05,-1.018908718e-03,-5.344747948e-04,-6.743917632e-05,-6.019139712e-04,-9.609817150e-04,-4.983709752e-05,-1.010818813e-03,-1.034830027e-03,-2.418617802e-05,-1.059016205e-03,-1.092336393e-03,2.401169904e-05,-1.068324694e-03,-1.431472593e-03,-7.153956173e-05,-1.503012155e-03,-1.682827420e-03,-9.675059808e-05,-1.779578018e-03,-1.181254089e-03,-2.699437568e-05,-1.208248465e-03,-1.127037676e-03,5.739743890e-06,-1.121297932e-03,-1.407471279e-03,-2.839252845e-05,-1.435863808e-03,-1.638922402e-03,1.160142290e-05,-1.627320979e-03,-8.783049508e-04,-1.162605824e-04,-9.945655333e-04,-1.055687735e-03,-4.069586558e-05,-1.096383601e-03,-9.989340978e-04,-1.483693660e-04,-1.147303464e-03,-1.192135900e-03,-1.218436486e-04,-1.313979549e-03
-7.1,-1.325463827e-04,-3.836720917e-05,-1.709135919e-04,-8.263099040e-04,1.277273870e-05,-8.135371653e-04,-5.154196268e-04,-1.473688929e-04,-6.627885197e-04,-8.381253156e-04,-6.499373810e-05,-9.031190537e-04,-7.807654490e-04,-1.209351080e-04,-9.017005570e-04,-1.043025029e-03,-2.873725117e-05,-1.071762280e-03,-1.110771731e-03,-1.102489795e-04,-1.221020711e-03,-9.644371286e-04,4.181832514e-05,-9.226188035e-04,-1.173608628e-03,-1.226014056e-04,-1.296210034e-03,-8.733162156e-04,3.197459043e-05,-8.413416252e-04,-7.757253479e-04,-3.571661689e-05,-8.114419648e-04,-6.108608700e-04,-7.687889670e-05,-6.877397667e-04,-7.521479788e-04,-1.392642228e-04,-8.914122016e-04,-5.938160396e-04,-1.010628018e-04,-6.948788414e-04,-6.355299404e-04,-6.396163588e-05,-6.994915763e-04,-7.168212663e-04,-7.619999382e-05,-7.930212601e-04,-1.015746366e-03,-2.036311835e-04,-1.219377550e-03,-9.060492552e-04,-1.984840912e-04,-1.104533346e-03,-8.997552839e-04,-9.452814056e-05,-9.942834245e-04,-7.967441466e-04,7.654822609e-06,-7.890893240e-04,-6.228347042e-04,-3.452291104e-05,-6.573576152e-04,-9.497192739e-04,-2.016965819e-05,-9.698889321e-04,-5.044086707e-04,-6.435713592e-05,-5.687658066e-04,-9.218260484e-04,-5.271692301e-05,-9.745429714e-04,-9.936729507e-04,-2.776859552e-05,-1.021441546e-03,-1.071564831e-03,2.443289183e-05,-1.047131939e-03,-1.376019252e-03,-6.985252481e-05,-1.445871777e-03,-1.631934657e-03,-9.699129041e-05,-1.728925947e-03,-1.143576044e-03,-2.643830451e-05,-1.170014349e-03,-1.077147016e-03,4.375481057e-06,-1.072771535e-03,-1.357654741e-03,-2.785770360e-05,-1.385512444e-03,-1.568815614e-03,5.686659644e-06,-1.563128954e-03,-8.325694902e-04,-1.175612579e-04,-9.501307481e-04,-1.015668400e-03,-3.779661132e-05,-1.053465011e-03,-9.456762992e-04,-1.546144258e-04,-1.100290725e-03,-1.140205077e-03,-1.200172204e-04,-1.260222298e-03
-7,-1.085560171e-04,-3.856242398e-05,-1.471184411e-04,-7.724765270e-04,1.050107571e-05,-7.619754513e-04,-4.806585006e-04,-1.439239723e-04,-6.245824729e-04,-7.804009316e-04,-6.508418511e-05,-8.454851167e-04,-7.288684057e-04,-1.181047728e-04,-8.469731785e-04,-9.783154887e-04,-3.088909253e-05,-1.009204581e-03,-1.056890444e-03,-1.060806584e-04,-1.162971102e-03,-9.249082077e-04,3.819226589e-05,-8.867159418e-04,-1.125152045e-03,-1.224814208e-04,-1.247633465e-03,-8.193135761e-04,3.092496057e-05,-7.883886155e-04,-7.158188911e-04,-3.246043832e-05,-7.482793295e-04,-5.805353859e-04,-7.637513315e-05,-6.569105190e-04,-7.310603590e-04,-1.237590243e-04,-8.548193833e-04,-5.760388201e-04,-9.740388280e-05,-6.734427029e-04,-6.133052944e-04,-6.415530271e-05,-6.774605971e-04,-6.918364623e-04,-7.527187906e-05,-7.671083413e-04,-9.663856994e-04,-1.984636000e-04,-1.164849299e-03,-8.615128794e-04,-1.939697788e-04,-1.055482658e-03,-8.558423571e-04,-9.268793306e-05,-9.485302902e-04,-7.474208067e-04,4.335548078e-06,-7.430852586e-04,-5.757635916e-04,-3.363397141e-05,-6.093975630e-04,-8.995494219e-04,-2.135908696e-05,-9.209085088e-04,-4.745948839e-04,-6.114334300e-05,-5.357382269e-04,-8.835222292e-04,-5.550326626e-05,-9.390254955e-04,-9.515830390e-04,-3.135104237e-05,-9.829340814e-04,-1.049489355e-03,2.473202250e-05,-1.024757333e-03,-1.319666086e-03,-6.799880256e-05,-1.387664889e-03,-1.579751440e-03,-9.695867020e-05,-1.676710111e-03,-1.104965209e-03,-2.589137301e-05,-1.130856582e-03,-1.026882394e-03,3.122094681e-06,-1.023760299e-03,-1.306721804e-03,-2.731319559e-05,-1.334034999e-03,-1.497898808e-03,-7.512297251e-07,-1.498650037e-03,-7.863318717e-04,-1.188203971e-04,-9.051522687e-04,-9.751867594e-04,-3.506850796e-05,-1.010255267e-03,-8.923916387e-04,-1.604281295e-04,-1.052819768e-03,-1.087496163e-03,-1.180441858e-04,-1.205540349e-03
-6.9,-8.557742435e-05,-3.834171744e-05,-1.239191418e-04,-7.189252629e-04,8.331361911e-06,-7.105939010e-04,-4.463911447e-04,-1.401751122e-04,-5.865662569e-04,-7.229873603e-04,-6.502623318e-05,-7.880135935e-04,-6.769883817e-04,-1.151431782e-04,-7.921315599e-04,-9.132134956e-04,-3.285630217e-05,-9.460697977e-04,-1.002182355e-03,-1.017196326e-04,-1.103901987e-03,-8.844605409e-04,3.455636009e-05,-8.499041808e-04,-1.075480387e-03,-1.219606210e-04,-1.197441008e-03,-7.651626392e-04,2.981409327e-05,-7.353485459e-04,-6.565431520e-04,-2.932856327e-05,-6.858717153e-04,-5.500953386e-04,-7.585707606e-05,-6.259524147e-04,-7.100022381e-04,-1.074294484e-04,-8.174316865e-04,-5.576982806e-04,-9.359374163e-05,-6.512920222e-04,-5.906200068e-04,-6.426669974e-05,-6.548867065e-04,-6.668651855e-04,-7.408126121e-05,-7.409464467e-04,-9.177370127e-04,-1.927165602e-04,-1.110453573e-03,-8.168735140e-04,-1.891019083e-04,-1.005975422e-03,-8.118770480e-04,-9.069682193e-05,-9.025738700e-04,-6.978464805e-04,1.103385935e-06,-6.967430946e-04,-5.295764726e-04,-3.277682363e-05,-5.623532962e-04,-8.495948635e-04,-2.249135638e-05,-8.720862199e-04,-4.450953983e-04,-5.780881785e-05,-5.029042161e-04,-8.461233509e-04,-5.819254947e-05,-9.043159004e-04,-9.086715066e-04,-3.491801428e-05,-9.435895208e-04,-1.026149555e-03,2.489958942e-05,-1.001249966e-03,-1.262540310e-03,-6.599417099e-05,-1.328534481e-03,-1.526365423e-03,-9.666010911e-05,-1.623025532e-03,-1.065496856e-03,-2.536323858e-05,-1.090860095e-03,-9.763166174e-04,1.960224091e-06,-9.743563933e-04,-1.254837772e-03,-2.674917143e-05,-1.281586943e-03,-1.426337174e-03,-7.645833617e-06,-1.433983008e-03,-7.397807066e-04,-1.200013388e-04,-8.597820454e-04,-9.343751296e-04,-3.252315337e-05,-9.668982830e-04,-8.392667696e-04,-1.657391273e-04,-1.005005897e-03,-1.034243213e-03,-1.158732495e-04,-1.150116463e-03
-6.8,-6.366600315e-05,-3.773238518e-05,-1.013983883e-04,-6.657682342e-04,6.261272485e-06,-6.595069617e-04,-4.127147396e-04,-1.361338674e-04,-5.488486071e-04,-6.660339440e-04,-6.482700379e-05,-7.308609478e-04,-6.252748264e-04,-1.120516829e-04,-7.373265094e-04,-8.478862358e-04,-3.463700959e-05,-8.825232454e-04,-9.468056660e-04,-9.717547957e-05,-1.043981146e-03,-8.432075504e-04,3.092136636e-05,-8.122861840e-04,-1.024684957e-03,-1.210247191e-04,-1.145709677e-03,-7.110207890e-04,2.863623686e-05,-6.823845522e-04,-5.980248763e-04,-2.632869445e-05,-6.243535708e-04,-5.197114956e-04,-7.529310827e-05,-5.950046039e-04,-6.888914350e-04,-9.050577168e-05,-7.793972067e-04,-5.388844129e-04,-8.963962166e-05,-6.285240345e-04,-5.676115197e-04,-6.428053506e-05,-6.318920547e-04,-6.419512085e-04,-7.265617390e-05,-7.146073824e-04,-8.697997283e-04,-1.864701154e-04,-1.056269844e-03,-7.722904436e-04,-1.838485056e-04,-9.561389492e-04,-7.679757099e-04,-8.855426184e-05,-8.565299718e-04,-6.481594939e-04,-2.034275675e-06,-6.501937696e-04,-4.844169493e-04,-3.196468944e-05,-5.163816387e-04,-7.999652678e-04,-2.356986826e-05,-8.235351360e-04,-4.159791051e-04,-5.436745328e-05,-4.703465584e-04,-8.096730097e-04,-6.078062402e-05,-8.704536337e-04,-8.650531170e-04,-3.845084518e-05,-9.035039622e-04,-1.001592178e-03,2.492865808e-05,-9.766635203e-04,-1.204771707e-03,-6.385246776e-05,-1.268624174e-03,-1.471867614e-03,-9.610350595e-05,-1.567971120e-03,-1.025244834e-03,-2.486294602e-05,-1.050107780e-03,-9.255239333e-04,8.707576114e-07,-9.246531757e-04,-1.202163178e-03,-2.615625728e-05,-1.228319435e-03,-1.354311355e-03,-1.491678161e-05,-1.369228136e-03,-6.931072611e-04,-1.210618802e-04,-8.141691414e-04,-8.933683791e-04,-3.016279340e-05,-9.235311725e-04,-7.864855002e-04,-1.704761568e-04,-9.569616570e-04,-9.806744055e-04,-1.134570327e-04,-1.094131438e-03
-6.7,-4.287112211e-05,-3.676446447e-05,-7.963558658e-05,-6.131132316e-04,4.288468435e-06,-6.088247632e-04,-3.797219381e-04,-1.318124915e-04,-5.115344296e-04,-6.096844986e-04,-6.449260791e-05,-6.741771065e-04,-5.738720761e-04,-1.088321756e-04,-6.827042517e-04,-7.824988092e-04,-3.623027339e-05,-8.187290826e-04,-8.909172151e-04,-9.245855882e-05,-9.833757739e-04,-8.012631749e-04,2.729793300e-05,-7.739652419e-04,-9.728599306e-04,-1.196627877e-04,-1.092522718e-03,-6.570424146e-04,2.738589454e-05,-6.296565200e-04,-5.403853790e-04,-2.346782493e-05,-5.638532040e-04,-4.895336765e-04,-7.465773896e-05,-5.641914155e-04,-6.676520767e-04,-7.322558110e-05,-7.408776578e-04,-5.196862422e-04,-8.554871168e-05,-6.052349539e-04,-5.444153897e-04,-6.418088949e-05,-6.085962792e-04,-6.171305649e-04,-7.102652811e-05,-6.881570930e-04,-8.225515261e-04,-1.798140308e-04,-1.002365557e-03,-7.279158007e-04,-1.781817050e-04,-9.060975056e-04,-7.242500996e-04,-8.625991173e-05,-8.105100113e-04,-5.984964637e-04,-5.070662733e-06,-6.035671264e-04,-4.404159081e-04,-3.120834508e-05,-4.716242532e-04,-7.507634135e-04,-2.459765956e-05,-7.753610731e-04,-3.873218097e-04,-5.083604935e-05,-4.381578590e-04,-7.742040991e-04,-6.326257988e-05,-8.374666790e-04,-8.208453184e-04,-4.192701701e-05,-8.627723355e-04,-9.758697100e-04,2.481498443e-05,-9.510547256e-04,-1.146491621e-03,-6.158435992e-05,-1.208075981e-03,-1.416350949e-03,-9.529708852e-05,-1.511648037e-03,-9.842813756e-04,-2.439869947e-05,-1.008680075e-03,-8.745796869e-04,-1.646562713e-07,-8.747443432e-04,-1.148850860e-03,-2.552662363e-05,-1.174377483e-03,-1.282014334e-03,-2.247127953e-05,-1.304485614e-03,-6.465013945e-04,-1.219558653e-04,-7.684572598e-04,-8.523010114e-04,-2.798116074e-05,-8.802821721e-04,-7.342267917e-04,-1.745696527e-04,-9.087964443e-04,-9.270087918e-04,-1.107533638e-04,-1.037762156e-03
-6.6,-2.323548114e-05,-3.547028969e-05,-5.870577083e-05,-5.610628296e-04,2.410599267e-06,-5.586522304e-04,-3.474997077e-04,-1.272238345e-04,-4.747235423e-04,-5.540764790e-04,-6.402798722e-05,-6.181044662e-04,-5.229185369e-04,-1.054869661e-04,-6.284055030e-04,-7.172133465e-04,-3.763614853e-05,-7.548494950e-04,-8.346714288e-04,-8.757994119e-05,-9.222513700e-04,-7.587411240e-04,2.369664166e-05,-7.350444824e-04,-9.201024916e-04,-1.178673969e-04,-1.037969888e-03,-6.033777088e-04,2.605792497e-05,-5.773197838e-04,-4.837401006e-04,-2.075210985e-05,-5.044922105e-04,-4.596895322e-04,-7.393264286e-05,-5.336221750e-04,-6.462190109e-04,-5.582764038e-05,-7.020466513e-04,-5.001917449e-04,-8.132818666e-05,-5.815199316e-04,-5.211643250e-04,-6.395110999e-05,-5.851154350e-04,-5.924325284e-04,-6.922330232e-05,-6.616558307e-04,-7.759532142e-04,-1.728452354e-04,-9.487984496e-04,-6.838929195e-04,-1.720782219e-04,-8.559711415e-04,-6.808063628e-04,-8.381360084e-05,-7.646199637e-04,-5.489915900e-04,-7.999603512e-06,-5.569911935e-04,-3.976902313e-04,-3.051591976e-05,-4.282061510e-04,-7.020842774e-04,-2.557731593e-05,-7.276615933e-04,-3.592064674e-04,-4.723426287e-05,-4.064407302e-04,-7.397384650e-04,-6.563250786e-05,-8.053709728e-04,-7.761678654e-04,-4.531974990e-05,-8.214876153e-04,-9.490396863e-04,2.455712682e-05,-9.244825595e-04,-1.087832447e-03,-5.919654705e-05,-1.147028994e-03,-1.359909906e-03,-9.424922373e-05,-1.454159130e-03,-9.426781258e-04,-2.397737002e-05,-9.666554959e-04,-8.235606623e-04,-1.163225667e-06,-8.247238879e-04,-1.095044855e-03,-2.485498087e-05,-1.119899836e-03,-1.209648220e-03,-3.020626271e-05,-1.239854483e-03,-6.001487568e-04,-1.226350583e-04,-7.227838151e-04,-8.113049667e-04,-2.596486728e-05,-8.372698340e-04,-6.826637479e-04,-1.779536193e-04,-8.606173672e-04,-8.734546253e-04,-1.077261603e-04,-9.811807855e-04
-6.5,-4.795075930e-06,-3.388403360e-05,-3.867910953e-05,-5.097143805e-04,6.252788152e-07,-5.090891017e-04,-3.161287350e-04,-1.223813093e-04,-4.385100443e-04,-4.993411960e-04,-6.343689036e-05,-5.627780864e-04,-4.725466105e-04,-1.020187028e-04,-5.745653133e-04,-6.521891494e-04,-3.885574038e-05,-6.910448898e-04,-7.782198276e-04,-8.255134651e-05,-8.607711741e-04,-7.157546412e-04,2.012809350e-05,-6.956265477e-04,-8.665134327e-04,-1.156346488e-04,-9.821480815e-04,-5.501721395e-04,2.464769953e-05,-5.255244399e-04,-4.281988116e-04,-1.818670517e-05,-4.463855168e-04,-4.302860192e-04,-7.310678923e-05,-5.033928084e-04,-6.245420252e-04,-3.854705612e-05,-6.630890814e-04,-4.804887771e-04,-7.698520672e-05,-5.574739839e-04,-4.979884877e-04,-6.357362922e-05,-5.615621169e-04,-5.678818900e-04,-6.727771810e-05,-6.351596081e-04,-7.299566505e-04,-1.656638355e-04,-8.956204860e-04,-6.403555896e-04,-1.655198018e-04,-8.058753914e-04,-6.377448964e-04,-8.121540323e-05,-7.189602996e-04,-4.997764749e-04,-1.081542119e-05,-5.105918961e-04,-3.563421407e-04,-2.989270234e-05,-3.862348430e-04,-6.540145536e-04,-2.651081477e-05,-6.805253684e-04,-3.317233551e-04,-4.358450440e-05,-3.753078595e-04,-7.062869854e-04,-6.788333136e-05,-7.741703168e-04,-7.311426669e-04,-4.859809258e-05,-7.797407595e-04,-9.211645694e-04,2.415651590e-05,-8.970080535e-04,-1.028927490e-03,-5.669159025e-05,-1.085619080e-03,-1.302640850e-03,-9.296831023e-05,-1.395609160e-03,-9.005076597e-04,-2.360380939e-05,-9.241114691e-04,-7.725454744e-04,-2.140899483e-06,-7.746863739e-04,-1.040880712e-03,-2.413938239e-05,-1.065020095e-03,-1.137420672e-03,-3.801105444e-05,-1.175431727e-03,-5.542292663e-04,-1.230510203e-04,-6.772802866e-04,-7.705080355e-04,-2.409515102e-05,-7.946031865e-04,-6.319635038e-04,-1.805672624e-04,-8.125307662e-04,-8.202086158e-04,-1.043461497e-04,-9.245547655e-04
-6.4,1.242061519e-05,-3.204127414e-05,-1.962065895e-05,-4.591602618e-04,-1.069952537e-06,-4.602302143e-04,-2.856829396e-04,-1.172988667e-04,-4.029818064e-04,-4.456041863e-04,-6.272197553e-05,-5.083261619e-04,-4.228827473e-04,-9.843025539e-05,-5.213130027e-04,-5.875827871e-04,-3.989118762e-05,-6.274739747e-04,-7.217106226e-04,-7.738506064e-05,-7.990956832e-04,-6.724163592e-04,1.660304756e-05,-6.558133117e-04,-8.121975199e-04,-1.129641580e-04,-9.251616779e-04,-4.975658495e-04,2.315128131e-05,-4.744145681e-04,-3.738656135e-04,-1.577556604e-05,-3.896411795e-04,-4.014117642e-04,-7.217569550e-05,-4.735874597e-04,-6.025895166e-04,-2.161035077e-05,-6.241998673e-04,-4.606654272e-04,-7.252689148e-05,-5.331923187e-04,-4.750155139e-04,-6.302981420e-05,-5.380453281e-04,-5.435011267e-04,-6.522049291e-05,-6.087216196e-04,-6.845135075e-04,-1.583680625e-04,-8.428815700e-04,-5.974276663e-04,-1.584937287e-04,-7.559213950e-04,-5.951604563e-04,-7.846589907e-05,-6.736263554e-04,-4.509797323e-04,-1.351282029e-05,-4.644925526e-04,-3.164585898e-04,-2.934109131e-05,-3.457996811e-04,-6.066321122e-04,-2.739938499e-05,-6.340314971e-04,-3.049696785e-04,-3.991179248e-05,-3.448814710e-04,-6.738493939e-04,-7.000678254e-05,-7.438561764e-04,-6.858932155e-04,-5.172755796e-05,-7.376207735e-04,-8.923114645e-04,2.361745273e-05,-8.686940118e-04,-9.699106354e-04,-5.406830540e-05,-1.023978941e-03,-1.244642201e-03,-9.146276092e-05,-1.336104962e-03,-8.578443137e-04,-2.328008656e-05,-8.811244003e-04,-7.216141103e-04,-3.112519172e-06,-7.247266295e-04,-9.864859828e-04,-2.338167845e-05,-1.009867661e-03,-1.065540243e-03,-4.577041050e-05,-1.111310653e-03,-5.089159730e-04,-1.231568148e-04,-6.320727878e-04,-7.300322426e-04,-2.234969964e-05,-7.523819422e-04,-5.822872292e-04,-1.823559972e-04,-7.646432264e-04,-7.674549066e-04,-1.005916825e-04,-8.680465891e-04
-6.3,2.838873766e-05,-2.997852829e-05,-1.589790631e-06,-4.094875307e-04,-2.677636561e-06,-4.121651672e-04,-2.562285733e-04,-1.119909080e-04,-3.682194814e-04,-3.929846572e-04,-6.188497208e-05,-4.548696293e-04,-3.740469260e-04,-9.472451262e-05,-4.687714386e-04,-5.235470861e-04,-4.074556835e-05,-5.642926545e-04,-6.652878545e-04,-7.209383885e-05,-7.373816934e-04,-6.288376951e-04,1.313252673e-05,-6.157051684e-04,-7.572629817e-04,-1.098590508e-04,-8.671220325e-04,-4.456922395e-04,2.156554811e-05,-4.241266914e-04,-3.208379365e-04,-1.352126056e-05,-3.343591971e-04,-3.731386518e-04,-7.113975165e-05,-4.442784034e-04,-5.803513012e-04,-5.228948131e-06,-5.855802493e-04,-4.408085096e-04,-6.796033478e-05,-5.087688443e-04,-4.523688087e-04,-6.229999552e-05,-5.146688042e-04,-5.193110760e-04,-6.308122565e-05,-5.823923016e-04,-6.395826229e-04,-1.510486734e-04,-7.906312963e-04,-5.552223121e-04,-1.509933600e-04,-7.062156721e-04,-5.531416465e-04,-7.556653570e-05,-6.287081822e-04,-4.027257912e-04,-1.608681662e-05,-4.188126078e-04,-2.781102225e-04,-2.886070858e-05,-3.069709311e-04,-5.600050118e-04,-2.824342159e-05,-5.882484334e-04,-2.790482650e-04,-3.624352521e-05,-3.152917902e-04,-6.424133786e-04,-7.199348628e-05,-7.144068649e-04,-6.405430219e-04,-5.467112673e-05,-6.952141486e-04,-8.625508913e-04,2.294704366e-05,-8.396038477e-04,-9.109151552e-04,-5.132247871e-05,-9.622376339e-04,-1.186013420e-03,-8.974105040e-05,-1.275754471e-03,-8.147634966e-04,-2.300489493e-05,-8.377683915e-04,-6.708461974e-04,-4.092045570e-06,-6.749382430e-04,-9.319799010e-04,-2.258725215e-05,-9.545671531e-04,-9.942101766e-04,-5.336776724e-05,-1.047577944e-03,-4.643729966e-04,-1.229085570e-04,-5.872815536e-04,-6.899914279e-04,-2.070438337e-05,-7.106958113e-04,-5.337892720e-04,-1.832717121e-04,-7.170609841e-04,-7.153629732e-04,-9.644953866e-05,-8.118125119e-04
-6.2,4.309376939e-05,-2.773270141e-05,1.536106798e-05,-3.607765511e-04,-4.200361400e-06,-3.649769125e-04,-2.278227004e-04,-1.064721265e-04,-3.342948269e-04,-3.415935472e-04,-6.092683197e-05,-4.025203791e-04,-3.261513024e-04,-9.090412932e-05,-4.170554317e-04,-4.602288007e-04,-4.142277426e-05,-5.016515749e-04,-6.090898493e-04,-6.669082203e-05,-6.757806713e-04,-5.851275144e-04,9.727784414e-06,-5.753997300e-04,-7.018200569e-04,-1.063260044e-04,-8.081460612e-04,-3.946756272e-04,1.988823761e-05,-3.747873896e-04,-2.692044860e-04,-1.142484343e-05,-2.806293294e-04,-3.455221686e-04,-7.000177488e-05,-4.155239435e-04,-5.578398324e-04,1.040864681e-05,-5.474311855e-04,-4.210003412e-04,-6.329268279e-05,-4.842930240e-04,-4.301640136e-04,-6.136373436e-05,-4.915277480e-04,-4.953297050e-04,-6.088793073e-05,-5.562176357e-04,-5.951349632e-04,-1.437833532e-04,-7.389183163e-04,-5.138404999e-04,-1.430185431e-04,-6.568590430e-04,-5.117693080e-04,-7.251990500e-05,-5.842892130e-04,-3.551329473e-04,-1.853266256e-05,-3.736656099e-04,-2.413499251e-04,-2.844854010e-05,-2.697984652e-04,-5.141901299e-04,-2.904240366e-05,-5.432325335e-04,-2.540654120e-04,-3.260913026e-05,-2.866745422e-04,-6.119530496e-04,-7.383308549e-05,-6.857861351e-04,-5.952130260e-04,-5.739035865e-05,-6.526033847e-04,-8.319543825e-04,2.215507348e-05,-8.097993091e-04,-8.520712943e-04,-4.844777094e-05,-9.005190652e-04,-1.126852394e-03,-8.781182805e-05,-1.214664222e-03,-7.713396783e-04,-2.277331772e-05,-7.941129960e-04,-6.203185103e-04,-5.092627857e-06,-6.254111381e-04,-8.774723599e-04,-2.176371278e-05,-8.992360727e-04,-9.236212637e-04,-6.068839021e-05,-9.843096539e-04,-4.207520707e-04,-1.222667450e-04,-5.430188157e-04,-6.504878234e-04,-1.913488165e-05,-6.696227051e-04,-4.866148435e-04,-1.832726182e-04,-6.698874617e-04,-6.640845862e-04,-9.191550563e-05,-7.560000918e-04
-6.1,5.652868759e-05,-2.534052118e-05,3.118816641e-05,-3.130989715e-04,-5.640742552e-06,-3.187397140e-04,-2.005113837e-04,-1.007573373e-04,-3.012687210e-04,-2.915308251e-04,-5.984784900e-05,-3.513786741e-04,-2.792984470e-04,-8.697132290e-05,-3.662697699e-04,-3.977658275e-04,-4.192740222e-05,-4.396932297e-04,-5.532473154e-04,-6.118945843e-05,-6.144367738e-04,-5.413903543e-04,6.400137757e-06,-5.349902166e-04,-6.459792270e-04,-1.023752563e-04,-7.483544833e-04,-3.446286988e-04,1.811799288e-05,-3.265107059e-04,-2.190429521e-04,-9.485778453e-06,-2.285287306e-04,-3.186014002e-04,-6.876440679e-05,-3.873658070e-04,-5.350893068e-04,2.514370408e-05,-5.099456027e-04,-4.013153907e-04,-5.853122072e-05,-4.598466114e-04,-4.085051060e-04,-6.020022832e-05,-4.687053344e-04,-4.715699326e-04,-5.866672494e-05,-5.302366575e-04,-5.511566923e-04,-1.366317258e-04,-6.877884181e-04,-4.733689665e-04,-1.345758732e-04,-6.079448397e-04,-4.711141482e-04,-6.932985445e-05,-5.404440026e-04,-3.083112799e-04,-2.084575290e-05,-3.291570328e-04,-2.062114730e-04,-2.809899741e-05,-2.343104704e-04,-4.692318387e-04,-2.979479287e-05,-4.990266315e-04,-2.301283122e-04,-2.903960802e-05,-2.591679202e-04,-5.824273477e-04,-7.551441580e-05,-6.579417635e-04,-5.500186665e-04,-5.984644937e-05,-6.098651159e-04,-8.005915488e-04,2.125378095e-05,-7.793377679e-04,-7.935029890e-04,-4.543687669e-05,-8.389398657e-04,-1.067251856e-03,-8.568416258e-05,-1.152936019e-03,-7.276442126e-04,-2.257689031e-05,-7.502211029e-04,-5.701028076e-04,-6.126403991e-06,-5.762292116e-04,-8.230630947e-04,-2.091881874e-05,-8.439819134e-04,-8.539451068e-04,-6.762219006e-05,-9.215672968e-04,-3.781886826e-04,-1.211971785e-04,-4.993858611e-04,-6.116084842e-04,-1.761810449e-05,-6.292265887e-04,-4.408964588e-04,-1.823232555e-04,-6.232197143e-04,-6.137507442e-04,-8.699466389e-05,-7.007454081e-04
-6,6.869608864e-05,-2.283809402e-05,4.585799462e-05,-2.665159394e-04,-7.001502167e-06,-2.735174416e-04,-1.743281696e-04,-9.486134609e-05,-2.691895157e-04,-2.428832396e-04,-5.864777856e-05,-3.015310181e-04,-2.335798928e-04,-8.292778792e-05,-3.165076808e-04,-3.362851492e-04,-4.226466993e-05,-3.785498191e-04,-4.978816932e-04,-5.560339471e-05,-5.534850879e-04,-4.977248286e-04,3.160789871e-06,-4.945640388e-04,-5.898498937e-04,-9.802050760e-05,-6.878704013e-04,-2.956506633e-04,1.625448946e-05,-2.793961738e-04,-1.704184320e-04,-7.701879401e-06,-1.781203114e-04,-2.924000681e-04,-6.742800461e-05,-3.598280728e-04,-5.121531191e-04,3.885082592e-05,-4.733022932e-04,-3.818184162e-04,-5.368340803e-05,-4.355018243e-04,-3.874818191e-04,-5.878872273e-05,-4.462705418e-04,-4.480380427e-04,-5.644165182e-05,-5.044796945e-04,-5.076514679e-04,-1.296313882e-04,-6.372828561e-04,-4.338781075e-04,-1.256789445e-04,-5.595570521e-04,-4.312345073e-04,-6.600149528e-05,-4.972360026e-04,-2.623610470e-04,-2.302160769e-05,-2.853826547e-04,-1.727087954e-04,-2.780396626e-05,-2.005127616e-04,-4.251611135e-04,-3.049799792e-05,-4.556591114e-04,-2.073424580e-04,-2.556700498e-05,-2.329094630e-04,-5.537789997e-04,-7.702577327e-05,-6.308047730e-04,-5.050675182e-04,-6.200123880e-05,-5.670687570e-04,-7.685276266e-04,2.025751390e-05,-7.482701127e-04,-7.353244880e-04,-4.228306172e-05,-7.776075497e-04,-1.007296116e-03,-8.336789222e-05,-1.090664009e-03,-6.837440537e-04,-2.240381411e-05,-7.061478678e-04,-5.202647525e-04,-7.204090391e-06,-5.274688428e-04,-7.688417235e-04,-2.005851484e-05,-7.889002383e-04,-7.853289954e-04,-7.406614049e-05,-8.593951359e-04,-3.367992407e-04,-1.196714130e-04,-4.564706538e-04,-5.734228698e-04,-1.613318303e-05,-5.895560528e-04,-3.967499178e-04,-1.803950571e-04,-5.771449749e-04,-5.644695855e-04,-8.170134750e-05,-6.461709330e-04
-5.9,7.960878641e-05,-2.026063315e-05,5.934815327e-05,-2.210772220e-04,-8.285640604e-06,-2.293628626e-04,-1.492932627e-04,-8.879884220e-05,-2.380921049e-04,-1.957233113e-04,-5.732599649e-05,-2.530493078e-04,-1.890754311e-04,-7.877470379e-05,-2.678501349e-04,-2.759020729e-04,-4.244033079e-05,-3.183424037e-04,-4.431041641e-04,-4.994632575e-05,-4.930504899e-04,-4.542226405e-04,2.073333102e-08,-4.542019072e-04,-5.335397889e-04,-9.327871093e-05,-6.268184998e-04,-2.478264784e-04,1.429862504e-05,-2.335278533e-04,-1.233828922e-04,-6.069269827e-06,-1.294521620e-04,-2.669293427e-04,-6.598925281e-05,-3.329185955e-04,-4.891004591e-04,5.143765709e-05,-4.376628020e-04,-3.625644565e-04,-4.875686054e-05,-4.113213171e-04,-3.671689361e-04,-5.710888058e-05,-4.242778167e-04,-4.247335750e-04,-5.423457811e-05,-4.789681531e-04,-4.646427036e-04,-1.227951580e-04,-5.874378616e-04,-3.954202911e-04,-1.163487138e-04,-5.117690049e-04,-3.921750495e-04,-6.254114552e-05,-4.547161950e-04,-2.173717591e-04,-2.505602684e-05,-2.424277859e-04,-1.408360421e-04,-2.755297798e-05,-1.683890200e-04,-3.819951630e-04,-3.114850175e-05,-4.131436648e-04,-1.858091069e-04,-2.222380580e-05,-2.080329127e-04,-5.259342668e-04,-7.835525771e-05,-6.042895245e-04,-4.604579869e-04,-6.381824496e-05,-5.242762318e-04,-7.358221020e-04,1.918230575e-05,-7.166397963e-04,-6.776375622e-04,-3.898203879e-05,-7.166196010e-04,-9.470591046e-04,-8.087385805e-05,-1.027932963e-03,-6.397014535e-04,-2.223933392e-05,-6.619407874e-04,-4.708638191e-04,-8.334504202e-06,-4.791983233e-04,-7.148885306e-04,-1.918583706e-05,-7.340743676e-04,-7.178928863e-04,-7.992628968e-05,-7.978191760e-04,-2.966798303e-04,-1.176669603e-04,-4.143467906e-04,-5.359821459e-04,-1.466195561e-05,-5.506441015e-04,-3.542703914e-04,-1.774676705e-04,-5.317380620e-04,-5.163257352e-04,-7.605865392e-05,-5.923843891e-04
-5.8,8.928976514e-05,-1.764227299e-05,7.164749215e-05,-1.768212484e-04,-9.496596011e-06,-1.863178444e-04,-1.254133344e-04,-8.258427830e-05,-2.079976126e-04,-1.501094493e-04,-5.588170661e-05,-2.059911559e-04,-1.458530464e-04,-7.451276608e-05,-2.203658125e-04,-2.167204193e-04,-4.246057850e-05,-2.591809978e-04,-3.890152676e-04,-4.423184238e-05,-4.332471099e-04,-4.109681303e-04,-3.009309208e-06,-4.139774395e-04,-4.771547910e-04,-8.816980364e-05,-5.653245946e-04,-2.012268082e-04,1.225267879e-05,-1.889741294e-04,-7.797527848e-05,-4.582382128e-06,-8.255766061e-05,-2.421919683e-04,-6.444036622e-05,-3.066323346e-04,-4.660120525e-04,6.284208422e-05,-4.031699683e-04,-3.435997293e-04,-4.375931285e-05,-3.873590422e-04,-3.476266825e-04,-5.514113738e-05,-4.027678199e-04,-4.016503790e-04,-5.206509710e-05,-4.537154761e-04,-4.221754181e-04,-1.161098702e-04,-5.382852882e-04,-3.580288995e-04,-1.066138175e-04,-4.646427170e-04,-3.539665536e-04,-5.895615382e-05,-4.129227075e-04,-1.734217132e-04,-2.694536981e-05,-2.003670830e-04,-1.105682774e-04,-2.733352474e-05,-1.379018022e-04,-3.397374319e-04,-3.174211081e-05,-3.714795427e-04,-1.656225342e-04,-1.904218067e-05,-1.846647148e-04,-4.988032867e-04,-7.949112393e-05,-5.782944106e-04,-4.162788959e-04,-6.526372392e-05,-4.815426198e-04,-7.025282484e-04,1.804545154e-05,-6.844827968e-04,-6.205296130e-04,-3.553378125e-05,-6.560633943e-04,-8.866037822e-04,-7.821383666e-05,-9.648176189e-04,-5.955737926e-04,-2.206642234e-05,-6.176402149e-04,-4.219534306e-04,-9.524162742e-06,-4.314775933e-04,-6.612753143e-04,-1.830075052e-05,-6.795760649e-04,-6.517281343e-04,-8.511936772e-05,-7.368475020e-04,-2.579060405e-04,-1.151674423e-04,-3.730734828e-04,-4.993196378e-04,-1.318915758e-05,-5.125087954e-04,-3.135286218e-04,-1.735311379e-04,-4.870597597e-04,-4.693808216e-04,-7.009743016e-05,-5.394782518e-04
-5.7,9.777178963e-05,-1.501587475e-05,8.275591488e-05,-1.337754710e-04,-1.063829521e-05,-1.444137662e-04,-1.026815352e-04,-7.623172865e-05,-1.789132639e-04,-1.060863237e-04,-5.431419247e-05,-1.604005162e-04,-1.039689361e-04,-7.014219897e-05,-1.741111351e-04,-1.588326326e-04,-4.233195827e-05,-2.011645908e-04,-3.357046696e-04,-3.847332431e-05,-3.741779939e-04,-3.680378679e-04,-5.919032626e-06,-3.739569006e-04,-4.207984457e-04,-8.271643059e-05,-5.035148763e-04,-1.559079604e-04,1.012037441e-05,-1.457875860e-04,-3.422146505e-05,-3.233985388e-06,-3.745545044e-05,-2.181862107e-04,-6.276869573e-05,-2.809549064e-04,-4.429740109e-04,7.302876667e-05,-3.699452442e-04,-3.249618845e-04,-3.869857432e-05,-3.636604588e-04,-3.289007136e-04,-5.286708450e-05,-3.817677981e-04,-3.787775969e-04,-4.995043636e-05,-4.287280333e-04,-3.803162330e-04,-1.095371475e-04,-4.898533805e-04,-3.217180371e-04,-9.651054124e-05,-4.182285784e-04,-3.166262707e-04,-5.525459553e-05,-3.718808663e-04,-1.305774992e-04,-2.868680300e-05,-1.592643022e-04,-8.186239809e-05,-2.713141470e-05,-1.089938128e-04,-2.983776879e-04,-3.227417077e-05,-3.306518586e-04,-1.468665904e-04,-1.605304650e-05,-1.629196369e-04,-4.722804988e-04,-8.042209605e-05,-5.527025949e-04,-3.726092918e-04,-6.630768704e-05,-4.389169788e-04,-6.686928385e-04,1.686511674e-05,-6.518277217e-04,-5.640724597e-04,-3.194364569e-05,-5.960161054e-04,-8.259820008e-04,-7.540027530e-05,-9.013822761e-04,-5.514124355e-04,-2.186689070e-05,-5.732793262e-04,-3.735803557e-04,-1.077710573e-05,-3.843574614e-04,-6.080653106e-04,-1.740059878e-05,-6.254659093e-04,-5.868968624e-04,-8.957406060e-05,-6.764709230e-04,-2.205328132e-04,-1.121626813e-04,-3.326954945e-04,-4.634512228e-04,-1.170258370e-05,-4.751538065e-04,-2.745671598e-04,-1.685886725e-04,-4.431558322e-04,-4.236744030e-04,-6.385480140e-05,-4.875292044e-04
-5.6,1.050972440e-04,-1.241282677e-05,9.268441719e-05,-9.195619456e-05,-1.171509309e-05,-1.036712877e-04,-8.107718087e-05,-6.975475048e-05,-1.508319314e-04,-6.368443197e-05,-5.262307968e-05,-1.163075116e-04,-6.346696883e-05,-6.566275135e-05,-1.291297202e-04,-1.023187777e-04,-4.206129522e-05,-1.443800729e-04,-2.832505168e-04,-3.268388204e-05,-3.159343988e-04,-3.254997639e-04,-8.698849507e-06,-3.341986134e-04,-3.645706129e-04,-7.694365827e-05,-4.415142712e-04,-1.119111679e-04,7.906855289e-06,-1.040043126e-04,7.866591301e-06,-2.015204580e-06,5.851386721e-06,-1.949079811e-04,-6.095666141e-05,-2.558646425e-04,-4.200686314e-04,8.198605947e-05,-3.380825719e-04,-3.066785439e-04,-3.358245526e-05,-3.402609991e-04,-3.110204899e-04,-5.026992955e-05,-3.612904195e-04,-3.560992454e-04,-4.790540303e-05,-4.040046485e-04,-3.391500629e-04,-1.030161593e-04,-4.421662222e-04,-2.864824165e-04,-8.608222797e-05,-3.725646445e-04,-2.801579180e-04,-5.144493871e-05,-3.316028567e-04,-8.889301438e-05,-3.027842855e-05,-1.191714429e-04,-5.465784464e-05,-2.693109893e-05,-8.158894357e-05,-2.578918993e-04,-3.273966553e-05,-2.906315649e-04,-1.296102170e-04,-1.328497126e-05,-1.428951883e-04,-4.462447145e-04,-8.113762782e-05,-5.273823423e-04,-3.295177097e-04,-6.692481984e-05,-3.964425295e-04,-6.343551791e-04,1.565993521e-05,-6.186952439e-04,-5.083211269e-04,-2.822242757e-05,-5.365435544e-04,-7.652335933e-04,-7.244607109e-05,-8.376796644e-04,-5.072601253e-04,-2.162289864e-05,-5.288830240e-04,-3.257828388e-04,-1.209502035e-05,-3.378778592e-04,-5.553113734e-04,-1.648101154e-05,-5.717923849e-04,-5.234308602e-04,-9.323206612e-05,-6.166629264e-04,-1.845933805e-04,-1.086486107e-04,-2.932419912e-04,-4.283747086e-04,-1.019329227e-05,-4.385680008e-04,-2.373968748e-04,-1.626592705e-04,-4.000561453e-04,-3.792245260e-04,-5.737239707e-05,-4.365969230e-04
-5.5,1.113185920e-04,-9.862891037e-06,1.014557010e-04,-5.136743001e-05,-1.273167439e-05,-6.409910441e-05,-6.056489317e-05,-6.316626797e-05,-1.237311611e-04,-2.291841099e-05,-5.080851940e-05,-7.372693039e-05,-2.437735662e-05,-6.107369981e-05,-8.545105643e-05,-4.724428279e-05,-4.165563226e-05,-8.889991506e-05,-2.317181583e-04,-2.687630771e-05,-2.585944660e-04,-2.834115876e-04,-1.134027259e-05,-2.947518602e-04,-3.085652963e-04,-7.087866032e-05,-3.794439566e-04,-6.926124527e-05,5.618618304e-06,-6.364262696e-05,4.829238050e-05,-9.155251913e-07,4.737685531e-05,-1.723506324e-04,-5.898205655e-05,-2.313326890e-04,-3.973626350e-04,8.972345487e-05,-3.076391801e-04,-2.887645246e-04,-2.841864816e-05,-3.171831728e-04,-2.939961756e-04,-4.733508597e-05,-3.413312615e-04,-3.335920692e-04,-4.594238566e-05,-3.795344549e-04,-2.987732387e-04,-9.646795835e-05,-3.952411971e-04,-2.522970284e-04,-7.537804423e-05,-3.276750726e-04,-2.445506959e-04,-4.753579296e-05,-2.920864889e-04,-4.840797085e-05,-3.171937470e-05,-8.012734555e-05,-2.887701464e-05,-2.671603326e-05,-5.559304791e-05,-2.182418717e-04,-3.313327338e-05,-2.513751450e-04,-1.139021223e-04,-1.076299283e-05,-1.246651151e-04,-4.205589127e-04,-8.162809460e-05,-5.021870073e-04,-2.870606453e-04,-6.709523983e-05,-3.541558852e-04,-5.995451694e-04,1.444854257e-05,-5.850966268e-04,-4.533121362e-04,-2.438549755e-05,-4.776976337e-04,-7.043842447e-04,-6.936443424e-05,-7.737486789e-04,-4.631476480e-04,-2.131859530e-05,-4.844662433e-04,-2.785879421e-04,-1.347757156e-05,-2.920655137e-04,-5.030526432e-04,-1.553726646e-05,-5.185899096e-04,-4.613298811e-04,-9.604900238e-05,-5.573788835e-04,-1.500971955e-04,-1.046270158e-04,-2.547242113e-04,-3.940682604e-04,-8.655727532e-06,-4.027239879e-04,-2.019941534e-04,-1.557794095e-04,-3.577735629e-04,-3.360276563e-04,-5.069448979e-05,-3.867221461e-04
-5.4,1.164992340e-04,-7.394082005e-06,1.091051520e-04,-1.199920458e-05,-1.369299543e-05,-2.569220001e-05,-4.109355354e-05,-5.647849448e-05,-9.757204803e-05,1.621521949e-05,-4.887121261e-05,-3.265599312e-05,1.328498180e-05,-5.637388012e-05,-4.308889833e-05,6.342586112e-06,-4.112217577e-05,-3.477958966e-05,-1.811586004e-04,-2.106300845e-05,-2.022216088e-04,-2.418193324e-04,-1.383625373e-05,-2.556555861e-04,-2.528683235e-04,-6.455036854e-05,-3.174186920e-04,-2.796534885e-05,3.263432378e-06,-2.470191647e-05,8.707623457e-05,7.717155808e-08,8.715340613e-05,-1.505034744e-04,-5.681878914e-05,-2.073222636e-04,-3.748958833e-04,9.626926525e-05,-2.786266180e-04,-2.712193433e-04,-2.321460033e-05,-2.944339436e-04,-2.778155492e-04,-4.405090985e-05,-3.218664590e-04,-3.112227967e-04,-4.407138158e-05,-3.552941783e-04,-2.592846090e-04,-8.980079904e-05,-3.490854080e-04,-2.191168529e-04,-6.445116053e-05,-2.835680134e-04,-2.097776141e-04,-4.353580692e-05,-2.533134210e-04,-9.146447640e-06,-3.300995703e-05,-4.215640467e-05,-4.425797555e-06,-2.646916770e-05,-3.089496525e-05,-1.793749926e-04,-3.344947756e-05,-2.128244702e-04,-9.976534155e-05,-8.507404910e-06,-1.082727465e-04,-3.950703409e-04,-8.188491239e-05,-4.769552533e-04,-2.452807398e-04,-6.680500498e-05,-3.120857448e-04,-5.642810050e-04,1.324906677e-05,-5.510319382e-04,-3.990615784e-04,-2.045156105e-05,-4.195131395e-04,-6.434430247e-04,-6.616862848e-05,-7.096116532e-04,-4.190912509e-04,-2.094150903e-05,-4.400327599e-04,-2.320092634e-04,-1.492273831e-05,-2.469320017e-04,-4.513111937e-04,-1.456583010e-05,-4.658770238e-04,-4.005602346e-04,-9.799516440e-05,-4.985553990e-04,-1.170278146e-04,-1.001052428e-04,-2.171330574e-04,-3.604889047e-04,-7.087668778e-06,-3.675765734e-04,-1.682991475e-04,-1.480036595e-04,-3.163028070e-04,-2.940584138e-04,-4.386629377e-05,-3.379247076e-04
-5.3,1.207140647e-04,-5.032504329e-06,1.156815604e-04,2.617369912e-05,-1.460429507e-05,1.156940405e-05,-2.259572889e-05,-4.970292516e-05,-7.229865405e-05,5.373958697e-05,-4.681230327e-05,6.927283696e-06,4.952154630e-05,-5.156176537e-05,-2.040219069e-06,5.841223840e-05,-4.046825687e-05,1.794398153e-05,-1.316073412e-04,-1.525594411e-05,-1.468632853e-04,-2.007560609e-04,-1.618142229e-05,-2.169374832e-04,-1.975556089e-04,-5.798909229e-05,-2.555447012e-04,1.198734474e-05,8.502427869e-07,1.283758753e-05,1.242557833e-04,9.764996674e-07,1.252322830e-04,-1.293505021e-04,-5.443808046e-05,-1.837885825e-04,-3.526743616e-04,1.016682862e-04,-2.510060754e-04,-2.540264079e-04,-1.797742122e-05,-2.720038292e-04,-2.624425138e-04,-4.040952910e-05,-3.028520428e-04,-2.889464957e-04,-4.229994558e-05,-3.312464412e-04,-2.207771315e-04,-8.291577058e-05,-3.036929021e-04,-1.868773007e-04,-5.335659937e-05,-2.402339000e-04,-1.757940891e-04,-3.945373087e-05,-2.152478199e-04,2.888383643e-05,-3.415187756e-05,-5.268041130e-06,1.880515389e-05,-2.617353955e-05,-7.368385655e-06,-1.412245541e-04,-3.368270082e-05,-1.749072549e-04,-8.719240641e-05,-6.532531014e-06,-9.372493742e-05,-3.696114941e-04,-8.190059839e-05,-4.515120925e-04,-2.042054740e-04,-6.604632780e-05,-2.702518018e-04,-5.285675768e-04,1.207865032e-05,-5.164889265e-04,-3.455636803e-04,-1.644169770e-05,-3.620053780e-04,-5.824010912e-04,-6.287140755e-05,-6.452724988e-04,-3.750917927e-04,-2.048351000e-05,-3.955753027e-04,-1.860458935e-04,-1.642706468e-05,-2.024729582e-04,-4.000902947e-04,-1.356554657e-05,-4.136558413e-04,-3.410547342e-04,-9.905604466e-05,-4.401107789e-04,-8.534201063e-05,-9.509603237e-05,-1.804380430e-04,-3.275722323e-04,-5.490048929e-06,-3.330622812e-04,-1.362153141e-04,-1.394044624e-04,-2.756197765e-04,-2.532698050e-04,-3.693260040e-05,-2.902024054e-04
-5.2,1.240492084e-04,-2.802131475e-06,1.212470769e-04,6.319188103e-05,-1.547115450e-05,4.772072653e-05,-4.988002503e-06,-4.285043406e-05,-4.783843657e-05,8.969744655e-05,-4.463326130e-05,4.506418525e-05,8.435035782e-05,-4.663560618e-05,3.771475163e-05,1.089536741e-04,-3.970129732e-05,6.925237680e-05,-8.308398450e-05,-9.466602321e-06,-9.255058682e-05,-1.602415843e-04,-1.837223718e-05,-1.786138215e-04,-1.426923004e-04,-5.122609636e-05,-1.939183968e-04,5.062474032e-05,-1.610929060e-06,4.901381126e-05,1.598852505e-04,1.797397836e-06,1.616826484e-04,-1.088700816e-04,-5.181000233e-05,-1.606800839e-04,-3.306691005e-04,1.059793178e-04,-2.246897827e-04,-2.371541091e-04,-1.271381605e-05,-2.498679252e-04,-2.478177058e-04,-3.640764303e-05,-2.842253488e-04,-2.667069232e-04,-4.063294057e-05,-3.073398638e-04,-1.833311868e-04,-7.571250343e-05,-2.590436902e-04,-1.554958135e-04,-4.214911352e-05,-1.976449270e-04,-1.425376281e-04,-3.529861258e-05,-1.778362407e-04,6.569124679e-05,-3.514831985e-05,3.054292694e-05,4.093814100e-05,-2.581285005e-05,1.512529095e-05,-1.037108551e-04,-3.382735167e-05,-1.375382068e-04,-7.614146879e-05,-4.845540236e-06,-8.098700902e-05,-3.440021044e-04,-8.166879290e-05,-4.256708973e-04,-1.638468216e-04,-6.481749508e-05,-2.286643166e-04,-4.923961612e-04,1.095303274e-05,-4.814431285e-04,-2.927903615e-04,-1.237901337e-05,-3.051693748e-04,-5.212323783e-04,-5.948417171e-05,-5.807165500e-04,-3.311354273e-04,-1.994144991e-05,-3.510768772e-04,-1.406826144e-04,-1.798591802e-05,-1.586685324e-04,-3.493746919e-04,-1.253818343e-05,-3.619128754e-04,-2.827143632e-04,-9.923250262e-05,-3.819468658e-04,-5.497072507e-05,-8.961752102e-05,-1.445882461e-04,-2.952337977e-04,-3.866657721e-06,-2.991004555e-04,-1.056104862e-04,-1.300711055e-04,-2.356815917e-04,-2.135943111e-04,-2.993674656e-05,-2.435310577e-04
-5.1,1.266009696e-04,-7.246105571e-07,1.258763591e-04,9.911036600e-05,-1.629956159e-05,8.281080441e-05,1.182785056e-05,-3.593146615e-05,-2.410361559e-05,1.241497820e-04,-4.233586057e-05,8.181392143e-05,1.178051548e-04,-4.159362169e-05,7.621153314e-05,1.579732091e-04,-3.882873821e-05,1.191444709e-04,-3.559254158e-05,-3.706008947e-06,-3.929855053e-05,-1.202828693e-04,-2.040705977e-05,-1.406899290e-04,-8.833256986e-05,-4.429313448e-05,-1.326257043e-04,8.799008184e-05,-4.109076325e-06,8.388100551e-05,1.940340018e-04,2.555951629e-06,1.965899535e-04,-8.903541203e-05,-4.890499753e-05,-1.379404096e-04,-3.088197992e-04,1.092725638e-04,-1.995472354e-04,-2.205578583e-04,-7.430023367e-06,-2.279878817e-04,-2.338604281e-04,-3.204716556e-05,-2.659075936e-04,-2.444384657e-04,-3.907207240e-05,-2.835105381e-04,-1.470085807e-04,-6.809522878e-05,-2.151038095e-04,-1.248744387e-04,-3.088134468e-05,-1.557557834e-04,-1.099286949e-04,-3.108005493e-05,-1.410087498e-04,1.012992356e-04,-3.600385309e-05,6.529538252e-05,6.210546795e-05,-2.537195209e-05,3.673351586e-05,-6.674285270e-05,-3.387776124e-05,-1.006206139e-04,-6.653343416e-05,-3.445450154e-06,-6.997888431e-05,-3.180517510e-04,-8.118426255e-05,-3.992360136e-04,-1.242017487e-04,-6.312251410e-05,-1.873242628e-04,-4.557451874e-04,9.886153271e-06,-4.458590341e-04,-2.406918764e-04,-8.288562936e-06,-2.489804393e-04,-4.598957991e-04,-5.601601787e-05,-5.159118170e-04,-2.871948225e-04,-1.931757102e-05,-3.065123935e-04,-9.589065214e-05,-1.959389108e-05,-1.154845432e-04,-2.991319031e-04,-1.148845464e-05,-3.106203577e-04,-2.254111105e-04,-9.854055301e-05,-3.239516635e-04,-2.582146243e-05,-8.369324488e-05,-1.095147073e-04,-2.633719039e-04,-2.223635959e-06,-2.655955399e-04,-7.631962441e-05,-1.201075728e-04,-1.964271972e-04,-1.749455429e-04,-2.291980854e-05,-1.978653514e-04
-5,1.284744801e-04,1.180814071e-06,1.296552942e-04,1.339972066e-04,-1.709592672e-05,1.169012799e-04,2.796329958e-05,-2.895624895e-05,-9.929493740e-07,1.571739954e-04,-3.992226158e-05,1.172517339e-04,1.499343071e-04,-3.643418118e-05,1.135001260e-04,2.054931017e-04,-3.785789866e-05,1.676352030e-04,1.087805913e-05,2.015255472e-06,1.289331460e-05,-8.087470164e-05,-2.228613274e-05,-1.031608344e-04,-3.451945513e-05,-3.722199109e-05,-7.174144621e-05,1.241402067e-04,-6.632313912e-06,1.175078928e-04,2.267851338e-04,3.269238032e-06,2.300543719e-04,-6.981496174e-05,-4.569493305e-05,-1.155098948e-04,-2.870402036e-04,1.116269434e-04,-1.754132602e-04,-2.041815734e-04,-2.131780762e-06,-2.063133541e-04,-2.204704262e-04,-2.733565655e-05,-2.478060828e-04,-2.220683451e-04,-3.761531492e-05,-2.596836600e-04,-1.118455648e-04,-5.997904845e-05,-1.718246133e-04,-9.490262678e-05,-1.960233793e-05,-1.145049647e-04,-7.787219558e-05,-2.680842169e-05,-1.046806173e-04,1.357452790e-04,-3.672420014e-05,9.902107885e-05,8.244661310e-05,-2.483726826e-05,5.760934484e-05,-3.021982339e-05,-3.382813080e-05,-6.404795418e-05,-5.825012734e-05,-2.322503472e-06,-6.057263081e-05,-2.915624163e-04,-8.044289689e-05,-3.720053132e-04,-8.525296660e-05,-6.097058463e-05,-1.462235512e-04,-4.185812927e-04,8.889743747e-06,-4.096915490e-04,-1.891982073e-04,-4.196876215e-06,-1.933950835e-04,-3.983376283e-04,-5.247289104e-05,-4.508105193e-04,-2.432298464e-04,-1.861956380e-05,-2.618494102e-04,-5.162812341e-05,-2.124533639e-05,-7.287345979e-05,-2.493131041e-04,-1.042372985e-05,-2.597368339e-04,-1.689910410e-04,-9.701075400e-05,-2.660017950e-04,2.219002459e-06,-7.735189378e-05,-7.513289133e-05,-2.318707572e-04,-5.687237100e-07,-2.324394809e-04,-4.814883269e-05,-1.096292302e-04,-1.577780629e-04,-1.372196521e-04,-1.592000988e-05,-1.531396620e-04
-4.9,1.297826020e-04,2.897272148e-06,1.326798742e-04,1.679325050e-04,-1.786699536e-05,1.500655096e-04,4.354167942e-05,-2.193493608e-05,2.160674334e-05,1.888628739e-04,-3.739511945e-05,1.514677544e-04,1.808001775e-04,-3.115590724e-05,1.496442703e-04,2.515511715e-04,-3.679580315e-05,2.147553684e-04,5.635379928e-05,7.687056105e-06,6.404085538e-05,-4.200004321e-05,-2.401148561e-05,-6.601152882e-05,1.871575069e-05,-3.004412022e-05,-1.132836954e-05,1.591445885e-04,-9.168058963e-06,1.499765295e-04,2.582347767e-04,3.955160414e-06,2.621899371e-04,-5.117191225e-05,-4.215352219e-05,-9.332543444e-05,-2.652223489e-04,1.131271825e-04,-1.520951663e-04,-1.879575480e-04,3.175631353e-06,-1.847819167e-04,-2.075283346e-04,-2.228655535e-05,-2.298148899e-04,-1.995176616e-04,-3.625637650e-05,-2.357740381e-04,-7.784443280e-05,-5.129543620e-05,-1.291398690e-04,-6.545928696e-05,-8.356420899e-06,-7.381570786e-05,-4.625881956e-05,-2.249484698e-05,-6.875366654e-05,1.690803101e-04,-3.731598252e-05,1.317643276e-04,1.021062260e-04,-2.419713760e-05,7.790908840e-05,5.967403173e-06,-3.367261250e-05,-2.770520933e-05,-5.113368264e-05,-1.458037929e-06,-5.259172057e-05,-2.643305523e-04,-7.944165016e-05,-3.437722025e-04,-4.696915962e-05,-5.837556973e-05,-1.053447293e-04,-3.808597896e-04,7.972947861e-06,-3.728868418e-04,-1.382204467e-04,-1.308198423e-07,-1.383512666e-04,-3.364928001e-04,-4.885694954e-05,-3.853497496e-04,-1.991873043e-04,-1.786007724e-05,-2.170473816e-04,-7.839790876e-06,-2.293478900e-05,-3.077457987e-05,-1.998528401e-04,-9.353509651e-06,-2.092063498e-04,-1.132769937e-04,-9.468708467e-05,-2.079640784e-04,2.928278979e-05,-7.062681159e-05,-4.134402180e-05,-2.006027769e-04,1.089587597e-06,-1.995131893e-04,-2.087968361e-05,-9.875878817e-05,-1.196384718e-04,-1.002958408e-04,-8.972373647e-06,-1.092682145e-04
-4.8,1.306453134e-04,4.410225942e-06,1.350555393e-04,2.010082382e-04,-1.861963786e-05,1.823886004e-04,5.869726367e-05,-1.487766829e-05,4.381959539e-05,2.193248460e-04,-3.475762728e-05,1.845672187e-04,2.104791931e-04,-2.575769882e-05,1.847214942e-04,2.962016259e-04,-3.564908219e-05,2.605525437e-04,1.008759146e-04,1.329972509e-05,1.141756396e-04,-3.629823927e-06,-2.558684437e-05,-2.921666829e-05,7.135450740e-05,-2.279041204e-05,4.856409535e-05,1.930852647e-04,-1.170329597e-05,1.813819688e-04,2.884920829e-04,4.632224440e-06,2.931243073e-04,-3.306237725e-05,-3.825640180e-05,-7.131877905e-05,-2.432387025e-04,1.138606515e-04,-1.293780510e-04,-1.718050292e-04,8.487245866e-06,-1.633177833e-04,-1.948949234e-04,-1.691923933e-05,-2.118141627e-04,-1.767008523e-04,-3.498434063e-05,-2.116851929e-04,-4.496507514e-05,-4.199601271e-05,-8.696108785e-05,-3.641358010e-05,2.817516646e-06,-3.359606345e-05,-1.496584808e-05,-1.815097241e-05,-3.311682049e-05,2.013686019e-04,-3.778647194e-05,1.635821300e-04,1.212330477e-04,-2.344199525e-05,9.779105242e-05,4.193558764e-05,-3.340551257e-05,8.530075074e-06,-4.498757004e-05,-8.248708555e-07,-4.581244089e-05,-2.361488584e-04,-7.817832827e-05,-3.143271867e-04,-9.304309141e-06,-5.535562831e-05,-6.465993745e-05,-3.425242554e-04,7.142037683e-06,-3.353822177e-04,-8.765160942e-05,3.883918279e-06,-8.376769114e-05,-2.742848555e-04,-4.516608897e-05,-3.194509445e-04,-1.550003647e-04,-1.705562415e-05,-1.720559889e-04,3.554340819e-05,-2.465696012e-05,1.088644807e-05,-1.506680293e-04,-8.288677680e-06,-1.589567070e-04,-5.807090511e-05,-9.162534248e-05,-1.496962476e-04,5.552025511e-05,-6.355551052e-05,-8.035255409e-06,-1.694295625e-04,2.742732304e-06,-1.666868302e-04,5.726756251e-06,-8.762205719e-05,-8.189530094e-05,-6.403614556e-05,-2.108506087e-06,-6.614465165e-05
-4.7,1.311892431e-04,5.707463745e-06,1.368967068e-04,2.333283876e-04,-1.936057690e-05,2.139678107e-04,7.357445798e-05,-7.794620594e-06,6.577983739e-05,2.486847974e-04,-3.201347450e-05,2.166713229e-04,2.390621201e-04,-2.023875007e-05,2.188233700e-04,3.395161261e-04,-3.442401633e-05,3.050921098e-04,1.445013514e-04,1.884410591e-05,1.633454573e-04,3.427752472e-05,-2.701760054e-05,7.259924173e-06,1.233918043e-04,-1.549101698e-05,1.079007873e-04,2.260569104e-04,-1.422485176e-05,2.118320587e-04,3.176791219e-04,5.319256104e-06,3.229983780e-04,-1.543346157e-05,-3.398131766e-05,-4.941477922e-05,-2.209436194e-04,1.139144730e-04,-1.070291464e-04,-1.556290748e-04,1.379818805e-05,-1.418308867e-04,-1.824106059e-04,-1.125893483e-05,-1.936695408e-04,-1.535246498e-04,-3.378358525e-05,-1.873082351e-04,-1.311910754e-05,-3.205437760e-05,-4.517348513e-05,-7.624826228e-06,1.388627029e-05,6.261444062e-06,1.614225267e-05,-1.378852086e-05,2.353731806e-06,2.326874698e-04,-3.814330687e-05,1.945441629e-04,1.399792389e-04,-2.256429800e-05,1.174149409e-04,7.780813455e-05,-3.302151691e-05,4.478661764e-05,-3.957964525e-05,-3.881632150e-07,-3.996780846e-05,-2.068083433e-04,-7.665121407e-05,-2.834595574e-04,2.780343948e-05,-5.193312334e-05,-2.412968387e-05,-3.035059087e-04,6.400264343e-06,-2.971056443e-04,-3.736726819e-05,7.824289771e-06,-2.954297841e-05,-2.116254435e-04,-4.139355936e-05,-2.530190029e-04,-1.105888935e-04,-1.622500430e-05,-1.268138978e-04,7.860414616e-05,-2.640619788e-05,5.219794828e-05,-1.016575613e-04,-7.240666315e-06,-1.088982276e-04,-3.156195050e-06,-8.789140736e-05,-9.104760241e-05,8.109945162e-05,-5.617927605e-05,2.492017558e-05,-1.382022740e-04,4.382432819e-06,-1.338198412e-04,3.192596577e-05,-7.634387934e-05,-4.441791358e-05,-2.828545645e-05,4.643678779e-06,-2.364177768e-05
-4.6,1.315467368e-04,6.779086282e-06,1.383258230e-04,2.650084221e-04,-2.009616602e-05,2.449122561e-04,8.832644784e-05,-6.960893401e-07,8.763035850e-05,2.770840652e-04,-2.916676855e-05,2.479172967e-04,2.666536957e-04,-1.459863454e-05,2.520550612e-04,3.815837292e-04,-3.312668214e-05,3.484570471e-04,1.873026570e-04,2.431163814e-05,2.116142951e-04,7.177612598e-05,-2.831078596e-05,4.346534001e-05,1.748360024e-04,-8.175139090e-06,1.666608633e-04,2.581661034e-04,-1.671958282e-05,2.414465206e-04,3.459298060e-04,6.035111057e-06,3.519649171e-04,1.777425057e-06,-2.930874994e-05,-2.753132488e-05,-1.981762050e-04,1.133737217e-04,-8.480248321e-05,-1.393212241e-04,1.910342469e-05,-1.202177994e-04,-1.698967971e-04,-5.336511021e-06,-1.752333081e-04,-1.298880731e-04,-3.263405272e-05,-1.625221259e-04,1.783133465e-05,-2.146640387e-05,-3.635069214e-06,2.105749680e-05,2.482204990e-05,4.587954670e-05,4.721271156e-05,-9.418932121e-06,3.779377944e-05,2.631261764e-04,-3.839418928e-05,2.247319871e-04,1.584994924e-04,-2.155826233e-05,1.369412301e-04,1.137136209e-04,-3.251588958e-05,8.119773131e-05,-3.464722267e-05,-1.066847687e-07,-3.475390744e-05,-1.761010337e-04,-7.485869453e-05,-2.509597282e-04,6.443240071e-05,-4.813482020e-05,1.629758052e-05,-2.637238479e-04,5.747830318e-06,-2.579760175e-04,1.277298748e-05,1.167102667e-05,2.444401415e-05,-1.484145487e-04,-3.752780699e-05,-1.859423557e-04,-6.586153282e-05,-1.538744005e-05,-8.124897287e-05,1.214371730e-04,-2.817557239e-05,9.326160063e-05,-5.270344616e-05,-6.220891845e-06,-5.892433800e-05,5.169923137e-05,-8.355971791e-05,-3.186048653e-05,1.062041368e-04,-4.854251375e-05,5.766162309e-05,-1.067627934e-04,6.000918191e-06,-1.007618752e-04,5.798543387e-05,-6.504453149e-05,-7.059097625e-06,7.127260498e-06,1.126033877e-05,1.838759927e-05
-4.5,1.318540613e-04,7.617438311e-06,1.394714996e-04,2.961735501e-04,-2.083228477e-05,2.753412654e-04,1.031128757e-04,6.407416400e-06,1.095202921e-04,3.046787354e-04,-2.622196429e-05,2.784567711e-04,2.933711369e-04,-8.837443784e-06,2.845336932e-04,4.225090210e-04,-3.176309547e-05,3.907459255e-04,2.293668832e-04,2.969449632e-05,2.590613795e-04,1.089317925e-04,-2.947493718e-05,7.945685537e-05,2.257074770e-04,-8.707890472e-07,2.248366879e-04,2.895293687e-04,-1.917445167e-05,2.703549171e-04,3.733875425e-04,6.798410943e-06,3.801859534e-04,1.864166842e-05,-2.422308625e-05,-5.581417828e-06,-1.747655446e-04,1.123210294e-04,-6.244451523e-05,-1.227623488e-04,2.439752186e-05,-9.836482691e-05,-1.571596709e-04,8.118574132e-07,-1.563478135e-04,-1.056841058e-04,-3.151183703e-05,-1.371959428e-04,4.807004222e-05,-1.024958947e-05,3.782045275e-05,4.979282366e-05,3.560176809e-05,8.539459176e-05,7.840221513e-05,-5.053157239e-06,7.334905789e-05,2.927838958e-04,-3.854663894e-05,2.542372568e-04,1.769496347e-04,-2.041960283e-05,1.565300318e-04,1.497837124e-04,-3.188467124e-05,1.178990412e-04,-2.990368479e-05,6.566121912e-08,-2.983802358e-05,-1.438232637e-04,-7.279907600e-05,-2.166223397e-04,1.006766877e-04,-4.399219916e-05,5.668448854e-05,-2.230867363e-04,5.181973677e-06,-2.179047626e-04,6.292277084e-05,1.540935567e-05,7.833212651e-05,-8.454188034e-05,-3.355280636e-05,-1.180946867e-04,-2.071946280e-05,-1.456061121e-05,-3.528007401e-05,1.641464610e-04,-2.995579944e-05,1.341906616e-04,-3.673452764e-06,-5.240712531e-06,-8.914165295e-06,1.067390157e-04,-7.871195802e-05,2.802705771e-05,1.310296327e-04,-4.069152296e-05,9.033810974e-05,-7.494640393e-05,7.591300263e-06,-6.735510367e-05,8.417911202e-05,-5.383679954e-05,3.034231247e-05,4.238624732e-05,1.772203490e-05,6.010828222e-05
-4.4,1.322487805e-04,8.217034446e-06,1.404658150e-04,3.269558366e-04,-2.157429960e-05,3.053815370e-04,1.180966394e-04,1.350515279e-05,1.316017921e-04,3.316363762e-04,-2.318381639e-05,3.084525598e-04,3.193416742e-04,-2.955915345e-06,3.163857588e-04,4.624087917e-04,-3.033927626e-05,4.320695154e-04,2.707935850e-04,3.498575694e-05,3.057793419e-04,1.458202412e-04,-3.051981510e-05,1.153004261e-04,2.760363881e-04,6.395437404e-06,2.824318255e-04,3.202703391e-04,-2.157655604e-05,2.986937831e-04,4.002020136e-04,7.627304398e-06,4.078293180e-04,3.523790164e-05,-1.871413728e-05,1.652376435e-05,-1.505376787e-04,1.108371423e-04,-3.970053648e-05,-1.058267815e-04,2.967442728e-05,-7.615235420e-05,-1.439955885e-04,7.145204928e-06,-1.368503836e-04,-8.080268053e-05,-3.038991733e-05,-1.111925979e-04,7.781997628e-05,1.558113053e-06,7.937808933e-05,7.874740160e-05,4.620612132e-05,1.249535229e-04,1.098734732e-04,-7.014843567e-07,1.091719888e-04,3.217670516e-04,-3.860782126e-05,2.831592304e-04,1.954848000e-04,-1.914538869e-05,1.763394113e-04,1.861506872e-04,-3.112487376e-05,1.550258135e-04,-2.504584844e-05,1.782368612e-07,-2.486761158e-05,-1.097791975e-04,-7.047061835e-05,-1.802498159e-04,1.366441421e-04,-3.954156691e-05,9.710257523e-05,-1.814956905e-04,4.697182935e-06,-1.767985076e-04,1.132453165e-04,1.902916474e-05,1.322744812e-04,-1.988908629e-05,-2.944902358e-05,-4.933810987e-05,2.493901557e-05,-1.375881345e-05,1.118020213e-05,2.068416163e-04,-3.173419134e-05,1.751074250e-04,4.557550682e-05,-4.311659690e-06,4.126384713e-05,1.622135688e-04,-7.343571313e-05,8.877785565e-05,1.557772011e-04,-3.267285870e-05,1.231043424e-04,-4.258556285e-05,9.148176925e-06,-3.343738592e-05,1.107808581e-04,-4.282373119e-05,6.795712695e-05,7.768519652e-05,2.401386610e-05,1.016990626e-04
-4.3,1.328666687e-04,8.574591859e-06,1.414412605e-04,3.574908166e-04,-2.232697447e-05,3.351638421e-04,1.334403170e-04,2.058620484e-05,1.540265218e-04,3.581321494e-04,-2.005737935e-05,3.380747701e-04,3.446997302e-04,3.044496876e-06,3.477442271e-04,5.014083454e-04,-2.886121319e-05,4.725471323e-04,3.116924098e-04,4.017952992e-05,3.518719397e-04,1.825248849e-04,-3.145606612e-05,1.510688188e-04,3.258603220e-04,1.359849184e-05,3.394588138e-04,3.505168594e-04,-2.391318350e-05,3.266036759e-04,4.265259491e-04,8.539250033e-06,4.350651991e-04,5.165120589e-05,-1.277861139e-05,3.887259451e-05,-1.253223898e-04,1.090016140e-04,-1.632077575e-05,-8.838612433e-05,3.492729085e-05,-5.345883348e-05,-1.301966500e-04,1.361849726e-05,-1.165781527e-04,-5.513395714e-05,-2.923884081e-05,-8.437279795e-05,1.073354468e-04,1.389987210e-05,1.212353189e-04,1.080914245e-04,5.661874248e-05,1.647101670e-04,1.417911354e-04,3.626748326e-06,1.454178837e-04,3.501865985e-04,-3.858436236e-05,3.116022362e-04,2.142575157e-04,-1.773396423e-05,1.965235515e-04,2.229449416e-04,-3.023459189e-05,1.927103497e-04,-1.976126132e-05,2.821416316e-07,-1.947911969e-05,-7.378409913e-05,-6.787167840e-05,-1.416557775e-04,1.724534256e-04,-3.482374038e-05,1.376296853e-04,-1.388475193e-04,4.285532198e-06,-1.345619871e-04,1.639101658e-04,2.252448255e-05,1.864346483e-04,4.566786274e-05,-2.519488794e-05,2.047297480e-05,7.121431916e-05,-1.299150941e-05,5.822280975e-05,2.496345058e-04,-3.349387166e-05,2.161406341e-04,9.519413581e-05,-3.445340899e-06,9.174879491e-05,2.183752455e-04,-6.782286846e-05,1.505523770e-04,1.806483897e-04,-2.453173428e-05,1.561166555e-04,-9.513649305e-06,1.066828075e-05,1.154631447e-06,1.380574895e-04,-3.209682267e-05,1.059606668e-04,1.132233308e-04,3.012543403e-05,1.433487648e-04
-4.2,1.338387147e-04,8.689202827e-06,1.425279175e-04,3.879144435e-04,-2.309427724e-05,3.648201662e-04,1.493028482e-04,2.763958693e-05,1.769424351e-04,3.843454815e-04,-1.684807195e-05,3.674974096e-04,3.695844741e-04,9.161609553e-06,3.787460836e-04,5.396386084e-04,-2.733473200e-05,5.123038764e-04,3.521809109e-04,4.527100597e-05,3.974519169e-04,2.191348541e-04,-3.229492121e-05,1.868399329e-04,3.752225270e-04,2.071491440e-05,3.959374414e-04,3.803988353e-04,-2.617190268e-05,3.542269327e-04,4.525127023e-04,9.550844299e-06,4.620635466e-04,6.797391662e-05,-6.421244641e-06,6.155267198e-05,-9.895729024e-05,1.068929079e-04,7.935617656e-06,-7.031141795e-05,4.014836091e-05,-3.016305704e-05,-1.155549432e-04,2.018358381e-05,-9.537135941e-05,-2.857074436e-05,-2.802724265e-05,-5.659798702e-05,1.368952789e-04,2.670193286e-05,1.635972118e-04,1.379961917e-04,6.682555973e-05,2.048217514e-04,1.743180216e-04,7.923516940e-06,1.822415386e-04,3.781558211e-04,-3.848208937e-05,3.396737317e-04,2.334161353e-04,-1.618482608e-05,2.172313092e-04,2.602928530e-04,-2.921299028e-05,2.310798627e-04,-1.373482571e-05,4.288183541e-07,-1.330600736e-05,-3.566694011e-05,-6.500086382e-05,-1.006678039e-04,2.082311742e-04,-2.988331585e-05,1.783478583e-04,-9.503735325e-05,3.937056554e-06,-9.110029669e-05,2.150908771e-04,2.589237562e-05,2.409832527e-04,1.122568329e-04,-2.076849892e-05,9.148833395e-05,1.182027570e-04,-1.226244483e-05,1.059403121e-04,2.926368572e-04,-3.521350631e-05,2.574233509e-04,1.453382441e-04,-2.652556307e-06,1.426856878e-04,2.754743304e-04,-6.196759539e-05,2.135067350e-04,2.058407743e-04,-1.631081344e-05,1.895299609e-04,2.443232666e-05,1.215102777e-05,3.658335443e-05,1.662625921e-04,-2.173428365e-05,1.445283084e-04,1.492021952e-04,3.605071892e-05,1.852529141e-04
-4.1,1.352886567e-04,8.562559226e-06,1.438512159e-04,4.183608891e-04,-2.387914823e-05,3.944817409e-04,1.658368159e-04,3.465433636e-05,2.004911523e-04,4.104578913e-04,-1.356175193e-05,3.968961394e-04,3.941380901e-04,1.539252019e-05,4.095306102e-04,5.772344025e-04,-2.576528660e-05,5.514691159e-04,3.923829047e-04,5.025643133e-05,4.426393360e-04,2.557435450e-04,-3.304793512e-05,2.226956099e-04,4.241708968e-04,2.772283701e-05,4.518937338e-04,4.100469946e-04,-2.834065121e-05,3.817063434e-04,4.783147568e-04,1.067770547e-05,4.889924623e-04,8.430749176e-05,3.446267528e-07,8.465211851e-05,-7.128776843e-05,1.045875669e-04,3.329979850e-05,-5.147371453e-05,4.532899433e-05,-6.144720202e-06,-9.986523041e-05,2.679035545e-05,-7.307487496e-05,-1.009554189e-06,-2.672222496e-05,-2.773177915e-05,1.667979817e-04,3.987584494e-05,2.066738266e-04,1.686319212e-04,7.681429635e-05,2.454462176e-04,2.076123449e-04,1.218241282e-05,2.197947577e-04,4.057888593e-04,-3.830577946e-05,3.674830798e-04,2.531038205e-04,-1.449846001e-05,2.386053605e-04,2.983151359e-04,-2.806024904e-05,2.702548869e-04,-6.654616234e-06,6.687856672e-07,-5.985830567e-06,4.727656422e-06,-6.185718355e-05,-5.712952713e-05,2.441097567e-04,-2.476767603e-05,2.193420806e-04,-4.996028374e-05,3.640069301e-06,-4.632021444e-05,2.669636961e-04,2.913169745e-05,2.960953936e-04,1.800085429e-04,-1.614932463e-05,1.638592182e-04,1.659949841e-04,-1.156932121e-05,1.544256629e-04,3.359588198e-04,-3.686766003e-05,2.990911597e-04,1.961668270e-04,-1.941627247e-06,1.942251998e-04,3.337559509e-04,-5.596388331e-05,2.777920676e-04,2.315455648e-04,-8.049468867e-06,2.234960959e-04,5.941028601e-05,1.359898596e-05,7.300927197e-05,1.956319032e-04,-1.179917509e-05,1.838327281e-04,1.858234186e-04,4.178787405e-05,2.276112926e-04
-4,1.373310275e-04,8.199130153e-06,1.455301577e-04,4.489609587e-04,-2.468333895e-05,4.242776197e-04,1.831861523e-04,4.161960003e-05,2.248057524e-04,4.366514809e-04,-1.020471099e-05,4.264467699e-04,4.185044359e-04,2.173359877e-05,4.402380347e-04,6.143331230e-04,-2.415772054e-05,5.901754025e-04,4.324270955e-04,5.513305992e-05,4.875601554e-04,2.924474034e-04,-3.372670951e-05,2.587206939e-04,4.727571538e-04,3.460199516e-05,5.073591490e-04,4.395919520e-04,-3.040779371e-05,4.091841583e-04,5.040824754e-04,1.193437194e-05,5.160168474e-04,1.007637524e-04,7.497111067e-06,1.082608634e-04,-4.216401830e-05,1.021585831e-04,5.999456482e-05,-3.174450011e-05,5.045976190e-05,1.871526180e-05,-8.292711442e-05,3.338794246e-05,-4.953917196e-05,2.764916619e-05,-2.528978043e-05,2.359385764e-06,1.973578612e-04,5.332100182e-05,2.506788630e-04,2.001661512e-04,8.657402407e-05,2.867401753e-04,2.418256777e-04,1.639882712e-05,2.582245048e-04,4.331996059e-04,-3.805907373e-05,3.951405321e-04,2.734577911e-04,-1.267623186e-05,2.607815593e-04,3.371254275e-04,-2.677758016e-05,3.103478473e-04,1.782805404e-06,1.050488916e-06,2.833294319e-06,4.753766171e-05,-5.844021036e-05,-1.090254865e-05,2.802253407e-04,-1.952583060e-05,2.606995101e-04,-3.512536970e-06,3.381386238e-06,-1.311507317e-07,3.197064047e-04,3.224215830e-05,3.519485630e-04,2.490558451e-04,-1.131970162e-05,2.377361434e-04,2.146747627e-04,-1.090388042e-05,2.037708823e-04,3.797077334e-04,-3.842766090e-05,3.412800725e-04,2.478400108e-04,-1.316456655e-06,2.465235541e-04,3.934571703e-04,-4.990278127e-05,3.435543891e-04,2.579462006e-04,2.165856661e-07,2.581627862e-04,9.557224894e-05,1.501825955e-05,1.105905085e-04,2.263800456e-04,-2.337616012e-06,2.240424296e-04,2.232867780e-04,4.733899540e-05,2.706257734e-04
-3.9,1.400692992e-04,7.606253017e-06,1.476755522e-04,4.798403638e-04,-2.550736420e-05,4.543329996e-04,2.014837971e-04,4.852472895e-05,2.500085260e-04,4.631069846e-04,-6.783580740e-06,4.563234038e-04,4.428274230e-04,2.818043364e-05,4.710078567e-04,6.510726973e-04,-2.251608030e-05,6.285566170e-04,4.724453628e-04,5.989910927e-05,5.323444720e-04,3.293444019e-04,-3.434259751e-05,2.950018044e-04,5.210355305e-04,4.133374604e-05,5.623692765e-04,4.691627735e-04,-3.236216576e-05,4.368006077e-04,5.299622653e-04,1.333415187e-05,5.432964172e-04,1.174641885e-04,1.500609830e-05,1.324702868e-04,-1.143865440e-05,9.967345925e-05,8.823480485e-05,-1.099745896e-05,5.553057682e-05,4.453311786e-05,-6.454791053e-05,3.992572245e-05,-2.462218808e-05,5.750059239e-05,-2.369548585e-05,3.380510653e-05,2.288997385e-04,6.692775375e-05,2.958274923e-04,2.327620316e-04,9.609482768e-05,3.288568593e-04,2.771007105e-04,2.057011525e-05,2.976708257e-04,4.605003404e-04,-3.774458901e-05,4.227557514e-04,2.946082908e-04,-1.072035619e-05,2.838879346e-04,3.768286645e-04,-2.536730918e-05,3.514613553e-04,1.186720443e-05,1.619299027e-06,1.348650345e-05,9.288158092e-05,-5.475026748e-05,3.813131344e-05,3.167154330e-04,-1.420708533e-05,3.025083477e-04,4.440685463e-05,3.146516849e-06,4.755337148e-05,3.734963968e-04,3.522393911e-05,4.087203359e-04,3.195321794e-04,-6.265997610e-06,3.132661818e-04,2.643169226e-04,-1.025215451e-05,2.540647681e-04,4.239863278e-04,-3.986272647e-05,3.841236014e-04,3.005163421e-04,-7.751074741e-07,2.997412346e-04,4.548034536e-04,-4.386971919e-05,4.109337344e-04,2.852166952e-04,8.455254763e-06,2.936719500e-04,1.330631939e-04,1.641860938e-05,1.494818033e-04,2.586977819e-04,6.622468561e-06,2.653202505e-04,2.617876363e-04,5.270996647e-05,3.144976028e-04
-3.8,1.435937670e-04,6.794125194e-06,1.503878922e-04,5.111172706e-04,-2.635054380e-05,4.847667268e-04,2.208490152e-04,5.535936884e-05,2.762083840e-04,4.900006440e-04,-3.305244425e-06,4.866953995e-04,4.672486885e-04,3.472772760e-05,5.019764161e-04,6.875883548e-04,-2.084355432e-05,6.667448004e-04,5.125703219e-04,6.455370353e-05,5.771240254e-04,3.665319380e-04,-3.490646459e-05,3.316254734e-04,5.690607004e-04,4.790107311e-05,6.169617735e-04,4.988847116e-04,-3.419312114e-05,4.646915905e-04,5.560938958e-04,1.488891461e-05,5.709828104e-04,1.345374089e-04,2.283341032e-05,1.573708192e-04,2.103169448e-05,9.719275432e-05,1.182244488e-04,1.088811271e-05,6.053080077e-05,7.141891347e-05,-4.454657246e-05,4.635404797e-05,1.807475516e-06,8.863418762e-05,-2.190550701e-05,6.672868061e-05,2.617511808e-04,8.058104276e-05,3.423322235e-04,2.665758791e-04,1.053676869e-04,3.719435660e-04,3.135680675e-04,2.469586277e-05,3.382639303e-04,4.877997156e-04,-3.736409844e-05,4.504356172e-04,3.166769304e-04,-8.633846484e-06,3.080430839e-04,4.175190459e-04,-2.383291632e-05,3.936861296e-04,2.386952621e-05,2.416692803e-06,2.628621901e-05,1.408560278e-04,-5.078866577e-05,9.006736202e-05,3.537153554e-04,-8.859579493e-06,3.448557759e-04,9.389331344e-05,2.919910911e-06,9.681322435e-05,4.285074720e-04,3.807778855e-05,4.665852606e-04,3.915686107e-04,-9.794433513e-07,3.905891674e-04,3.149841827e-04,-9.594658262e-06,3.053895244e-04,4.688901699e-04,-4.114114439e-05,4.277490256e-04,3.543494834e-04,-3.093710133e-07,3.540401124e-04,5.180043771e-04,-3.794231568e-05,4.800620614e-04,3.135192657e-04,1.663741941e-05,3.301566851e-04,1.720191970e-04,1.781311085e-05,1.898323079e-04,2.927491276e-04,1.507194254e-05,3.078210702e-04,3.015135379e-04,5.791028544e-05,3.594238234e-04
-3.7,1.479791779e-04,5.775683634e-06,1.537548615e-04,5.428991699e-04,-2.721110371e-05,5.156880662e-04,2.413845061e-04,6.211352226e-05,3.034980283e-04,5.175000583e-04,2.231472051e-07,5.177232055e-04,4.919046647e-04,4.136916806e-05,5.332738327e-04,7.240086511e-04,-1.914253698e-05,7.048661142e-04,5.529322863e-04,6.909678143e-05,6.220290678e-04,4.041043224e-04,-3.542855799e-05,3.686757644e-04,6.168853029e-04,5.428858457e-05,6.711738875e-04,5.288764245e-04,-3.589056684e-05,4.929858577e-04,5.826073801e-04,1.660888592e-05,5.992162660e-04,1.521157590e-04,3.093269252e-05,1.830484515e-04,5.537999914e-05,9.476990407e-05,1.501499032e-04,3.402315985e-05,6.544935146e-05,9.947251132e-05,-2.275800090e-05,5.262478372e-05,2.986678282e-05,1.211315001e-04,-1.988773682e-05,1.012437633e-04,2.962337557e-04,9.416390064e-05,3.903976564e-04,3.017540141e-04,1.143845348e-04,4.161385489e-04,3.513422830e-04,2.877824337e-05,3.801205263e-04,5.152002806e-04,-3.691866298e-05,4.782816177e-04,3.397745781e-04,-6.420378706e-06,3.333541994e-04,4.592778100e-04,-2.217897728e-05,4.370988328e-04,3.803707922e-05,3.479602184e-06,4.151668140e-05,1.915333177e-04,-4.655799926e-05,1.449753184e-04,3.913539494e-04,-3.528923067e-06,3.878250263e-04,1.450331298e-04,2.685267313e-06,1.477183971e-04,4.849055674e-04,4.080539730e-05,5.257109647e-04,4.652898120e-04,4.543202010e-06,4.698330140e-04,3.667236399e-04,-8.906533026e-06,3.578171068e-04,5.145048662e-04,-4.223141878e-05,4.722734475e-04,4.094848147e-04,9.487089996e-08,4.095796856e-04,5.832491481e-04,-3.218885926e-05,5.510602888e-04,3.430014471e-04,2.473582751e-05,3.677372746e-04,2.125651613e-04,1.921737637e-05,2.317825377e-04,3.286682964e-04,2.302078069e-05,3.516890771e-04,3.426405958e-04,6.295263326e-05,4.055932291e-04
-3.6,1.532824921e-04,4.566369633e-06,1.578488617e-04,5.752797273e-04,-2.808631197e-05,5.471934153e-04,2.631737861e-04,6.877759525e-05,3.319513814e-04,5.457598981e-04,3.794064071e-06,5.495539622e-04,5.169236335e-04,4.809732792e-05,5.650209615e-04,7.604517888e-04,-1.741473463e-05,7.430370542e-04,5.936561806e-04,7.352897425e-05,6.671851549e-04,4.421503382e-04,-3.591845862e-05,4.062318796e-04,6.645577863e-04,6.048251660e-05,7.250403029e-04,5.592474370e-04,-3.744498457e-05,5.218024525e-04,6.096202466e-04,1.850251180e-05,6.281227584e-04,1.703323406e-04,3.924945337e-05,2.095817940e-04,9.172026841e-05,9.245233489e-05,1.841726033e-04,5.850550102e-05,7.027484639e-05,1.287803474e-04,9.635541720e-07,5.869176658e-05,5.965532076e-05,1.550638899e-04,-1.761285090e-05,1.374510390e-04,3.326559253e-04,1.075601837e-04,4.402161089e-04,3.384294845e-04,1.231383663e-04,4.615678508e-04,3.905178068e-04,3.282231847e-05,4.233401253e-04,5.427962153e-04,-3.640873989e-05,5.063874754e-04,3.639993888e-04,-4.084138757e-06,3.599152500e-04,5.021713765e-04,-2.041105876e-05,4.817603178e-04,5.458956577e-05,4.839893441e-06,5.942945921e-05,2.449596715e-04,-4.206245017e-05,2.028972213e-04,4.297495059e-04,1.742706065e-06,4.314922120e-04,1.978999008e-04,2.425830359e-06,2.003257311e-04,5.428442904e-04,4.340984777e-05,5.862541382e-04,5.408100502e-04,1.029900765e-05,5.511090579e-04,4.195644403e-04,-8.157874235e-06,4.114065661e-04,5.609039752e-04,-4.310339892e-05,5.178005763e-04,4.660567951e-04,4.569673296e-07,4.665137624e-04,6.507027553e-04,-2.666729217e-05,6.240354632e-04,3.737930777e-04,3.272422333e-05,4.065173011e-04,2.548129684e-04,2.064858260e-05,2.754615510e-04,3.665572982e-04,3.049833130e-05,3.970556295e-04,3.853305918e-04,6.785210954e-05,4.531827013e-04
