Time,S1D1HbO,S1D1HbR,S1D1HbT,S2D2HbO,S2D2HbR,S2D2HbT,S3D3HbO,S3D3HbR,S3D3HbT,S4D4HbO,S4D4HbR,S4D4HbT,S5D5HbO,S5D5HbR,S5D5HbT,S6D6HbO,S6D6HbR,S6D6HbT,S7D7HbO,S7D7HbR,S7D7HbT,S8D8HbO,S8D8HbR,S8D8HbT,S9D9HbO,S9D9HbR,S9D9HbT,S10D10HbO,S10D10HbR,S10D10HbT,S11D11HbO,S11D11HbR,S11D11HbT,S12D12HbO,S12D12HbR,S12D12HbT,S13D13HbO,S13D13HbR,S13D13HbT,S14D14HbO,S14D14HbR,S14D14HbT,S15D15HbO,S15D15HbR,S15D15HbT,S16D16HbO,S16D16HbR,S16D16HbT,S17D17HbO,S17D17HbR,S17D17HbT,S18D18HbO,S18D18HbR,S18D18HbT,S19D19HbO,S19D19HbR,S19D19HbT,S20D20HbO,S20D20HbR,S20D20HbT,S21D21HbO,S21D21HbR,S21D21HbT,S22D22HbO,S22D22HbR,S22D22HbT,S23D23HbO,S23D23HbR,S23D23HbT,S24D24HbO,S24D24HbR,S24D24HbT,S25D25HbO,S25D25HbR,S25D25HbT,S26D26HbO,S26D26HbR,S26D26HbT,S27D27HbO,S27D27HbR,S27D27HbT,S28D28HbO,S28D28HbR,S28D28HbT,S29D29HbO,S29D29HbR,S29D29HbT,S30D30HbO,S30D30HbR,S30D30HbT,S31D31HbO,S31D31HbR,S31D31HbT,S32D32HbO,S32D32HbR,S32D32HbT,S33D33HbO,S33D33HbR,S33D33HbT,S34D34HbO,S34D34HbR,S34D34HbT,S35D35HbO,S35D35HbR,S35D35HbT,S36D36HbO,S36D36HbR,S36D36HbT,
-10,3.010718324e-04,-2.966010392e-04,4.470793116e-06,-2.433054851e-04,-2.322761841e-04,-4.755816692e-04,4.228818527e-04,-1.807204010e-04,2.421614517e-04,4.868867533e-05,-1.246466785e-04,-7.595800318e-05,-2.738750152e-04,-3.232024765e-04,-5.970774917e-04,-9.707377977e-04,4.765965236e-05,-9.230781453e-04,-9.216552287e-04,3.875253105e-05,-8.829026977e-04,-8.585968391e-04,-6.970138289e-05,-9.282982220e-04,-5.029784553e-05,-9.129558104e-05,-1.415934266e-04,-3.772052910e-04,-2.013668563e-04,-5.785721473e-04,9.441726736e-04,-2.515290600e-04,6.926436136e-04,-8.528494452e-04,-1.260952338e-04,-9.789446790e-04,-3.415793674e-04,-7.802245779e-05,-4.196018252e-04,-4.836191138e-04,-9.806690755e-05,-5.816860214e-04,-4.606029045e-04,-2.282696839e-04,-6.888725884e-04,-1.912393382e-04,-7.175904569e-05,-2.629983839e-04,-2.133973258e-04,-1.637130856e-04,-3.771104115e-04,-2.080796098e-04,-4.436014202e-05,-2.524397518e-04,-1.187122562e-04,-5.253889303e-05,-1.712511492e-04,-8.881911753e-04,-1.613851326e-04,-1.049576308e-03,-2.131488335e-04,-4.327548935e-05,-2.564243229e-04,9.210557039e-05,-1.255201141e-05,7.955355897e-05,9.909813607e-04,7.962945338e-05,1.070610814e-03,6.084375164e-04,2.110893759e-04,8.195268923e-04,-2.794190127e-04,4.354821710e-04,1.560631583e-04,-3.613648705e-05,3.425193778e-04,3.063828908e-04,-2.381833838e-04,2.977446658e-04,5.956128201e-05,-3.444312575e-04,2.202983866e-04,-1.241328709e-04,-9.757947823e-05,-4.521807470e-05,-1.427975529e-04,-1.690024718e-04,-2.875680396e-04,-4.565705114e-04,-3.267373141e-04,4.787579472e-06,-3.219497347e-04,-3.440301002e-04,-1.676061992e-04,-5.116362994e-04,-3.206787351e-04,-2.610290965e-05,-3.467816447e-04,7.997663326e-05,-2.556565637e-04,-1.756799304e-04,-2.869407544e-04,-2.753363251e-04,-5.622770795e-04,-1.727425570e-04,-1.200881934e-04,-2.928307504e-04
-9.9,3.033275896e-04,-2.763427180e-04,2.698487155e-05,-2.939120309e-04,-2.203737778e-04,-5.142858087e-04,4.082183049e-04,-1.648956700e-04,2.433226349e-04,1.843364145e-05,-1.161868687e-04,-9.775322730e-05,-2.934793962e-04,-3.003170606e-04,-5.937964567e-04,-9.704820904e-04,7.173903563e-05,-8.987430548e-04,-9.220047151e-04,4.120152433e-05,-8.808031908e-04,-8.773559306e-04,-6.821612032e-05,-9.455720509e-04,8.150434486e-06,-8.343267792e-05,-7.528224343e-05,-3.802039842e-04,-2.044071608e-04,-5.846111450e-04,9.710691065e-04,-2.372149647e-04,7.338541418e-04,-9.204957116e-04,-1.174316825e-04,-1.037927394e-03,-4.458712416e-04,-7.057757062e-05,-5.164488122e-04,-5.556309071e-04,-7.572983811e-05,-6.313607452e-04,-5.604203752e-04,-2.152687771e-04,-7.756891524e-04,-2.889351939e-04,-6.259092148e-05,-3.515261153e-04,-3.032738023e-04,-1.513082825e-04,-4.545820849e-04,-2.958900076e-04,-4.073045944e-05,-3.366204670e-04,-1.732480004e-04,-5.976009450e-05,-2.330080949e-04,-8.808425611e-04,-1.559767663e-04,-1.036819327e-03,-1.774847197e-04,-3.823917123e-05,-2.157238910e-04,8.203395954e-05,-9.527603256e-06,7.250635629e-05,9.894110992e-04,7.799033539e-05,1.067401435e-03,6.178071175e-04,2.128629551e-04,8.306700727e-04,-3.245250513e-04,4.096977679e-04,8.517271661e-05,-8.746838832e-05,3.373666395e-04,2.498982511e-04,-3.087761249e-04,2.972670800e-04,-1.150904499e-05,-3.905822179e-04,2.213380767e-04,-1.692441412e-04,-1.756923858e-04,-4.007338341e-05,-2.157657692e-04,-2.081391822e-04,-2.854586390e-04,-4.935978211e-04,-4.108930776e-04,-1.833088994e-06,-4.127261666e-04,-3.867063639e-04,-1.719394004e-04,-5.586457643e-04,-3.778983059e-04,-4.083960395e-05,-4.187379099e-04,2.735941889e-05,-2.545521188e-04,-2.271926999e-04,-3.365461464e-04,-2.754064332e-04,-6.119525796e-04,-1.937038150e-04,-1.302496249e-04,-3.239534399e-04
-9.8,3.025503753e-04,-2.586492663e-04,4.390110898e-05,-3.430574219e-04,-2.090740473e-04,-5.521314692e-04,3.938780991e-04,-1.494227950e-04,2.444553040e-04,-1.105720084e-05,-1.076283579e-04,-1.186855587e-04,-3.111131145e-04,-2.770753748e-04,-5.881884893e-04,-9.649541823e-04,9.472164445e-05,-8.702325379e-04,-9.180890644e-04,4.363503823e-05,-8.744540261e-04,-8.910262080e-04,-6.723143625e-05,-9.582576443e-04,6.390602429e-05,-7.578550225e-05,-1.187947796e-05,-3.831137310e-04,-2.065507681e-04,-5.896644991e-04,9.938300901e-04,-2.229328833e-04,7.708972068e-04,-9.834167270e-04,-1.083723815e-04,-1.091789108e-03,-5.482222570e-04,-6.245824212e-05,-6.106804991e-04,-6.249763594e-04,-5.360988915e-05,-6.785862486e-04,-6.578263697e-04,-2.019237258e-04,-8.597500955e-04,-3.861994036e-04,-5.262133293e-05,-4.388207366e-04,-3.926751283e-04,-1.376676662e-04,-5.303427945e-04,-3.821974262e-04,-3.719950764e-05,-4.193969338e-04,-2.278480639e-04,-6.667633221e-05,-2.945243961e-04,-8.685608677e-04,-1.495671154e-04,-1.018127983e-03,-1.415014064e-04,-3.313945052e-05,-1.746408569e-04,7.190186289e-05,-5.603088746e-06,6.629877415e-05,9.863745761e-04,7.622516005e-05,1.062599736e-03,6.241375786e-04,2.142427406e-04,8.383803192e-04,-3.686325346e-04,3.837318431e-04,1.509930842e-05,-1.385810677e-04,3.316749434e-04,1.930938756e-04,-3.793041136e-04,2.961985506e-04,-8.310556303e-05,-4.362631239e-04,2.217606494e-04,-2.145024746e-04,-2.529547205e-04,-3.498293014e-05,-2.879376507e-04,-2.472485297e-04,-2.820189594e-04,-5.292674891e-04,-4.941503877e-04,-7.220259409e-06,-5.013706471e-04,-4.269150835e-04,-1.757710399e-04,-6.026861234e-04,-4.347140966e-04,-5.476470145e-05,-4.894787980e-04,-2.575384718e-05,-2.524149407e-04,-2.781687879e-04,-3.859656548e-04,-2.738856739e-04,-6.598513287e-04,-2.154549906e-04,-1.391913115e-04,-3.546463022e-04
-9.7,2.991175336e-04,-2.433811234e-04,5.573641015e-05,-3.902089781e-04,-1.982822725e-04,-5.884912506e-04,3.800279954e-04,-1.343193317e-04,2.457086638e-04,-3.962698302e-05,-9.899904618e-05,-1.386260292e-04,-3.267575168e-04,-2.535623685e-04,-5.803198853e-04,-9.545006504e-04,1.165430792e-04,-8.379575712e-04,-9.099535185e-04,4.606838978e-05,-8.638851287e-04,-8.995321630e-04,-6.680930709e-05,-9.663414701e-04,1.166567747e-04,-6.834085904e-05,4.831591564e-05,-3.859305018e-04,-2.077587986e-04,-5.936893004e-04,1.012304517e-03,-2.087446290e-04,8.035598875e-04,-1.041130579e-03,-9.896317050e-05,-1.140093750e-03,-6.480435817e-04,-5.371943512e-05,-7.017630169e-04,-6.913321745e-04,-3.182853995e-05,-7.231607145e-04,-7.522891749e-04,-1.882516949e-04,-9.405408699e-04,-4.824710606e-04,-4.189823491e-05,-5.243692955e-04,-4.811901967e-04,-1.228095200e-04,-6.039997167e-04,-4.664553283e-04,-3.375624640e-05,-5.002115747e-04,-2.822704037e-04,-7.322165421e-05,-3.554920580e-04,-8.515854029e-04,-1.422247530e-04,-9.938101560e-04,-1.054285659e-04,-2.799964652e-05,-1.334282124e-04,6.175897729e-05,-7.908180350e-07,6.096815926e-05,9.820187834e-04,7.437592152e-05,1.056394705e-03,6.279921388e-04,2.152999285e-04,8.432920672e-04,-4.118565291e-04,3.577951144e-04,-5.406141474e-05,-1.892699584e-04,3.254686008e-04,1.361986424e-04,-4.494005141e-04,2.945046191e-04,-1.548958949e-04,-4.812626686e-04,2.215999695e-04,-2.596626991e-04,-3.290219146e-04,-2.993792655e-05,-3.589598411e-04,-2.861878898e-04,-2.772831530e-04,-5.634710428e-04,-5.762104445e-04,-1.128299259e-05,-5.874934370e-04,-4.646257072e-04,-1.790689548e-04,-6.436946620e-04,-4.908093011e-04,-6.769828878e-05,-5.585075899e-04,-7.913215930e-05,-2.492409097e-04,-3.283730690e-04,-4.350781003e-04,-2.707604987e-04,-7.058385990e-04,-2.380901510e-04,-1.467264762e-04,-3.848166272e-04
-9.6,2.934099603e-04,-2.303927751e-04,6.301718519e-05,-4.348505707e-04,-1.878960730e-04,-6.227466437e-04,3.668440065e-04,-1.195983775e-04,2.472456290e-04,-6.713045500e-05,-9.032564873e-05,-1.574561037e-04,-3.403988849e-04,-2.298614645e-04,-5.702603494e-04,-9.395109699e-04,1.371148463e-04,-8.023961236e-04,-8.976856041e-04,4.851566801e-05,-8.491699361e-04,-9.028709325e-04,-6.700290767e-05,-9.698738401e-04,1.661150355e-04,-6.108013121e-05,1.050349043e-04,-3.886545482e-04,-2.080003299e-04,-5.966548782e-04,1.026371459e-03,-1.947073499e-04,8.316641087e-04,-1.093184926e-03,-8.923791665e-05,-1.182422843e-03,-7.447730236e-04,-4.441135377e-05,-7.891843774e-04,-7.543925090e-04,-1.050352098e-05,-7.648960300e-04,-8.433005936e-04,-1.742704188e-04,-1.017571012e-03,-5.771910245e-04,-3.047710873e-05,-6.076681332e-04,-5.684017776e-04,-1.067903686e-04,-6.751921462e-04,-5.481378247e-04,-3.038103190e-05,-5.785188566e-04,-3.362788351e-04,-7.932448984e-05,-4.156033249e-04,-8.302133602e-04,-1.340339392e-04,-9.642472994e-04,-6.951198613e-05,-2.284402970e-05,-9.235601582e-05,5.164582180e-05,4.890551033e-06,5.653637283e-05,9.764699971e-04,7.248128758e-05,1.048951285e-03,6.298793789e-04,2.160908853e-04,8.459702642e-04,-4.542856069e-04,3.320919967e-04,-1.221936102e-04,-2.393276565e-04,3.187764146e-04,7.944875809e-05,-5.186982929e-04,2.921454104e-04,-2.265528825e-04,-5.253647820e-04,2.208879582e-04,-3.044768239e-04,-4.035596616e-04,-2.493387739e-05,-4.284935390e-04,-3.248262765e-04,-2.712944462e-04,-5.961207227e-04,-6.567902990e-04,-1.393992294e-05,-6.707302220e-04,-4.998483447e-04,-1.817996704e-04,-6.816480151e-04,-5.458882427e-04,-7.946993535e-05,-6.253581781e-04,-1.325597994e-04,-2.450309049e-04,-3.775907043e-04,-4.837840492e-04,-2.660375321e-04,-7.498215813e-04,-2.617138962e-04,-1.526821844e-04,-4.143960806e-04
-9.5,2.858057964e-04,-2.195349304e-04,6.627086597e-05,-4.764934487e-04,-1.778052954e-04,-6.542987441e-04,3.545085462e-04,-1.052689236e-04,2.492396226e-04,-9.343541488e-05,-8.163386205e-05,-1.750692769e-04,-3.520283867e-04,-2.060539446e-04,-5.580823313e-04,-9.204169773e-04,1.563281391e-04,-7.640888382e-04,-8.814149691e-04,5.098927644e-05,-8.304256926e-04,-9.011155364e-04,-6.785374796e-05,-9.689692843e-04,2.120205331e-04,-5.397970653e-05,1.580408265e-04,-3.912901781e-04,-2.072524511e-04,-5.985426292e-04,1.035940753e-03,-1.808730401e-04,8.550677128e-04,-1.139162407e-03,-7.921938795e-05,-1.218381795e-03,-8.378790017e-04,-3.458133828e-05,-8.724603400e-04,-8.138701207e-04,1.025230407e-05,-8.036178166e-04,-9.303806718e-04,-1.599990767e-04,-1.090379748e-03,-6.698097314e-04,-1.841908784e-05,-6.882288193e-04,-6.538966334e-04,-8.970151141e-05,-7.435981448e-04,-6.267442800e-04,-2.704742500e-05,-6.537917050e-04,-3.896471116e-04,-8.490632121e-05,-4.745534328e-04,-8.047958802e-04,-1.250931085e-04,-9.298889887e-04,-3.401071190e-05,-1.769748899e-05,-5.170820089e-05,4.159590365e-05,1.141378949e-05,5.300969315e-05,9.698339147e-04,7.057631961e-05,1.040410234e-03,6.302538903e-04,2.166583602e-04,8.469122505e-04,-4.959817396e-04,3.068184046e-04,-1.891633349e-04,-2.885451079e-04,3.116306545e-04,2.308554659e-05,-5.868303263e-04,2.890730030e-04,-2.977573232e-04,-5.683522748e-04,2.196542490e-04,-3.486980258e-04,-4.762436088e-04,-1.997233246e-05,-4.962159413e-04,-3.630433724e-04,-2.641045524e-04,-6.271479249e-04,-7.356222506e-04,-1.512139710e-05,-7.507436477e-04,-5.326296631e-04,-1.839288064e-04,-7.165584696e-04,-5.996789105e-04,-8.992322837e-05,-6.896021388e-04,-1.858381179e-04,-2.397900552e-04,-4.256281731e-04,-5.320020334e-04,-2.597452142e-04,-7.917472476e-04,-2.864318684e-04,-1.569049976e-04,-4.433368660e-04
-9.4,2.766754380e-04,-2.106564047e-04,6.601903326e-05,-5.146850342e-04,-1.678919216e-04,-6.825769558e-04,3.432077931e-04,-9.133632761e-05,2.518714655e-04,-1.184228700e-04,-7.294860995e-05,-1.913714799e-04,-3.616412244e-04,-1.822184899e-04,-5.438597142e-04,-8.976927320e-04,1.740618117e-04,-7.236309203e-04,-8.613112844e-04,5.349949066e-05,-8.078117938e-04,-8.944154527e-04,-6.938853376e-05,-9.638039865e-04,2.541442017e-04,-4.701161014e-05,2.071325916e-04,-3.938439439e-04,-2.055004847e-04,-5.993444286e-04,1.040954686e-03,-1.672882355e-04,8.736664505e-04,-1.178684999e-03,-6.892040786e-05,-1.247605407e-03,-9.268620809e-04,-2.427585695e-05,-9.511379379e-04,-8.694961951e-04,3.033208577e-05,-8.391641093e-04,-1.013080490e-03,-1.454591812e-04,-1.158539671e-03,-7.597927445e-04,-5.789617636e-06,-7.655823621e-04,-7.372742951e-04,-7.166363921e-05,-8.089379343e-04,-7.018024424e-04,-2.372376410e-05,-7.255262065e-04,-4.421600248e-04,-8.988194919e-05,-5.320419740e-04,-7.757322724e-04,-1.155130706e-04,-8.912453430e-04,8.072711833e-07,-1.258508300e-05,-1.177781181e-05,3.163890829e-05,1.874170745e-05,5.038061573e-05,9.621971258e-04,6.869226518e-05,1.030889391e-03,6.295184274e-04,2.170328211e-04,8.465512485e-04,-5.369777469e-04,2.821598482e-04,-2.548178988e-04,-3.367103402e-04,3.040663339e-04,-3.264400626e-05,-6.534275516e-04,2.852309163e-04,-3.681966353e-04,-6.100105172e-04,2.179269509e-04,-3.920835663e-04,-5.467581200e-04,-1.506212472e-05,-5.618202447e-04,-4.007268516e-04,-2.557727984e-04,-6.564996500e-04,-8.124508748e-04,-1.477249829e-05,-8.272233731e-04,-5.630463492e-04,-1.854215616e-04,-7.484679107e-04,-6.519320031e-04,-9.892078578e-05,-7.508527888e-04,-2.387853018e-04,-2.335271606e-04,-4.723124624e-04,-5.796623456e-04,-2.519348850e-04,-8.315972306e-04,-3.123402620e-04,-1.592660488e-04,-4.716063109e-04
-9.3,2.663776695e-04,-2.036057976e-04,6.277187191e-05,-5.490157043e-04,-1.580308053e-04,-7.070465097e-04,3.331288584e-04,-7.780292732e-05,2.553259311e-04,-1.419862682e-04,-6.429440576e-05,-2.062806739e-04,-3.692354242e-04,-1.584308800e-04,-5.276663041e-04,-8.718516513e-04,1.901910851e-04,-6.816605662e-04,-8.375806139e-04,5.605403890e-05,-7.815265750e-04,-8.829940285e-04,-7.161631054e-05,-9.546103390e-04,2.922918792e-04,-4.014424999e-05,2.521476292e-04,-3.963222967e-04,-2.027382605e-04,-5.990605572e-04,1.041389615e-03,-1.539938468e-04,8.873957682e-04,-1.211418450e-03,-5.834506519e-05,-1.269763515e-03,-1.011255338e-03,-1.354221413e-05,-1.024797552e-03,-9.210202069e-04,4.963613957e-05,-8.713840673e-04,-1.090983997e-03,-1.306755183e-04,-1.221659516e-03,-8.466247840e-04,7.342510748e-06,-8.392822733e-04,-8.181546965e-04,-5.281968595e-05,-8.709743824e-04,-7.728710904e-04,-2.037426280e-05,-7.932453532e-04,-4.936123771e-04,-9.416107009e-05,-5.877734471e-04,-7.434627117e-04,-1.054148786e-04,-8.488775903e-04,3.467012482e-05,-7.531509904e-06,2.713861492e-05,2.180339363e-05,2.682691788e-05,4.863031151e-05,9.536289496e-04,6.685637067e-05,1.020485320e-03,6.280267935e-04,2.172338349e-04,8.452606284e-04,-5.772739164e-04,2.582894985e-04,-3.189844179e-04,-3.836065723e-04,2.961207245e-04,-8.748584775e-05,-7.181178446e-04,2.805562208e-04,-4.375616237e-04,-6.501314921e-04,2.157345255e-04,-4.343969666e-04,-6.147956476e-04,-1.021997434e-05,-6.250156220e-04,-4.377694415e-04,-2.463651314e-04,-6.841345729e-04,-8.870281049e-04,-1.285725167e-05,-8.998853566e-04,-5.911971983e-04,-1.862433046e-04,-7.774405029e-04,-7.024185682e-04,-1.063484312e-04,-8.087669994e-04,-2.912347219e-04,-2.262541611e-04,-5.174888830e-04,-6.267001022e-04,-2.426809967e-04,-8.693810989e-04,-3.395161940e-04,-1.596653003e-04,-4.991814944e-04
-9.2,2.552562848e-04,-1.982330183e-04,5.702326644e-05,-5.791242431e-04,-1.480918465e-04,-7.272160896e-04,3.244560925e-04,-6.466875282e-05,2.597873396e-04,-1.640307286e-04,-5.569565201e-05,-2.197263806e-04,-3.748111267e-04,-1.347637868e-04,-5.095749135e-04,-8.434386243e-04,2.045938922e-04,-6.388447321e-04,-8.104612579e-04,5.865780786e-05,-7.518034500e-04,-8.671428526e-04,-7.452645571e-05,-9.416693084e-04,3.263065703e-04,-3.334319667e-05,2.929633736e-04,-3.987299984e-04,-1.989684036e-04,-5.976984021e-04,1.037256174e-03,-1.410250877e-04,8.962310862e-04,-1.237077835e-03,-4.748995069e-05,-1.284567786e-03,-1.090625348e-03,-2.429641160e-06,-1.093054989e-03,-9.682111340e-04,6.807302706e-05,-9.001381069e-04,-1.163710236e-03,-1.156771133e-04,-1.279387349e-03,-9.298138218e-04,2.090600843e-05,-9.089078133e-04,-8.961860441e-04,-3.332600744e-05,-9.295120516e-04,-8.395433742e-04,-1.695959802e-05,-8.565029722e-04,-5.438078801e-04,-9.765035686e-05,-6.414582369e-04,-7.084600182e-04,-9.492728582e-05,-8.033873041e-04,6.730710802e-05,-2.560656311e-06,6.474645171e-05,1.211784829e-05,3.561246712e-05,4.773031541e-05,9.441827621e-04,6.509169747e-05,1.009274460e-03,6.260866270e-04,2.172715083e-04,8.433581353e-04,-6.168361448e-04,2.353662206e-04,-3.814699242e-04,-4.290121409e-04,2.878329550e-04,-1.411791859e-04,-7.805273515e-04,2.749835837e-04,-5.055437678e-04,-6.885189322e-04,2.131085036e-04,-4.754104285e-04,-6.800577891e-04,-5.470416031e-06,-6.855282052e-04,-4.740667553e-04,-2.359531985e-04,-7.100199538e-04,-9.591078984e-04,-9.363215621e-06,-9.684711141e-04,-6.171951843e-04,-1.863603820e-04,-8.035555663e-04,-7.509288065e-04,-1.121173768e-04,-8.630461834e-04,-3.430329515e-04,-2.179856753e-04,-5.610186268e-04,-6.730492539e-04,-2.320804470e-04,-9.051297009e-04,-3.680106824e-04,-1.580346308e-04,-5.260453133e-04
-9.1,2.436365782e-04,-1.943906050e-04,4.924597324e-05,-6.047024018e-04,-1.379437900e-04,-7.426461918e-04,3.173661073e-04,-5.193227902e-05,2.654338283e-04,-1.844731208e-04,-4.717664173e-05,-2.316497625e-04,-3.783710717e-04,-1.112865955e-04,-4.896576672e-04,-8.130183630e-04,2.171554775e-04,-5.958628855e-04,-7.802200185e-04,6.131277399e-05,-7.189072445e-04,-8.472130891e-04,-7.808826283e-05,-9.253013520e-04,3.560685979e-04,-2.657196792e-05,3.294966299e-04,-4.010700692e-04,-1.942025753e-04,-5.952726445e-04,1.028597426e-03,-1.284114906e-04,9.001859352e-04,-1.255434222e-03,-3.634564844e-05,-1.291779870e-03,-1.164575057e-03,9.010495607e-06,-1.155564561e-03,-1.010860378e-03,8.556042098e-05,-9.252999575e-04,-1.230916755e-03,-1.004981273e-04,-1.331414882e-03,-1.008896233e-03,3.482782526e-05,-9.740684080e-04,-9.710537032e-04,-1.334227646e-05,-9.843959797e-04,-9.014514161e-04,-1.343719108e-05,-9.148886072e-04,-5.925595325e-04,-1.002554293e-04,-6.928149618e-04,-6.712209663e-04,-8.418387310e-05,-7.554048394e-04,9.845273739e-05,2.304685026e-06,1.007574224e-04,2.609764194e-06,4.503309452e-05,4.764285872e-05,9.338964885e-04,6.341697772e-05,9.973134662e-04,6.239615935e-04,2.171480608e-04,8.411096544e-04,-6.555968796e-04,2.135327333e-04,-4.420641463e-04,-4.727035937e-04,2.792437462e-04,-1.934598476e-04,-8.402845331e-04,2.684503813e-04,-5.718341518e-04,-7.249941736e-04,2.100861374e-04,-5.149080363e-04,-7.422580569e-04,-8.451806142e-07,-7.431032376e-04,-5.095162596e-04,-2.246134890e-04,-7.341297486e-04,-1.028442146e-03,-4.305179978e-06,-1.032747326e-03,-6.411606832e-04,-1.857410747e-04,-8.269017579e-04,-7.972733479e-04,-1.161641739e-04,-9.134375219e-04,-3.940380969e-04,-2.087389688e-04,-6.027770657e-04,-7.186385943e-04,-2.202509013e-04,-9.388894956e-04,-3.978448202e-04,-1.543395604e-04,-5.521843806e-04
-9,2.318214397e-04,-1.919347368e-04,3.988670294e-05,-6.254986325e-04,-1.274594372e-04,-7.529580697e-04,3.120215968e-04,-3.959120485e-05,2.724303919e-04,-2.032432226e-04,-3.876129532e-05,-2.420045179e-04,-3.799224678e-04,-8.806525370e-05,-4.679877215e-04,-7.811627816e-04,2.277730809e-04,-5.533897007e-04,-7.471492452e-04,6.401815135e-05,-6.831310939e-04,-8.236040177e-04,-8.225254960e-05,-9.058565673e-04,3.814938569e-04,-1.979280297e-05,3.617010539e-04,-4.033452768e-04,-1.884614982e-04,-5.918067750e-04,1.015485255e-03,-1.161770082e-04,8.993082464e-04,-1.266321527e-03,-2.489886043e-05,-1.291220387e-03,-1.232748680e-03,2.072527305e-05,-1.212023407e-03,-1.048785793e-03,1.020256467e-04,-9.467601459e-04,-1.292304114e-03,-8.517854842e-05,-1.377482663e-03,-1.083442909e-03,4.903360475e-05,-1.034409304e-03,-1.042489191e-03,6.978736466e-06,-1.035510455e-03,-9.582719556e-04,-9.761588679e-06,-9.680335442e-04,-6.396916564e-04,-1.018827126e-04,-7.415743690e-04,-6.322572785e-04,-7.332006796e-05,-7.055773465e-04,1.278499691e-04,7.042986298e-06,1.348929554e-04,-6.696905157e-06,5.501712708e-05,4.832022192e-05,9.227925014e-04,6.184655399e-05,9.846390554e-04,6.218729830e-04,2.168595377e-04,8.387325207e-04,-6.934588931e-04,1.929142157e-04,-5.005446773e-04,-5.144615851e-04,2.703953619e-04,-2.440662232e-04,-8.970268050e-04,2.609027763e-04,-6.361240287e-04,-7.594010424e-04,2.067117861e-04,-5.526892563e-04,-8.011256421e-04,3.617763157e-06,-7.975078790e-04,-5.440172526e-04,-2.124264068e-04,-7.564436594e-04,-1.094778583e-03,2.272726142e-06,-1.092505856e-03,-6.632165383e-04,-1.843564667e-04,-8.475730051e-04,-8.412865572e-04,-1.184491931e-04,-9.597357503e-04,-4.441184807e-04,-1.985345514e-04,-6.426530320e-04,-7.633900598e-04,-2.073278400e-04,-9.707178998e-04,-4.290085644e-04,-1.485795963e-04,-5.775881608e-04
-8.9,2.200872667e-04,-1.907259216e-04,2.936134513e-05,-6.413209682e-04,-1.165217454e-04,-7.578427136e-04,3.085645185e-04,-2.764327055e-05,2.809212479e-04,-2.202855332e-04,-3.047286653e-05,-2.507583997e-04,-3.794798590e-04,-6.516220667e-05,-4.446420657e-04,-7.484381928e-04,2.363598294e-04,-5.120783634e-04,-7.115643213e-04,6.677065137e-05,-6.447936699e-04,-7.967499760e-04,-8.695479085e-05,-8.837047668e-04,4.025311028e-04,-1.296741487e-05,3.895636880e-04,-4.055604359e-04,-1.817746474e-04,-5.873350833e-04,9.980159963e-04,-1.043401839e-04,8.936758123e-04,-1.269642501e-03,-1.313529792e-05,-1.282777799e-03,-1.294837441e-03,3.266099000e-05,-1.262176451e-03,-1.081835681e-03,1.174059260e-04,-9.644297545e-04,-1.347620677e-03,-6.976451643e-05,-1.417385194e-03,-1.153065713e-03,6.344788168e-05,-1.089617831e-03,-1.110277107e-03,2.749938736e-05,-1.082777720e-03,-1.009732231e-03,-5.885405334e-06,-1.015617636e-03,-6.850426288e-04,-1.024416580e-04,-7.874842868e-04,-5.920863469e-04,-6.247026317e-05,-6.545566100e-04,1.552526851e-04,1.163412403e-05,1.668868091e-04,-1.578482022e-05,6.548868117e-05,4.970386095e-05,9.108775826e-04,6.039041331e-05,9.712679959e-04,6.200011209e-04,2.163975648e-04,8.363986858e-04,-7.303008669e-04,1.736175798e-04,-5.566832871e-04,-5.540778352e-04,2.613316231e-04,-2.927462122e-04,-9.504093465e-04,2.523028549e-04,-6.981064917e-04,-7.916083067e-04,2.030365669e-04,-5.885717397e-04,-8.564092661e-04,7.875509282e-06,-8.485337568e-04,-5.774712658e-04,-1.994751678e-04,-7.769464335e-04,-1.157860514e-03,1.029648834e-05,-1.147564025e-03,-6.834848634e-04,-1.821811079e-04,-8.656659713e-04,-8.828299316e-04,-1.189552475e-04,-1.001785179e-03,-4.931513365e-04,-1.873971752e-04,-6.805485117e-04,-8.072185351e-04,-1.934605208e-04,-1.000679056e-03,-4.614609625e-04,-1.407873992e-04,-6.022483618e-04
-8.8,2.086803068e-04,-1.906294191e-04,1.805088770e-05,-6.520388972e-04,-1.050300720e-04,-7.570689692e-04,3.071095120e-04,-1.608707491e-05,2.910224371e-04,-2.355610051e-04,-2.233370547e-05,-2.578947106e-04,-3.770681340e-04,-4.263645468e-05,-4.197045887e-04,-7.153918023e-04,2.428457420e-04,-4.725460603e-04,-6.738007808e-04,6.956472800e-05,-6.042360528e-04,-7.671073843e-04,-9.211870772e-05,-8.592260920e-04,4.191595399e-04,-6.057751867e-06,4.131017880e-04,-4.077243288e-04,-1.741796627e-04,-5.819039914e-04,9.763066263e-04,-9.291438106e-05,8.833922452e-04,-1.265373107e-03,-1.043009411e-06,-1.266416116e-03,-1.350584149e-03,4.476346129e-05,-1.305820688e-03,-1.109891562e-03,1.316484200e-04,-9.782431424e-04,-1.396666409e-03,-5.430822815e-05,-1.450974637e-03,-1.217423575e-03,7.799425926e-05,-1.139429316e-03,-1.174257975e-03,4.810147433e-05,-1.126156500e-03,-1.055614980e-03,-1.760980636e-06,-1.057375960e-03,-7.284669751e-04,-1.018476398e-04,-8.303146149e-04,-5.512217701e-04,-5.176517606e-05,-6.029869461e-04,1.804280970e-04,1.605946828e-05,1.964875653e-04,-2.464544274e-05,7.636934396e-05,5.172390123e-05,8.981436999e-04,5.905429052e-05,9.571979904e-04,6.184871691e-04,2.157510113e-04,8.342381804e-04,-7.659827921e-04,1.557312169e-04,-6.102515753e-04,-5.913608459e-04,2.520976880e-04,-3.392631580e-04,-1.000113876e-03,2.426356673e-04,-7.574782089e-04,-8.215094957e-04,1.991168033e-04,-6.223926924e-04,-9.078803836e-04,1.188203584e-05,-8.959983478e-04,-6.097821342e-04,-1.858445026e-04,-7.956266368e-04,-1.217427834e-03,1.966295395e-05,-1.197764880e-03,-7.020847793e-04,-1.791934856e-04,-8.812782649e-04,-9.217932258e-04,-1.176878261e-04,-1.039481052e-03,-5.410209695e-04,-1.753569378e-04,-7.163779074e-04,-8.500315885e-04,-1.788075954e-04,-1.028839184e-03,-4.951304093e-04,-1.310272002e-04,-6.261576095e-04
-8.7,1.978141011e-04,-1.915154161e-04,6.298684959e-06,-6.575839683e-04,-9.290578226e-05,-7.504897506e-04,3.077383853e-04,-4.922814205e-06,3.028155711e-04,-2.490480909e-04,-1.436497336e-05,-2.634130642e-04,-3.727247586e-04,-2.054370482e-05,-3.932684635e-04,-6.825381340e-04,2.471761718e-04,-4.353619622e-04,-6.342102799e-04,7.239267540e-05,-5.618176045e-04,-7.351431798e-04,-9.765947810e-05,-8.328026579e-04,4.313876655e-04,9.731519725e-07,4.323608175e-04,-4.098502684e-04,-1.657216310e-04,-5.755718994e-04,9.504924915e-04,-8.190810690e-05,8.685843846e-04,-1.253565017e-03,1.138446632e-05,-1.242180551e-03,-1.399785132e-03,5.697751335e-05,-1.342807619e-03,-1.132869038e-03,1.447101413e-04,-9.881588963e-04,-1.439294672e-03,-3.886757009e-05,-1.478162242e-03,-1.276227345e-03,9.259567205e-05,-1.183631673e-03,-1.234326370e-03,6.868647738e-05,-1.165639892e-03,-1.095761530e-03,2.657587282e-06,-1.093103943e-03,-7.698360054e-04,-1.000250922e-04,-8.698610976e-04,-5.101639553e-04,-4.132948581e-05,-5.514934411e-04,2.031596214e-04,2.030185209e-05,2.234614735e-04,-3.327935947e-05,8.757871540e-05,5.429935593e-05,8.845699538e-04,5.783981044e-05,9.424097642e-04,6.174356851e-04,2.149074635e-04,8.323431487e-04,-8.003491440e-04,1.393247488e-04,-6.610243952e-04,-6.261388325e-04,2.427395235e-04,-3.833993090e-04,-1.045854241e-03,2.319141042e-04,-8.139401371e-04,-8.490206074e-04,1.950119546e-04,-6.540086528e-04,-9.553354299e-04,1.559063400e-05,-9.397447959e-04,-6.408555419e-04,-1.716191985e-04,-8.124747403e-04,-1.273219047e-03,3.024167060e-05,-1.242977376e-03,-7.191301413e-04,-1.753763341e-04,-8.945064754e-04,-9.580919990e-04,-1.146771650e-04,-1.072769164e-03,-5.876160296e-04,-1.624504386e-04,-7.500664682e-04,-8.917280766e-04,-1.635330110e-04,-1.055261088e-03,-5.299135325e-04,-1.193930975e-04,-6.493066300e-04
-8.6,1.876683443e-04,-1.932589084e-04,-5.590564069e-06,-6.579493024e-04,-8.009659591e-05,-7.380458983e-04,3.104960096e-04,5.847092803e-06,3.163431024e-04,-2.607429395e-04,-6.586260341e-06,-2.673291999e-04,-3.665008659e-04,1.063446289e-06,-3.654374196e-04,-6.503467996e-04,2.493098190e-04,-4.010369805e-04,-5.931552845e-04,7.524447817e-05,-5.179108063e-04,-7.013253290e-04,-1.034861630e-04,-8.048114920e-04,4.392532877e-04,8.160187514e-06,4.474134753e-04,-4.119552142e-04,-1.564524002e-04,-5.684076144e-04,9.207265234e-04,-7.132547994e-05,8.494010434e-04,-1.234346782e-03,2.414574654e-05,-1.210201035e-03,-1.442289736e-03,6.924585945e-05,-1.373043877e-03,-1.150717244e-03,1.565578050e-04,-9.941594392e-04,-1.475412200e-03,-2.350561372e-05,-1.498917814e-03,-1.329242821e-03,1.071746140e-04,-1.222068207e-03,-1.290425053e-03,8.917308466e-05,-1.201251969e-03,-1.130072564e-03,7.412483558e-06,-1.122660080e-03,-8.090370564e-04,-9.691015131e-05,-9.059472077e-04,-4.693912018e-04,-3.127967607e-05,-5.006708778e-04,2.232502353e-04,2.434542181e-05,2.475956571e-04,-4.169481590e-05,9.903400435e-05,5.733918844e-05,8.701252828e-04,5.674465328e-05,9.268699361e-04,6.169177539e-04,2.138544663e-04,8.307722201e-04,-8.332293547e-04,1.244483990e-04,-7.087809557e-04,-6.582602393e-04,2.333032925e-04,-4.249569468e-04,-1.087377996e-03,2.201806489e-04,-8.671973468e-04,-8.740764640e-04,1.907823463e-04,-6.832941177e-04,-9.985974830e-04,1.895687326e-05,-9.796406097e-04,-6.705987280e-04,-1.568825637e-04,-8.274812916e-04,-1.324974293e-03,4.187764979e-05,-1.283096643e-03,-7.347268837e-04,-1.707168075e-04,-9.054436912e-04,-9.916621354e-04,-1.099812939e-04,-1.101643429e-03,-6.328262923e-04,-1.487220026e-04,-7.815482948e-04,-9.321960224e-04,-1.478023536e-04,-1.079998376e-03,-5.656720374e-04,-1.060078234e-04,-6.716798607e-04
-8.5,1.783889570e-04,-1.957392988e-04,-1.735034174e-05,-6.531887950e-04,-6.657938473e-05,-7.197681797e-04,3.153873273e-04,1.621746342e-05,3.316047907e-04,-2.706590443e-04,9.847607018e-07,-2.696742836e-04,-3.584616451e-04,2.213533258e-05,-3.363263126e-04,-6.192320156e-04,2.492171185e-04,-3.700148971e-04,-5.510031634e-04,7.810745863e-05,-4.728957048e-04,-6.661152976e-04,-1.095033413e-04,-7.756186389e-04,4.428235563e-04,1.553510486e-05,4.583586612e-04,-4.140582715e-04,-1.464300433e-04,-5.604883148e-04,8.871788154e-04,-6.116682092e-05,8.260119945e-04,-1.207924652e-03,3.723036599e-05,-1.170694286e-03,-1.477999076e-03,8.150777260e-05,-1.396491304e-03,-1.163418285e-03,1.671677376e-04,-9.962505478e-04,-1.504978566e-03,-8.289909260e-06,-1.513268476e-03,-1.376292107e-03,1.216531790e-04,-1.254638928e-03,-1.342536433e-03,1.094933895e-04,-1.233043044e-03,-1.158507118e-03,1.254048373e-05,-1.145966635e-03,-8.459719426e-04,-9.245274678e-05,-9.384246894e-04,-4.293516575e-04,-2.172202422e-05,-4.510736818e-04,2.405257052e-04,2.817545135e-05,2.687011566e-04,-4.990544716e-05,1.106493198e-04,6.074387266e-05,8.547710029e-04,5.576273211e-05,9.105337350e-04,6.169739927e-04,2.125805053e-04,8.295544980e-04,-8.644372385e-04,1.111318130e-04,-7.533054254e-04,-6.875937817e-04,2.238348328e-04,-4.637589489e-04,-1.124466162e-03,2.075066434e-04,-9.169595186e-04,-8.966268697e-04,1.864869477e-04,-7.101399220e-04,-1.037518130e-03,2.194183769e-05,-1.015576292e-03,-6.989213558e-04,-1.417149125e-04,-8.406362683e-04,-1.372439591e-03,5.439487375e-05,-1.318044717e-03,-7.489704522e-04,-1.652065586e-04,-9.141770108e-04,-1.022453378e-03,-1.036888195e-04,-1.126142198e-03,-6.765400745e-04,-1.342247470e-04,-8.107648215e-04,-9.713112432e-04,-1.317795361e-04,-1.103090779e-03,-6.022283466e-04,-9.102208114e-05,-6.932504277e-04
-8.4,1.700888585e-04,-1.988398301e-04,-2.875097153e-05,-6.434166379e-04,-5.236152677e-05,-6.957781647e-04,3.223749167e-04,2.617986544e-05,3.485547822e-04,-2.788268026e-04,8.332442707e-06,-2.704943599e-04,-3.486868563e-04,4.262502531e-05,-3.060618310e-04,-5.895433996e-04,2.468783524e-04,-3.426650472e-04,-5.081207026e-04,8.096592077e-05,-4.271547819e-04,-6.299618807e-04,-1.156122166e-04,-7.455740973e-04,4.421936732e-04,2.312550696e-05,4.653191802e-04,-4.161796907e-04,-1.357184257e-04,-5.518981164e-04,8.500352980e-04,-5.142926465e-05,7.986060334e-04,-1.174583648e-03,5.061844484e-05,-1.123965204e-03,-1.506865527e-03,9.369783546e-05,-1.413167692e-03,-1.170987705e-03,1.765259137e-04,-9.944617909e-04,-1.528006222e-03,6.708455209e-06,-1.521297766e-03,-1.417253949e-03,1.359528521e-04,-1.281301097e-03,-1.390672685e-03,1.295884865e-04,-1.261084199e-03,-1.181081161e-03,1.807156244e-05,-1.163009598e-03,-8.805553778e-04,-8.661861908e-05,-9.671739968e-04,-3.904563363e-04,-1.275073327e-05,-4.032070695e-04,2.548369802e-04,3.177817445e-05,2.866151547e-04,-5.792834584e-05,1.223351110e-04,6.440676512e-05,8.384623949e-04,5.488436710e-05,8.933467620e-04,6.176167194e-04,2.110756964e-04,8.286924158e-04,-8.937717718e-04,9.938226482e-05,-7.943895070e-04,-7.140299162e-04,2.143791560e-04,-4.996507602e-04,-1.156933646e-03,1.939898241e-04,-9.629438218e-04,-9.166338732e-04,1.821815301e-04,-7.344523431e-04,-1.071980010e-03,2.451509103e-05,-1.047464919e-03,-7.257380225e-04,-1.261921403e-04,-8.519301628e-04,-1.415372424e-03,6.760053448e-05,-1.347771890e-03,-7.619441839e-04,-1.588417948e-04,-9.207859787e-04,-1.050424127e-03,-9.592020405e-05,-1.146344331e-03,-7.186432709e-04,-1.190211164e-04,-8.376643873e-04,-1.008938061e-03,-1.156237210e-04,-1.124561782e-03,-6.393621030e-04,-7.461384142e-05,-7.139759444e-04
-8.3,1.628489885e-04,-2.024469870e-04,-3.959799849e-05,-6.288071486e-04,-3.748115976e-05,-6.662883084e-04,3.313767845e-04,3.572221960e-05,3.670990041e-04,-2.852932905e-04,1.544294045e-05,-2.698503500e-04,-3.372720861e-04,6.248810596e-05,-2.747839802e-04,-5.615580280e-04,2.422816323e-04,-3.192763957e-04,-4.648697290e-04,8.380100186e-05,-3.810687271e-04,-5.932960839e-04,-1.217112948e-04,-7.150073787e-04,4.374836382e-04,3.095398296e-05,4.684376212e-04,-4.183410879e-04,-1.243866659e-04,-5.427277537e-04,8.094949329e-04,-4.210729560e-05,7.673876373e-04,-1.134688551e-03,6.428080555e-05,-1.070407745e-03,-1.528893083e-03,1.057447714e-04,-1.423148311e-03,-1.173476061e-03,1.846280284e-04,-9.888480323e-04,-1.544561041e-03,2.141580845e-05,-1.523145233e-03,-1.452063636e-03,1.499940721e-04,-1.302069563e-03,-1.434865873e-03,1.494040684e-04,-1.285461805e-03,-1.197866770e-03,2.402781480e-05,-1.173838955e-03,-9.127140674e-04,-7.939140823e-05,-9.921054756e-04,-3.530732052e-04,-4.446217957e-06,-3.575194231e-04,2.660614476e-04,3.514060394e-05,3.012020516e-04,-6.578319204e-05,1.339980859e-04,6.821489383e-05,8.211491545e-04,5.409646204e-05,8.752456166e-04,6.188310176e-04,2.093321401e-04,8.281631577e-04,-9.210206244e-04,8.918237901e-05,-8.318382454e-04,-7.374843880e-04,2.049798676e-04,-5.325045203e-04,-1.184631081e-03,1.797502518e-04,-1.004880829e-03,-9.340709767e-04,1.779174092e-04,-7.561535675e-04,-1.101899810e-03,2.665680417e-05,-1.075243006e-03,-7.509720120e-04,-1.103844292e-04,-8.613564412e-04,-1.453548414e-03,8.129006716e-05,-1.372258347e-03,-7.737191608e-04,-1.516233988e-04,-9.253425596e-04,-1.075538524e-03,-8.682667455e-05,-1.162365199e-03,-7.590200701e-04,-1.031827854e-04,-8.622028555e-04,-1.044932440e-03,-9.948640219e-05,-1.144418842e-03,-6.768096971e-04,-5.698659992e-05,-7.337962970e-04
-8.2,1.567193937e-04,-2.064499172e-04,-4.973052350e-05,-6.095946217e-04,-2.200657036e-05,-6.316011920e-04,3.422644467e-04,4.482855992e-05,3.870930066e-04,-2.901223277e-04,2.230373343e-05,-2.678185942e-04,-3.243308887e-04,8.168242149e-05,-2.426484672e-04,-5.354742158e-04,2.354218694e-04,-3.000523465e-04,-4.216039238e-04,8.659081344e-05,-3.350131104e-04,-5.565270084e-04,-1.276965409e-04,-6.842235493e-04,4.288332629e-04,3.903734202e-05,4.678706049e-04,-4.205668515e-04,-1.125083273e-04,-5.330751788e-04,7.657657259e-04,-3.319319782e-05,7.325725281e-04,-1.088683995e-03,7.817923675e-05,-1.010504758e-03,-1.544137665e-03,1.175703453e-04,-1.426567320e-03,-1.170970846e-03,1.914794571e-04,-9.794913889e-04,-1.554762508e-03,3.575659566e-05,-1.519005912e-03,-1.480712686e-03,1.636956772e-04,-1.317017009e-03,-1.475159206e-03,1.688868258e-04,-1.306272380e-03,-1.208991982e-03,3.042262004e-05,-1.178569362e-03,-9.423867641e-04,-7.077454290e-05,-1.013161307e-03,-3.175222569e-04,3.126369017e-06,-3.143958879e-04,2.741032488e-04,3.825032644e-05,3.123535752e-04,-7.349266779e-05,1.455419737e-04,7.204930588e-05,8.027751352e-04,5.338273404e-05,8.561578692e-04,6.205749672e-04,2.073439428e-04,8.279189100e-04,-9.459664910e-04,8.048819940e-05,-8.654782916e-04,-7.579031137e-04,1.956785569e-04,-5.622245568e-04,-1.207447495e-03,1.649248311e-04,-1.042522664e-03,-9.489242357e-04,1.737406870e-04,-7.751835486e-04,-1.127230896e-03,2.835882336e-05,-1.098872073e-03,-7.745591948e-04,-9.435512633e-05,-8.689143211e-04,-1.486768132e-03,9.525253271e-05,-1.391515599e-03,-7.843553134e-04,-1.435570626e-04,-9.279123760e-04,-1.097765169e-03,-7.658676779e-05,-1.174351937e-03,-7.975546120e-04,-8.679022017e-05,-8.843448322e-04,-1.079146797e-03,-8.350858098e-05,-1.162655378e-03,-7.142677231e-04,-3.836601163e-05,-7.526337347e-04
-8.1,1.517204863e-04,-2.107398368e-04,-5.901935043e-05,-5.860726783e-04,-6.034661481e-06,-5.921073398e-04,3.548617093e-04,5.347899813e-05,4.083407074e-04,-2.933947261e-04,2.890308975e-05,-2.644916363e-04,-3.099974373e-04,1.001678463e-04,-2.098295910e-04,-5.114071750e-04,2.263009870e-04,-2.851061879e-04,-3.786662817e-04,8.931078885e-05,-2.893554929e-04,-5.200384618e-04,-1.334610724e-04,-6.534995343e-04,4.163964702e-04,4.738585494e-05,4.637823251e-04,-4.228858735e-04,-1.001603835e-04,-5.230462569e-04,7.190605742e-04,-2.467747171e-05,6.943831025e-04,-1.037092654e-03,9.226676384e-05,-9.448258899e-04,-1.552706372e-03,1.290886369e-04,-1.423617735e-03,-1.163597555e-03,1.970950541e-04,-9.665025009e-04,-1.558782499e-03,4.965382904e-05,-1.509128670e-03,-1.503248122e-03,1.769744750e-04,-1.326273647e-03,-1.511599765e-03,1.879820785e-04,-1.323617687e-03,-1.214640373e-03,3.725991915e-05,-1.177380454e-03,-9.695249697e-04,-6.079250767e-05,-1.030317477e-03,-2.840714212e-04,9.918199624e-06,-2.741532216e-04,2.788931765e-04,4.109538071e-05,3.199885572e-04,-8.108364762e-05,1.568690450e-04,7.578539737e-05,7.832782311e-04,5.272406237e-05,8.360022934e-04,6.227797081e-04,2.051069636e-04,8.278866717e-04,-9.683952975e-04,7.322908731e-05,-8.951662102e-04,-7.752666993e-04,1.865142961e-04,-5.887524032e-04,-1.225312643e-03,1.496612551e-04,-1.075651388e-03,-9.611942690e-04,1.696917750e-04,-7.915024941e-04,-1.147964431e-03,2.962471582e-05,-1.118339716e-03,-7.964505361e-04,-7.815994184e-05,-8.746104779e-04,-1.514862675e-03,1.092753995e-04,-1.405587275e-03,-7.939027852e-04,-1.346532338e-04,-9.285560189e-04,-1.117075883e-03,-6.540140385e-05,-1.182477287e-03,-8.341326299e-04,-6.993217104e-05,-9.040648009e-04,-1.111434867e-03,-6.781796588e-05,-1.179252833e-03,-7.513991764e-04,-1.899530258e-05,-7.703944790e-04
-8,1.478448495e-04,-2.152094112e-04,-6.736456165e-05,-5.585919302e-04,1.031154638e-05,-5.482803838e-04,3.689448488e-04,6.164989011e-05,4.305947389e-04,-2.952083845e-04,3.522968802e-05,-2.599786965e-04,-2.944288236e-04,1.179060423e-04,-1.765227813e-04,-4.893865433e-04,2.149283712e-04,-2.744581720e-04,-3.363862871e-04,9.193410739e-05,-2.444521798e-04,-4.841859051e-04,-1.388945693e-04,-6.230804744e-04,4.003364161e-04,5.600245435e-05,4.563388704e-04,-4.253321723e-04,-8.742216573e-05,-5.127543380e-04,6.695943393e-04,-1.654925723e-05,6.530450820e-04,-9.805104663e-04,1.064878218e-04,-8.740226445e-04,-1.554755006e-03,1.402062089e-04,-1.414548797e-03,-1.151518601e-03,2.014988073e-04,-9.500197940e-04,-1.556841901e-03,6.302960972e-05,-1.493812292e-03,-1.519770741e-03,1.897452895e-04,-1.330025451e-03,-1.544232054e-03,2.066324543e-04,-1.337599599e-03,-1.215048990e-03,4.453350009e-05,-1.170515490e-03,-9.940934296e-04,-4.949099469e-05,-1.043584424e-03,-2.529332093e-04,1.589726093e-05,-2.370359484e-04,2.803887987e-04,4.366435915e-05,3.240531578e-04,-8.858772862e-05,1.678815465e-04,7.929381789e-05,7.625913360e-04,5.209896585e-05,8.146903018e-04,6.253501956e-04,2.026183942e-04,8.279685897e-04,-9.881044278e-04,6.731050686e-05,-9.207939210e-04,-7.895925484e-04,1.775233722e-04,-6.120691762e-04,-1.238197787e-03,1.341124106e-04,-1.104085377e-03,-9.708978042e-04,1.658052116e-04,-8.050925926e-04,-1.164127770e-03,3.046882953e-05,-1.133658940e-03,-8.166116796e-04,-6.184676529e-05,-8.784584449e-04,-1.537696697e-03,1.231480688e-04,-1.414548629e-03,-8.024021684e-04,-1.249268248e-04,-9.273289931e-04,-1.133443408e-03,-5.348844558e-05,-1.186931854e-03,-8.686422574e-04,-5.270502310e-05,-9.213472805e-04,-1.141654659e-03,-5.252623713e-05,-1.194180896e-03,-7.878401556e-04,8.698403309e-07,-7.869703153e-04
-7.9,1.450600953e-04,-2.197522068e-04,-7.469211144e-05,-5.275546191e-04,2.688605808e-05,-5.006685611e-04,3.842449346e-04,6.931419121e-05,4.535591258e-04,-2.956777484e-04,4.127257881e-05,-2.544051696e-04,-2.778059206e-04,1.348601989e-04,-1.429457216e-04,-4.693560989e-04,2.013207644e-04,-2.680353345e-04,-2.950760680e-04,9.443218852e-05,-2.006438795e-04,-4.492933326e-04,-1.438826948e-04,-5.931760274e-04,3.808227095e-04,6.488192035e-05,4.457046298e-04,-4.279432339e-04,-7.437454326e-05,-5.023177771e-04,6.175831510e-04,-8.796769478e-06,6.087863816e-04,-9.195983596e-04,1.207783054e-04,-7.988200542e-04,-1.550483692e-03,1.508235252e-04,-1.399660167e-03,-1.134929402e-03,2.047233145e-04,-9.302060873e-04,-1.549204925e-03,7.580611569e-05,-1.473398810e-03,-1.530431684e-03,2.019217856e-04,-1.328509899e-03,-1.573091636e-03,2.247774482e-04,-1.348314188e-03,-1.210503350e-03,5.222623509e-05,-1.158277115e-03,-1.016069097e-03,-3.693592903e-05,-1.053005026e-03,-2.242621090e-04,2.104819073e-05,-2.032139183e-04,2.785753020e-04,4.594672136e-05,3.245220233e-04,-9.603961542e-05,1.784821701e-04,8.244255472e-05,7.406448754e-04,5.148413254e-05,7.921290080e-04,6.281673131e-04,1.998762716e-04,8.280435847e-04,-1.004908694e-03,6.261930179e-05,-9.422893919e-04,-8.009330489e-04,1.687392676e-04,-6.321937813e-04,-1.246113766e-03,1.184316012e-04,-1.127682165e-03,-9.780677913e-04,1.621101217e-04,-8.159576696e-04,-1.175779806e-03,3.091452315e-05,-1.144865283e-03,-8.350191598e-04,-4.545624736e-05,-8.804754071e-04,-1.555168279e-03,1.366641617e-04,-1.418504117e-03,-8.098827863e-04,-1.143967973e-04,-9.242795836e-04,-1.146838140e-03,-4.107681021e-05,-1.187914951e-03,-9.009735704e-04,-3.521172900e-05,-9.361852994e-04,-1.169668226e-03,-3.772670068e-05,-1.207394927e-03,-8.232062034e-04,2.096709911e-05,-8.022391043e-04
-7.8,1.433130008e-04,-2.242623515e-04,-8.094935070e-05,-4.934060634e-04,4.352336745e-05,-4.498826959e-04,4.004525814e-04,7.644200834e-05,4.768945897e-04,-2.949323587e-04,4.702159703e-05,-2.479107617e-04,-2.603321207e-04,1.509947864e-04,-1.093373343e-04,-4.511759618e-04,1.855018526e-04,-2.656741092e-04,-2.550255141e-04,9.677535272e-05,-1.582501614e-04,-4.156496282e-04,-1.483070097e-04,-5.639566379e-04,3.580308246e-04,7.401012839e-05,4.320409530e-04,-4.307561331e-04,-6.109945331e-05,-4.918555864e-04,5.632457312e-04,-1.407748367e-06,5.618379828e-04,-8.550709115e-04,1.350655744e-04,-7.200053372e-04,-1.540131093e-03,1.608376288e-04,-1.379293464e-03,-1.114052347e-03,2.068090152e-04,-9.072433322e-04,-1.536171889e-03,8.790720495e-05,-1.448264684e-03,-1.535427006e-03,2.134180891e-04,-1.322008917e-03,-1.598199360e-03,2.423541391e-04,-1.355845221e-03,-1.201329135e-03,6.030925655e-05,-1.141019878e-03,-1.035437445e-03,-2.321224098e-05,-1.058649686e-03,-1.981528311e-04,2.537149708e-05,-1.727813340e-04,2.734670816e-04,4.793312405e-05,3.214002056e-04,-1.034732672e-04,1.885735887e-04,8.510032159e-05,7.173705104e-04,5.085490250e-05,7.682254129e-04,6.310913652e-04,1.968789820e-04,8.279703472e-04,-1.018642810e-03,5.902979496e-05,-9.596130151e-04,-8.093699714e-04,1.601928071e-04,-6.491771644e-04,-1.249106124e-03,1.027683863e-04,-1.146337738e-03,-9.827520936e-04,1.586315231e-04,-8.241205704e-04,-1.183004560e-03,3.099207035e-05,-1.152012490e-03,-8.516547261e-04,-2.902282064e-05,-8.806775468e-04,-1.567206217e-03,1.496230833e-04,-1.417583134e-03,-8.163595794e-04,-1.030856536e-04,-9.194452330e-04,-1.157225015e-03,-2.839956768e-05,-1.185624583e-03,-9.310171234e-04,-1.756012640e-05,-9.485772498e-04,-1.195338743e-03,-2.349279232e-05,-1.218831535e-03,-8.570993061e-04,4.103476852e-05,-8.160645376e-04
-7.7,1.425344758e-04,-2.286344720e-04,-8.609999614e-05,-4.566243962e-04,6.004247188e-05,-3.965819243e-04,4.172246542e-04,8.300134895e-05,5.002260031e-04,-2.931146600e-04,5.246817225e-05,-2.406464878e-04,-2.422301884e-04,1.662754010e-04,-7.595478738e-05,-4.346269218e-04,1.675020627e-04,-2.671248592e-04,-2.164971355e-04,9.893367072e-05,-1.175634648e-04,-3.835043644e-04,-1.520456667e-04,-5.355500312e-04,3.321425594e-04,8.336345477e-05,4.155060142e-04,-4.338028528e-04,-4.767968322e-05,-4.814825360e-04,5.068053952e-04,5.630073777e-06,5.124354690e-04,-7.876833303e-04,1.492684943e-04,-6.384148360e-04,-1.523968351e-03,1.701455887e-04,-1.353822762e-03,-1.089130475e-03,2.078031808e-04,-8.813272938e-04,-1.518071777e-03,9.926038357e-05,-1.418811394e-03,-1.534990698e-03,2.241508273e-04,-1.310839871e-03,-1.619558361e-03,2.592997424e-04,-1.360258618e-03,-1.187881573e-03,6.874111150e-05,-1.119140462e-03,-1.052186501e-03,-8.423278681e-06,-1.060609780e-03,-1.746395769e-04,2.888238275e-05,-1.457571942e-04,2.651095230e-04,4.961557989e-05,3.147251029e-04,-1.109172890e-04,1.980579270e-04,8.714063803e-05,6.927049168e-04,5.018567414e-05,7.428905909e-04,6.339663186e-04,1.936247860e-04,8.275911046e-04,-1.029161267e-03,5.640903592e-05,-9.727522307e-04,-8.150072811e-04,1.519124087e-04,-6.630948724e-04,-1.247249377e-03,8.726541681e-05,-1.159983961e-03,-9.850115654e-04,1.553920722e-04,-8.296194932e-04,-1.185905115e-03,3.073686431e-05,-1.155168251e-03,-8.665001692e-04,-1.257568622e-05,-8.790758555e-04,-1.573766544e-03,1.618317055e-04,-1.411934838e-03,-8.218299372e-04,-9.101899312e-05,-9.128489304e-04,-1.164561700e-03,-1.568615297e-05,-1.180247853e-03,-9.586623910e-04,1.393509034e-07,-9.585230401e-04,-1.218526963e-03,-9.877567195e-06,-1.228404530e-03,-8.891164119e-04,6.082003381e-05,-8.282963781e-04
-7.6,1.426444029e-04,-2.327638896e-04,-9.011948674e-05,-4.177106867e-04,7.625194139e-05,-3.414587453e-04,4.341919811e-04,8.895902471e-05,5.231510058e-04,-2.903774569e-04,5.760622480e-05,-2.327712321e-04,-2.237381854e-04,1.806687572e-04,-4.306942821e-05,-4.194160701e-04,1.473585715e-04,-2.720574987e-04,-1.797217526e-04,1.008778829e-04,-7.884386966e-05,-3.530636412e-04,-1.549747949e-04,-5.080384362e-04,3.033460669e-04,9.290843729e-05,3.962545042e-04,-4.371065604e-04,-3.419865095e-05,-4.713052113e-04,4.484912797e-04,1.232851387e-05,4.608197935e-04,-7.182182292e-04,1.632975491e-04,-5.549206801e-04,-1.502293865e-03,1.786477952e-04,-1.323646070e-03,-1.060422456e-03,2.077587521e-04,-8.526637039e-04,-1.495255636e-03,1.097986583e-04,-1.385456978e-03,-1.529387233e-03,2.340410181e-04,-1.295346215e-03,-1.637156333e-03,2.755565513e-04,-1.361599781e-03,-1.170534376e-03,7.746701624e-05,-1.093067359e-03,-1.066300630e-03,7.309186771e-06,-1.058991443e-03,-1.536966915e-04,3.160954206e-05,-1.220871494e-04,2.535801060e-04,5.098746343e-05,3.045675695e-04,-1.183914677e-04,2.068370315e-04,8.844556376e-05,6.665926309e-04,4.945028284e-05,7.160429137e-04,6.366239690e-04,1.901114201e-04,8.267353890e-04,-1.036337945e-03,5.462064265e-05,-9.817173024e-04,-8.179651841e-04,1.439243554e-04,-6.740408287e-04,-1.240643680e-03,7.205716202e-05,-1.168586518e-03,-9.849182836e-04,1.524134272e-04,-8.325048564e-04,-1.184599422e-03,3.018816525e-05,-1.154411257e-03,-8.795340918e-04,3.860310824e-06,-8.756737810e-04,-1.574830139e-03,1.731068304e-04,-1.401723308e-03,-8.262714149e-04,-7.822560634e-05,-9.044970213e-04,-1.168798659e-03,-3.155102733e-06,-1.171953761e-03,-9.837971414e-04,1.777630401e-05,-9.660208374e-04,-1.239089426e-03,3.086189039e-06,-1.236003237e-03,-9.188589568e-04,8.008672019e-05,-8.387722366e-04
-7.5,1.435554874e-04,-2.365470664e-04,-9.299157899e-05,-3.771807297e-04,9.195605432e-05,-2.852246753e-04,4.509672745e-04,9.428164772e-05,5.452489222e-04,-2.868813440e-04,6.243273228e-05,-2.244486117e-04,-2.051054077e-04,1.941428076e-04,-1.096260004e-05,-4.051834664e-04,1.251153623e-04,-2.800681041e-04,-1.448958165e-04,1.025802400e-04,-4.231557651e-05,-3.244864070e-04,-1.569707031e-04,-4.814571101e-04,2.718345461e-04,1.026017743e-04,3.744363204e-04,-4.406798537e-04,-2.073992389e-05,-4.614197775e-04,3.885380893e-04,1.869855442e-05,4.072366437e-04,-6.474730714e-04,1.770550682e-04,-4.704180032e-04,-1.475429690e-03,1.862504790e-04,-1.289179211e-03,-1.028199457e-03,2.067331276e-04,-8.214663292e-04,-1.468091266e-03,1.194619485e-04,-1.348629317e-03,-1.518904563e-03,2.430153623e-04,-1.275889200e-03,-1.650972845e-03,2.910783931e-04,-1.359894452e-03,-1.149669799e-03,8.641836084e-05,-1.063251438e-03,-1.077756127e-03,2.384507784e-05,-1.053911049e-03,-1.352411374e-04,3.359419130e-05,-1.016469461e-04,2.389881181e-04,5.204351572e-05,2.910316338e-04,-1.259055162e-04,2.148137650e-04,8.890824887e-05,6.389875762e-04,4.862239693e-05,6.876099731e-04,6.388874913e-04,1.863358185e-04,8.252233099e-04,-1.040067412e-03,5.352761701e-05,-9.865397945e-04,-8.183768240e-04,1.362528823e-04,-6.821239417e-04,-1.229415238e-03,5.727068896e-05,-1.172144549e-03,-9.825540645e-04,1.497166490e-04,-8.328374156e-04,-1.179218226e-03,2.938817344e-05,-1.149830052e-03,-8.907307113e-04,2.026365825e-05,-8.704670530e-04,-1.570401999e-03,1.832782218e-04,-1.387123777e-03,-8.296408203e-04,-6.473834616e-05,-8.943791665e-04,-1.169881207e-03,8.991111725e-06,-1.160890096e-03,-1.006308357e-03,3.524293478e-05,-9.710654219e-04,-1.256879635e-03,1.538566469e-05,-1.241493970e-03,-9.459425105e-04,9.862135024e-05,-8.473211603e-04
-7.4,1.451758019e-04,-2.398823558e-04,-9.470655393e-05,-3.355583434e-04,1.069612309e-04,-2.285971125e-04,4.671529190e-04,9.893668084e-05,5.660895998e-04,-2.827923571e-04,6.694778717e-05,-2.158445699e-04,-1.865887521e-04,2.066669530e-04,2.007820088e-05,-3.915107285e-04,1.008236652e-04,-2.906870633e-04,-1.121805626e-04,1.040152148e-04,-8.165347891e-06,-2.978811088e-04,-1.579133881e-04,-4.557944969e-04,2.378035771e-04,1.123906878e-04,3.501942649e-04,-4.445249002e-04,-7.386382080e-06,-4.519112823e-04,3.271845475e-04,2.475009094e-05,3.519346384e-04,-5.762484154e-04,1.904356656e-04,-3.858127497e-04,-1.443719890e-03,1.928675413e-04,-1.250852348e-03,-9.927433455e-04,2.047869786e-04,-7.879563669e-04,-1.436959203e-03,1.281981425e-04,-1.308761060e-03,-1.503847930e-03,2.510068607e-04,-1.252841069e-03,-1.660988163e-03,3.058358422e-04,-1.355152320e-03,-1.125670676e-03,9.551265600e-05,-1.030158020e-03,-1.086519448e-03,4.102682488e-05,-1.045492623e-03,-1.191369728e-04,3.488929630e-05,-8.424767648e-05,2.214728202e-04,5.277989521e-05,2.742527155e-04,-1.334596422e-04,2.218939380e-04,8.843429577e-05,6.098535441e-04,4.767592010e-05,6.575294642e-04,6.405743057e-04,1.822939452e-04,8.228682508e-04,-1.040268072e-03,5.299441868e-05,-9.872736533e-04,-8.163871543e-04,1.289198740e-04,-6.874672803e-04,-1.213719066e-03,4.302793322e-05,-1.170691132e-03,-9.780090020e-04,1.473215995e-04,-8.306874026e-04,-1.169904353e-03,2.838114450e-05,-1.141523208e-03,-9.000601522e-04,3.661488088e-05,-8.634452713e-04,-1.560511347e-03,1.921914053e-04,-1.368319942e-03,-8.318749890e-04,-5.059545927e-05,-8.824704482e-04,-1.167753500e-03,2.056886093e-05,-1.147184639e-03,-1.026084766e-03,5.243620303e-05,-9.736485625e-04,-1.271751936e-03,2.702766579e-05,-1.244724270e-03,-9.700060700e-04,1.162375449e-04,-8.537685250e-04
-7.3,1.474102627e-04,-2.426710986e-04,-9.526083596e-05,-2.933687827e-04,1.210815515e-04,-1.722872312e-04,4.823486325e-04,1.028935280e-04,5.852421605e-04,-2.782799946e-04,7.115432687e-05,-2.071256678e-04,-1.684493759e-04,2.182123457e-04,4.976296980e-05,-3.779329660e-04,7.454361554e-05,-3.033893504e-04,-8.170265401e-05,1.051601445e-04,2.345749054e-05,-2.733027252e-04,-1.576911882e-04,-4.309939133e-04,2.014479110e-04,1.222135815e-04,3.236614925e-04,-4.486345326e-04,5.780825576e-06,-4.428537070e-04,2.646714081e-04,3.049180184e-05,2.951632100e-04,-5.053365310e-04,2.033270114e-04,-3.020095196e-04,-1.407530085e-03,1.984219959e-04,-1.209108089e-03,-9.543451331e-04,2.019831540e-04,-7.523619792e-04,-1.402249413e-03,1.359640934e-04,-1.266285320e-03,-1.484534298e-03,2.579550854e-04,-1.226579213e-03,-1.667189750e-03,3.198174916e-04,-1.347372259e-03,-1.098914566e-03,1.046543126e-04,-9.942602532e-04,-1.092547628e-03,5.868104772e-05,-1.033866580e-03,-1.052016876e-04,3.555882871e-05,-6.964285894e-05,2.012005703e-04,5.319417677e-05,2.543947470e-04,-1.410456444e-04,2.279884584e-04,8.694281396e-05,5.791643903e-04,4.658537951e-05,6.257497698e-04,6.414986601e-04,1.779807082e-04,8.194793683e-04,-1.036885822e-03,5.288824571e-05,-9.839975759e-04,-8.121523715e-04,1.219441422e-04,-6.902082293e-04,-1.193741945e-03,2.944889794e-05,-1.164293047e-03,-9.713796670e-04,1.452456463e-04,-8.261340207e-04,-1.156812037e-03,2.721245744e-05,-1.129599580e-03,-9.074893739e-04,5.289515406e-05,-8.545942199e-04,-1.545211569e-03,1.997097981e-04,-1.345501771e-03,-8.328929784e-04,-3.584196962e-05,-8.687349480e-04,-1.162363837e-03,3.141462165e-05,-1.130949216e-03,-1.043020396e-03,6.925930387e-05,-9.737610926e-04,-1.283566823e-03,3.803811904e-05,-1.245528704e-03,-9.907203755e-04,1.327791772e-04,-8.579411983e-04
-7.2,1.501616369e-04,-2.448189875e-04,-9.465735063e-05,-2.511305555e-04,1.341424548e-04,-1.169881007e-04,4.961591649e-04,1.061246230e-04,6.022837879e-04,-2.735154015e-04,7.505780485e-05,-1.984575967e-04,-1.509490832e-04,2.287523002e-04,7.780321704e-05,-3.639549514e-04,4.634778685e-05,-3.176071645e-04,-5.355555975e-05,1.059958396e-04,5.244027983e-05,-2.507509902e-04,-1.562054168e-04,-4.069564070e-04,1.629590327e-04,1.320008655e-04,2.949598981e-04,-4.529929670e-04,1.868326709e-05,-4.343096999e-04,2.012402541e-04,3.593106582e-05,2.371713200e-04,-4.355096692e-04,2.156110293e-04,-2.198986399e-04,-1.367246526e-03,2.028470886e-04,-1.164399437e-03,-9.133023804e-04,1.983857276e-04,-7.149166528e-04,-1.364357527e-03,1.427266104e-04,-1.221630916e-03,-1.461286926e-03,2.638066211e-04,-1.197480305e-03,-1.669574822e-03,3.330269083e-04,-1.336547914e-03,-1.069769481e-03,1.137366543e-04,-9.560328265e-04,-1.095789728e-03,7.662107431e-05,-1.019168654e-03,-9.321393857e-05,3.567693908e-05,-5.753699949e-05,1.783617597e-04,5.328527119e-05,2.316470309e-04,-1.486474125e-04,2.330155476e-04,8.436813512e-05,5.469048542e-04,4.532631647e-05,5.922311706e-04,6.414745948e-04,1.733899772e-04,8.148645721e-04,-1.029896429e-03,5.307989216e-05,-9.768165367e-04,-8.058379263e-04,1.153404859e-04,-6.904974404e-04,-1.169703731e-03,1.665486480e-05,-1.153048866e-03,-9.627663554e-04,1.435019727e-04,-8.192643827e-04,-1.140105136e-03,2.592773380e-05,-1.114177402e-03,-9.129826093e-04,6.908510255e-05,-8.438975067e-04,-1.524579362e-03,2.057163695e-04,-1.318862992e-03,-8.325988358e-04,-2.053089990e-05,-8.531297357e-04,-1.153669893e-03,4.138562476e-05,-1.112284268e-03,-1.057017788e-03,8.562218322e-05,-9.713956047e-04,-1.292195844e-03,4.846128911e-05,-1.243734555e-03,-1.007794290e-03,1.481224188e-04,-8.596718707e-04
-7.1,1.533317337e-04,-2.462375505e-04,-9.290581689e-05,-2.093448731e-04,1.459826986e-04,-6.336217448e-05,5.082022402e-04,1.086064211e-04,6.168086613e-04,-2.686690002e-04,7.866579589e-05,-1.900032043e-04,-1.343457192e-04,2.382627630e-04,1.039170438e-04,-3.490709646e-04,1.632625697e-05,-3.327447076e-04,-2.780073949e-05,1.065070481e-04,7.870630863e-05,-2.301707252e-04,-1.533738770e-04,-3.835446022e-04,1.225246904e-04,1.416758491e-04,2.642005394e-04,-4.575750645e-04,3.124597893e-05,-4.263290856e-04,1.371340837e-04,4.107384846e-05,1.782079322e-04,-3.675073989e-04,2.271654869e-04,-1.403419120e-04,-1.323273076e-03,2.060870510e-04,-1.117186025e-03,-8.699147752e-04,1.940591843e-04,-6.758555909e-04,-1.323679440e-03,1.484631929e-04,-1.175216248e-03,-1.434429537e-03,2.685159366e-04,-1.165913600e-03,-1.668149279e-03,3.454769502e-04,-1.322672329e-03,-1.038589943e-03,1.226450504e-04,-9.159448928e-04,-1.096188148e-03,9.465020804e-05,-1.001537940e-03,-8.292185579e-05,3.532691672e-05,-4.759493907e-05,1.531682707e-04,5.305341642e-05,2.062216871e-04,-1.562403216e-04,2.369028201e-04,8.066249846e-05,5.130724736e-04,4.387570116e-05,5.569481748e-04,6.403197602e-04,1.685147379e-04,8.088344981e-04,-1.019305537e-03,5.344512948e-05,-9.658604073e-04,-7.976136790e-04,1.091188953e-04,-6.884947838e-04,-1.141855765e-03,4.770179517e-06,-1.137085586e-03,-9.522686926e-04,1.420976423e-04,-8.101710503e-04,-1.119954069e-03,2.457223527e-05,-1.095381834e-03,-9.165005490e-04,8.516394975e-05,-8.313365992e-04,-1.498712871e-03,2.101152351e-04,-1.288597635e-03,-8.308842641e-04,-4.724130709e-06,-8.356083948e-04,-1.141641993e-03,5.036020571e-05,-1.091281787e-03,-1.067989409e-03,1.014410710e-04,-9.665483382e-04,-1.297524485e-03,5.835846973e-05,-1.239166015e-03,-1.020978866e-03,1.621769262e-04,-8.588019400e-04
-7,1.568231335e-04,-2.468456593e-04,-9.002252576e-05,-1.684836605e-04,1.564554422e-04,-1.202821830e-05,5.181167022e-04,1.103201962e-04,6.284368984e-04,-2.639068286e-04,8.198727035e-05,-1.819195583e-04,-1.188872100e-04,2.467227394e-04,1.278355294e-04,-3.327858160e-04,-1.540832200e-05,-3.481941380e-04,-4.468083718e-06,1.066826088e-04,1.022145251e-04,-2.114546554e-04,-1.491330364e-04,-3.605876918e-04,8.033066302e-05,1.511556946e-04,2.314863576e-04,-4.623440089e-04,4.339798204e-05,-4.189460269e-04,7.259968657e-05,4.592454331e-05,1.185242299e-04,-3.020231224e-04,2.378657321e-04,-6.415739030e-05,-1.276025558e-03,2.080975186e-04,-1.067928039e-03,-8.244782305e-04,1.890676631e-04,-6.354105673e-04,-1.280604185e-03,1.531622825e-04,-1.127441902e-03,-1.404279745e-03,2.720464449e-04,-1.132233300e-03,-1.662924107e-03,3.571833313e-04,-1.305740775e-03,-1.005712239e-03,1.312605435e-04,-8.744516958e-04,-1.093679411e-03,1.125656030e-04,-9.811138078e-04,-7.405107007e-05,3.459974373e-05,-3.945132635e-05,1.258516164e-04,5.250036333e-05,1.783519797e-04,-1.637897093e-04,2.395889632e-04,7.579925394e-05,4.776802044e-04,4.221233963e-05,5.198925440e-04,6.378599452e-04,1.633473612e-04,8.012073064e-04,-1.005146327e-03,5.386707532e-05,-9.512792514e-04,-7.876464048e-04,1.032841541e-04,-6.843622507e-04,-1.110476558e-03,-6.078275706e-06,-1.116554834e-03,-9.399798620e-04,1.410318086e-04,-7.989480534e-04,-1.096532354e-03,2.319071225e-05,-1.073341642e-03,-9.179986110e-04,1.011090047e-04,-8.168896064e-04,-1.467729295e-03,2.128336656e-04,-1.254895629e-03,-8.276309674e-04,1.150717982e-05,-8.161237876e-04,-1.126263290e-03,5.823775816e-05,-1.068025532e-03,-1.075857031e-03,1.166376071e-04,-9.592194240e-04,-1.299452569e-03,6.780582502e-05,-1.231646744e-03,-1.030069734e-03,1.748865335e-04,-8.551832002e-04
-6.9,1.605412954e-04,-2.465710265e-04,-8.602973107e-05,-1.289783228e-04,1.654292774e-04,3.645095462e-05,5.255703107e-04,1.112526031e-04,6.368229139e-04,-2.593856119e-04,8.503139893e-05,-1.743542130e-04,-1.048046643e-04,2.541146089e-04,1.493099446e-04,-3.146337809e-04,-4.871726856e-05,-3.633510495e-04,1.644407936e-05,1.065152442e-04,1.229593235e-04,-1.944484056e-04,-1.434393372e-04,-3.378877428e-04,3.656385701e-05,1.603524841e-04,1.969163411e-04,-4.672483720e-04,5.507264495e-05,-4.121757270e-04,7.890643205e-06,5.048580297e-05,5.837644617e-05,-2.396909141e-04,2.475863252e-04,7.895411156e-06,-1.225924365e-03,2.088457280e-04,-1.017078637e-03,-7.772790688e-04,1.834741695e-04,-5.938048994e-04,-1.235506290e-03,1.568229517e-04,-1.078683338e-03,-1.371142139e-03,2.743712729e-04,-1.096770866e-03,-1.653910675e-03,3.681586427e-04,-1.285752032e-03,-9.714489820e-04,1.394634373e-04,-8.319855448e-04,-1.088195094e-03,1.301625737e-04,-9.580325202e-04,-6.631214907e-05,3.359216619e-05,-3.271998288e-05,9.666136517e-05,5.162965028e-05,1.482910155e-04,-1.712493573e-04,2.410249740e-04,6.977561674e-05,4.407587629e-04,4.031720670e-05,4.810759696e-04,6.339335990e-04,1.578798866e-04,7.918134856e-04,-9.874761089e-04,5.423885773e-05,-9.332372512e-04,-7.760915758e-04,9.783566671e-05,-6.782559091e-04,-1.075866369e-03,-1.576350131e-05,-1.091629870e-03,-9.259810979e-04,1.402948628e-04,-7.856862351e-04,-1.070013765e-03,2.182759870e-05,-1.048186167e-03,-9.174255260e-04,1.168953059e-04,-8.005302202e-04,-1.431763283e-03,2.138249385e-04,-1.217938345e-03,-8.227126996e-04,2.808232475e-05,-7.946303748e-04,-1.107527344e-03,6.493820819e-05,-1.042589136e-03,-1.080550130e-03,1.311383481e-04,-9.494117824e-04,-1.297893186e-03,7.689107403e-05,-1.221002112e-03,-1.034908618e-03,1.862291970e-04,-8.486794208e-04
-6.8,1.643965146e-04,-2.453516002e-04,-8.095508553e-05,-9.121153894e-05,1.727896721e-04,8.157813316e-05,5.302663294e-04,1.113960159e-04,6.416623452e-04,-2.552474852e-04,8.780611494e-05,-1.674413703e-04,-9.230553904e-05,2.604243272e-04,1.681187881e-04,-2.941937814e-04,-8.343418884e-05,-3.776279703e-04,3.496851381e-05,1.060011025e-04,1.409696163e-04,-1.789567677e-04,-1.362703036e-04,-3.152270713e-04,-8.584640646e-06,1.691744454e-04,1.605898047e-04,-4.722198968e-04,6.620791611e-05,-4.060119807e-04,-5.673053050e-05,5.475838338e-05,-1.972147121e-06,-1.810745071e-04,2.562026863e-04,7.512817914e-05,-1.173387212e-03,2.083106897e-04,-9.650765218e-04,-7.285900147e-04,1.773397382e-04,-5.512502765e-04,-1.188739252e-03,1.594539970e-04,-1.029285255e-03,-1.335302157e-03,2.754735014e-04,-1.059828656e-03,-1.641116662e-03,3.784073912e-04,-1.262709271e-03,-9.360842325e-04,1.471367414e-04,-7.889474911e-04,-1.079663923e-03,1.472391284e-04,-9.324247942e-04,-5.940764914e-05,3.240443957e-05,-2.700320957e-05,6.586322475e-05,5.044675387e-05,1.163099786e-04,-1.785609313e-04,2.411749654e-04,6.261403413e-05,4.023578378e-04,3.817367056e-05,4.405315084e-04,6.283955337e-04,1.521042344e-04,7.804997681e-04,-9.663736205e-04,5.446548782e-05,-9.119081327e-04,-7.630867381e-04,9.276706629e-05,-6.703196718e-04,-1.038342331e-03,-2.416147831e-05,-1.062503809e-03,-9.103381988e-04,1.398689200e-04,-7.704692787e-04,-1.040570640e-03,2.052719676e-05,-1.020043443e-03,-9.147233531e-04,1.324951675e-04,-7.822281856e-04,-1.390967085e-03,2.130717677e-04,-1.177895318e-03,-8.159974185e-04,4.491063554e-05,-7.710867829e-04,-1.085435339e-03,7.040129110e-05,-1.015034048e-03,-1.082004604e-03,1.448749128e-04,-9.371296910e-04,-1.292771730e-03,8.570897714e-05,-1.207062753e-03,-1.035384362e-03,1.962152724e-04,-8.391690893e-04
-6.7,1.683052131e-04,-2.431366886e-04,-7.483147555e-05,-5.551318074e-05,1.784409351e-04,1.229277543e-04,5.319482655e-04,1.107486561e-04,6.426969216e-04,-2.516155227e-04,9.031686783e-05,-1.612986549e-04,-8.156787085e-05,2.656415444e-04,1.840736735e-04,-2.711010824e-04,-1.193641142e-04,-3.904651967e-04,5.116740444e-05,1.051391884e-04,1.563065928e-04,-1.647504514e-04,-1.276257457e-04,-2.923761971e-04,-5.491744844e-05,1.775273363e-04,1.226098879e-04,-4.771728134e-04,7.674638109e-05,-4.004264323e-04,-1.209919015e-04,5.874100348e-05,-6.225089803e-05,-1.266599354e-04,2.635931999e-04,1.369332645e-04,-1.118823897e-03,2.064836058e-04,-9.123402908e-04,-6.786686291e-04,1.707225749e-04,-5.079460543e-04,-1.140631173e-03,1.610725780e-04,-9.795585948e-04,-1.297021870e-03,2.753460075e-04,-1.021675863e-03,-1.624543958e-03,3.879220353e-04,-1.236621923e-03,-8.998705411e-04,1.541695859e-04,-7.457009552e-04,-1.068015577e-03,1.636004593e-04,-9.044151174e-04,-5.303897833e-05,3.113801897e-05,-2.190095936e-05,3.373636311e-05,4.895905826e-05,8.269542137e-05,-1.856546296e-04,2.400164702e-04,5.436184062e-05,3.625459081e-04,3.576763971e-05,3.983135478e-04,6.211193251e-04,1.460123603e-04,7.671316854e-04,-9.419380646e-04,5.446441887e-05,-8.874736457e-04,-7.487478281e-04,8.806539417e-05,-6.606824339e-04,-9.982347774e-04,-3.115396677e-05,-1.029388744e-03,-8.931006929e-04,1.397290862e-04,-7.533716067e-04,-1.008373262e-03,1.933346084e-05,-9.890398009e-04,-9.098292257e-04,1.478774263e-04,-7.619517994e-04,-1.345512034e-03,2.105891758e-04,-1.134922859e-03,-8.073504103e-04,6.189121599e-05,-7.454591943e-04,-1.059995280e-03,7.458597090e-05,-9.854093087e-04,-1.080162524e-03,1.577844303e-04,-9.223780936e-04,-1.284026122e-03,9.435603552e-05,-1.189670086e-03,-1.031433326e-03,2.048835263e-04,-8.265497997e-04
-6.6,1.721903446e-04,-2.398876987e-04,-6.769735414e-05,-2.215963642e-05,1.823082638e-04,1.601486274e-04,5.304026483e-04,1.093145208e-04,6.397171691e-04,-2.485907315e-04,9.256585729e-05,-1.560248742e-04,-7.273613156e-05,2.697596472e-04,1.970235157e-04,-2.450559223e-04,-1.562831619e-04,-4.013390841e-04,6.512933795e-05,1.039307815e-04,1.690601194e-04,-1.515732747e-04,-1.175287213e-04,-2.691019961e-04,-1.022298022e-04,1.853159539e-04,8.308615176e-05,-4.820047229e-04,8.663517086e-05,-3.953695521e-04,-1.846131794e-04,6.243024582e-05,-1.221829336e-04,-7.685212576e-05,2.696420430e-04,1.927899172e-04,-1.062633861e-03,2.033686935e-04,-8.592651672e-04,-6.277575699e-04,1.636771968e-04,-4.640803731e-04,-1.091482777e-03,1.617027718e-04,-9.297800056e-04,-1.256538102e-03,2.739911352e-04,-9.825469669e-04,-1.604188848e-03,3.966798383e-04,-1.207509009e-03,-8.630284905e-04,1.604605505e-04,-7.025679400e-04,-1.053185983e-03,1.790630610e-04,-8.741229219e-04,-4.691298379e-05,2.989339924e-05,-1.701958455e-05,5.699370383e-07,4.717578928e-05,4.774572632e-05,-1.924507234e-04,2.375402438e-04,4.508952036e-05,3.214089924e-04,3.308769189e-05,3.544966843e-04,6.119984194e-04,1.395964129e-04,7.515948323e-04,-9.142895313e-04,5.416493196e-05,-8.601245993e-04,-7.331684405e-04,8.371000691e-05,-6.494584336e-04,-9.558844207e-04,-3.663097438e-05,-9.925153951e-04,-8.743033242e-04,1.398446246e-04,-7.344586996e-04,-9.735898326e-04,1.828918260e-05,-9.553006500e-04,-9.026782772e-04,1.630063445e-04,-7.396719326e-04,-1.295590128e-03,2.064256791e-04,-1.089164449e-03,-7.966390008e-04,7.891346443e-05,-7.177255364e-04,-1.031223644e-03,7.746966791e-05,-9.537539763e-04,-1.074973200e-03,1.698098952e-04,-9.051633045e-04,-1.271608265e-03,1.029249826e-04,-1.168683283e-03,-1.023038869e-03,2.122952681e-04,-8.107436005e-04
-6.5,1.759811196e-04,-2.355785062e-04,-5.959738660e-05,8.625427979e-06,1.843391152e-04,1.929645431e-04,5.254602528e-04,1.071031433e-04,6.325633961e-04,-2.462503659e-04,9.455170590e-05,-1.516986600e-04,-6.591866404e-05,2.727757198e-04,2.068570558e-04,-2.158291760e-04,-1.939391898e-04,-4.097683658e-04,7.696540719e-05,1.023789178e-04,1.793443250e-04,-1.391498657e-04,-1.060258481e-04,-2.451757138e-04,-1.503089166e-04,1.924457230e-04,4.213680639e-05,-4.865984336e-04,9.582586368e-05,-3.907725699e-04,-2.473075252e-04,6.582054829e-05,-1.814869769e-04,-3.197437120e-05,2.742425245e-04,2.422681533e-04,-1.005205648e-03,1.989842470e-04,-8.062214006e-04,-5.760854486e-04,1.562536363e-04,-4.198318124e-04,-1.041567011e-03,1.613743134e-04,-8.801926976e-04,-1.214062442e-03,2.714202311e-04,-9.426422111e-04,-1.580043955e-03,4.046407361e-04,-1.175403219e-03,-8.257481749e-04,1.659205720e-04,-6.598276028e-04,-1.035123212e-03,1.934581663e-04,-8.416650455e-04,-4.074806021e-05,2.876818226e-05,-1.197987795e-05,-3.334077106e-05,4.510806500e-05,1.176729394e-05,-1.988615117e-04,2.337497521e-04,3.488824037e-05,2.790490730e-04,3.012521702e-05,3.091742901e-04,6.009464231e-04,1.328488859e-04,7.337953090e-04,-8.835694722e-04,5.350691296e-05,-8.300625592e-04,-7.164209153e-04,7.967155425e-05,-6.367493610e-04,-9.116391411e-04,-4.049376376e-05,-9.521329049e-04,-8.539690377e-04,1.401795840e-04,-7.137894537e-04,-9.363863180e-04,1.743466977e-05,-9.189516483e-04,-8.932066668e-04,1.778403195e-04,-7.153663473e-04,-1.241414677e-03,2.006624902e-04,-1.040752186e-03,-7.837382575e-04,9.585859485e-05,-6.878796626e-04,-9.991478836e-04,7.904653387e-05,-9.201013498e-04,-1.066395151e-03,1.809002226e-04,-8.854949283e-04,-1.255485754e-03,1.114993694e-04,-1.143986385e-03,-1.010229719e-03,2.185277024e-04,-7.917020165e-04
-6.4,1.796126056e-04,-2.301955803e-04,-5.058297462e-05,3.667069340e-05,1.845035130e-04,2.211742064e-04,5.169965432e-04,1.041292756e-04,6.211258188e-04,-2.446468604e-04,9.626940077e-05,-1.483774596e-04,-6.118610883e-05,2.746904343e-04,2.135043255e-04,-1.832652190e-04,-2.320537129e-04,-4.153189319e-04,8.680533769e-05,1.004879760e-04,1.872933137e-04,-1.271933820e-04,-9.318700826e-05,-2.203803903e-04,-1.989328879e-04,1.988242912e-04,-1.085967139e-07,-4.908237208e-04,1.042744830e-04,-3.865492378e-04,-3.087830384e-04,6.890430251e-05,-2.398787359e-04,7.731178865e-06,2.773003684e-04,2.850315473e-04,-9.469160611e-04,1.933634144e-04,-7.535526466e-04,-5.238670438e-04,1.484967761e-04,-3.753702677e-04,-9.911286794e-04,1.601214843e-04,-8.310071951e-04,-1.169782053e-03,2.676529753e-04,-9.021290779e-04,-1.552101074e-03,4.117466507e-04,-1.140354423e-03,-7.881912242e-04,1.704750930e-04,-6.177161312e-04,-1.013792672e-03,2.066343842e-04,-8.071582877e-04,-3.427964520e-05,2.785532493e-05,-6.424320275e-06,-6.769789002e-05,4.276903984e-05,-2.492885017e-05,-2.047933600e-04,2.286608821e-04,2.386752208e-05,2.355830212e-04,2.687455980e-05,2.624575810e-04,5.878972902e-04,1.257627180e-04,7.136600082e-04,-8.499397300e-04,5.243979439e-05,-7.974999356e-04,-6.985575854e-04,7.591152313e-05,-6.226460623e-04,-8.658485000e-04,-4.265920174e-05,-9.085077018e-04,-8.321122744e-04,1.406929303e-04,-6.914193442e-04,-8.969254314e-04,1.680616903e-05,-8.801192624e-04,-8.813535742e-04,1.923306439e-04,-6.890229303e-04,-1.183219514e-03,1.934110490e-04,-9.898084653e-04,-7.685359758e-04,1.126017161e-04,-6.559342597e-04,-9.638080085e-04,7.932492402e-05,-8.844830845e-04,-1.054397890e-03,1.910099170e-04,-8.633879732e-04,-1.235642426e-03,1.201483741e-04,-1.115494052e-03,-9.930773138e-04,2.236677027e-04,-7.694096110e-04
-6.3,1.830257832e-04,-2.237379577e-04,-4.071217448e-05,6.185795666e-05,1.827934423e-04,2.446513990e-04,5.049320843e-04,1.004125956e-04,6.053446799e-04,-2.438067255e-04,9.771052542e-05,-1.460962001e-04,-5.857009607e-05,2.755079185e-04,2.169378224e-04,-1.472820771e-04,-2.703248650e-04,-4.176069421e-04,9.479448338e-05,9.826336501e-05,1.930578484e-04,-1.154128243e-04,-7.910440971e-05,-1.945172340e-04,-2.478684953e-04,2.043630299e-04,-4.350546531e-05,-4.945381212e-04,1.119415324e-04,-3.825965888e-04,-3.687431990e-04,7.167201028e-05,-2.970711888e-04,4.210361420e-05,2.787363136e-04,3.208399278e-04,-8.881269225e-04,1.865540560e-04,-7.015728666e-04,-4.713021840e-04,1.404458030e-04,-3.308563809e-04,-9.403829740e-04,1.579821101e-04,-7.824008638e-04,-1.123860245e-03,2.627166886e-04,-8.611435561e-04,-1.520354084e-03,4.179223886e-04,-1.102431696e-03,-7.504920244e-04,1.740653658e-04,-5.764266586e-04,-9.891802609e-04,2.184596097e-04,-7.707206512e-04,-2.726499535e-05,2.724142426e-05,-2.357109366e-08,-1.022035333e-04,4.017400358e-05,-6.202952976e-05,-2.101488512e-04,2.223025983e-04,1.215374708e-05,1.911424274e-04,2.333313056e-05,2.144755580e-04,5.728058785e-04,1.183313513e-04,6.911372298e-04,-8.135791800e-04,5.092216602e-05,-7.626570140e-04,-6.796110608e-04,7.238284779e-05,-6.072282130e-04,-8.188549171e-04,-4.306503739e-05,-8.619199545e-04,-8.087412885e-04,1.413383863e-04,-6.674029022e-04,-8.553645358e-04,1.643426323e-05,-8.389302725e-04,-8.670617266e-04,2.064205293e-04,-6.606411973e-04,-1.121256688e-03,1.848091961e-04,-9.364474921e-04,-7.509354870e-04,1.290139025e-04,-6.219215845e-04,-9.252569720e-04,7.832547730e-05,-8.469314947e-04,-1.038962572e-03,2.000984334e-04,-8.388641382e-04,-1.212077097e-03,1.289221811e-04,-1.083154916e-03,-9.716924904e-04,2.278068426e-04,-7.438856478e-04
-6.2,1.861682314e-04,-2.162170598e-04,-3.004882845e-05,8.412374606e-05,1.792215527e-04,2.633452988e-04,4.892331826e-04,9.597749450e-05,5.852106771e-04,-2.437292566e-04,9.886388529e-05,-1.448653713e-04,-5.806196026e-05,2.752356529e-04,2.171736927e-04,-1.078697186e-04,-3.084303500e-04,-4.163000687e-04,1.010918609e-04,9.571126982e-05,1.968031307e-04,-1.035204885e-04,-6.389034301e-05,-1.674108316e-04,-2.968681813e-04,2.089783741e-04,-8.788980714e-05,-4.975867396e-04,1.187919679e-04,-3.787947717e-04,-4.268865240e-04,7.411243945e-05,-3.527740845e-04,7.106417427e-05,2.784877792e-04,3.495519534e-04,-8.291789770e-04,1.786174602e-04,-6.505615168e-04,-4.185737136e-04,1.321336993e-04,-2.864400143e-04,-8.895130835e-04,1.549968329e-04,-7.345162506e-04,-1.076436537e-03,2.566459303e-04,-8.197906063e-04,-1.484801576e-03,4.230780099e-04,-1.061723566e-03,-7.127576197e-04,1.766489675e-04,-5.361086522e-04,-9.612928950e-04,2.288222614e-04,-7.324706336e-04,-1.948714589e-05,2.700493151e-05,7.517785620e-06,-1.365613764e-04,3.734037571e-05,-9.922100067e-05,-2.148292324e-04,2.147185864e-04,-1.106459442e-07,1.458739792e-04,1.950147314e-05,1.653754523e-04,5.556487402e-04,1.105488399e-04,6.661975801e-04,-7.746783394e-04,4.892185487e-05,-7.257564845e-04,-6.595937923e-04,6.903158092e-05,-5.905622114e-04,-7.709826604e-04,-4.167467845e-05,-8.126573389e-04,-7.838587923e-04,1.420640553e-04,-6.417947370e-04,-8.118531655e-04,1.634244964e-05,-7.955107159e-04,-8.502773104e-04,2.200445929e-04,-6.302327175e-04,-1.055793131e-03,1.750162153e-04,-8.807769158e-04,-7.308563351e-04,1.449640105e-04,-5.858923246e-04,-8.835607372e-04,7.608113533e-05,-8.074796018e-04,-1.020081675e-03,2.081295068e-04,-8.119521680e-04,-1.184801198e-03,1.378484221e-04,-1.046952776e-03,-9.462222810e-04,2.310379511e-04,-7.151843298e-04
-6.1,1.889950615e-04,-2.076563003e-04,-1.866123887e-05,1.034606534e-04,1.738193453e-04,2.772799987e-04,4.699124260e-04,9.085292759e-05,5.607653535e-04,-2.443854022e-04,9.971634002e-05,-1.446690622e-04,-5.961193968e-05,2.738844141e-04,2.142724745e-04,-6.508852043e-05,-3.460289177e-04,-4.111174382e-04,1.058685698e-04,9.283841382e-05,1.987069837e-04,-9.124049681e-05,-4.767309676e-05,-1.389135936e-04,-3.456673603e-04,2.125930321e-04,-1.330743282e-04,-4.998020512e-04,1.247951398e-04,-3.750069115e-04,-4.829065739e-04,7.621278380e-05,-4.066937901e-04,9.461676874e-05,2.765098452e-04,3.711266139e-04,-7.703844311e-04,1.696264432e-04,-6.007579879e-04,-3.658458627e-04,1.235867656e-04,-2.422590971e-04,-8.386681589e-04,1.512087993e-04,-6.874593597e-04,-1.027626620e-03,2.494823007e-04,-7.781443195e-04,-1.445449454e-03,4.271126746e-04,-1.018336779e-03,-6.750667648e-04,1.781995368e-04,-4.968672279e-04,-9.301572456e-04,2.376318956e-04,-6.925253500e-04,-1.075813927e-05,2.721435703e-05,1.645621776e-05,-1.704778838e-04,3.428766434e-05,-1.361902194e-04,-2.187372106e-04,2.059689023e-04,-1.276830821e-05,9.993953604e-05,1.538330036e-05,1.153228364e-04,5.364245352e-04,1.024100831e-04,6.388346183e-04,-7.334337114e-04,4.641592574e-05,-6.870177857e-04,-6.384982983e-04,6.579895737e-05,-5.726993410e-04,-7.225271159e-04,-3.848066170e-05,-7.610077776e-04,-7.574613215e-04,1.428117459e-04,-6.146495757e-04,-7.665314095e-04,1.654607899e-05,-7.499853305e-04,-8.309508289e-04,2.331289499e-04,-5.978218790e-04,-9.871073400e-04,1.642070372e-04,-8.229003028e-04,-7.082341616e-04,1.603202638e-04,-5.479138978e-04,-8.387992422e-04,7.263904706e-05,-7.661601952e-04,-9.977587222e-04,2.150707332e-04,-7.826879890e-04,-1.153836970e-03,1.469300912e-04,-1.006906879e-03,-9.168475088e-04,2.334529953e-04,-6.833945135e-04
-6,1.914694762e-04,-1.980904833e-04,-6.621007100e-06,1.199167170e-04,1.666353499e-04,2.865520669e-04,4.470285979e-04,8.507229142e-05,5.321008893e-04,-2.457173049e-04,1.002534158e-04,-1.454638891e-04,-6.312958346e-05,2.714682543e-04,2.083386708e-04,-1.906938213e-05,-3.827601513e-04,-4.018295335e-04,1.093056943e-04,8.965184926e-05,1.989575436e-04,-7.831829530e-05,-3.059169362e-05,-1.089099889e-04,-3.939832203e-04,2.151371682e-04,-1.788460521e-04,-5.010048963e-04,1.299248438e-04,-3.710800526e-04,-5.364934259e-04,7.795889265e-05,-4.585345332e-04,1.128467719e-04,2.727758432e-04,3.856226151e-04,-7.120204245e-04,1.596637448e-04,-5.523566797e-04,-3.132642414e-04,1.148242798e-04,-1.984399616e-04,-7.879627998e-04,1.466636931e-04,-6.412991067e-04,-9.775228885e-04,2.412740525e-04,-7.362488360e-04,-1.402314028e-03,4.299198177e-04,-9.723942104e-04,-6.374692289e-04,1.787058411e-04,-4.587633877e-04,-8.958185026e-04,2.448194685e-04,-6.509990341e-04,-9.218253833e-07,2.792662744e-05,2.700480206e-05,-2.036639741e-04,3.103743413e-05,-1.726265399e-04,-2.217801123e-04,1.961304925e-04,-2.564961982e-05,5.351520883e-05,1.098550646e-05,6.450071530e-05,5.151535182e-04,9.391117109e-05,6.090646893e-04,-6.900439772e-04,4.339044314e-05,-6.466535340e-04,-6.162994373e-04,6.262311786e-05,-5.536763194e-04,-6.737461763e-04,-3.350733580e-05,-7.072535121e-04,-7.295384932e-04,1.435161089e-04,-5.860223843e-04,-7.195300617e-04,1.705175408e-05,-7.024783076e-04,-8.090398758e-04,2.455918974e-04,-5.634479784e-04,-9.154867789e-04,1.525658512e-04,-7.629209277e-04,-6.830211106e-04,1.749516135e-04,-5.080694971e-04,-7.910689959e-04,6.806315634e-05,-7.230058396e-04,-9.720089651e-04,2.208935953e-04,-7.511153698e-04,-1.119217772e-03,1.561452550e-04,-9.630725172e-04,-8.837811762e-04,2.351418793e-04,-6.486392970e-04
-5.9,1.935625377e-04,-1.875650425e-04,5.997495163e-06,1.335917043e-04,1.577340094e-04,2.913257137e-04,4.206856584e-04,7.867333902e-05,4.993589974e-04,-2.476389422e-04,1.004594716e-04,-1.471794706e-04,-6.848578517e-05,2.680045245e-04,1.995187393e-04,2.998429590e-05,-4.182434650e-04,-3.882591691e-04,1.115911556e-04,8.615883218e-05,1.977499878e-04,-6.452981880e-05,-1.279102414e-05,-7.732084293e-05,-4.415154822e-04,2.165496236e-04,-2.249658586e-04,-5.010072992e-04,1.341595965e-04,-3.668477026e-04,-5.873370006e-04,7.933562835e-05,-5.080013722e-04,1.259176657e-04,2.672775894e-04,3.931952551e-04,-6.543250872e-04,1.488211807e-04,-5.055039065e-04,-2.609577989e-04,1.058584404e-04,-1.550993585e-04,-7.374783723e-04,1.414098991e-04,-5.960684732e-04,-9.261961306e-04,2.320753845e-04,-6.941207461e-04,-1.355425519e-03,4.313927804e-04,-9.240327386e-04,-5.999865201e-04,1.781705574e-04,-4.218159627e-04,-8.583406633e-04,2.503376867e-04,-6.080029767e-04,1.014349862e-05,2.918568445e-05,3.932918308e-05,-2.358374835e-04,2.761320317e-05,-2.082242803e-04,-2.238733629e-04,1.852960740e-04,-3.857728882e-05,6.789326390e-06,6.318163580e-06,1.310748997e-05,4.918760144e-04,8.504975266e-05,5.769257671e-04,-6.447091591e-04,3.984022755e-05,-6.048689316e-04,-5.929591363e-04,5.944025897e-05,-5.335188773e-04,-6.248545264e-04,-2.681348652e-05,-6.516680129e-04,-7.000733950e-04,1.441041519e-04,-5.559692430e-04,-6.709726480e-04,1.785723965e-05,-6.531154083e-04,-7.845136626e-04,2.573451196e-04,-5.271685430e-04,-8.412260097e-04,1.402793794e-04,-7.009466303e-04,-6.551872242e-04,1.887287830e-04,-4.664584412e-04,-7.404872716e-04,6.243645551e-05,-6.780508161e-04,-9.428615188e-04,2.255740572e-04,-7.172874616e-04,-1.080990881e-03,1.654484536e-04,-9.155424276e-04,-8.472668746e-04,2.361917407e-04,-6.110751339e-04
-5.8,1.952521079e-04,-1.761351485e-04,1.911695947e-05,1.446307981e-04,1.471954509e-04,2.918262490e-04,3.910308057e-04,7.169817738e-05,4.627289831e-04,-2.500381067e-04,1.003175689e-04,-1.497205378e-04,-7.551636856e-05,2.635139550e-04,1.879975864e-04,8.179306053e-05,-4.520770795e-04,-3.702840190e-04,1.129155425e-04,8.236681790e-05,1.952823604e-04,-4.968915735e-05,5.581400163e-06,-4.410775718e-05,-4.879487983e-04,2.167791485e-04,-2.711696497e-04,-4.996169765e-04,1.374831698e-04,-3.621338067e-04,-6.351318459e-04,8.032735237e-05,-5.548044935e-04,1.340659354e-04,2.600252500e-04,3.940911854e-04,-5.974965192e-04,1.371992040e-04,-4.602973152e-04,-2.090421656e-04,9.669469729e-05,-1.123474683e-04,-6.872655722e-04,1.354985476e-04,-5.517670246e-04,-8.736984902e-04,2.219455729e-04,-6.517529173e-04,-1.304831646e-03,4.314299483e-04,-8.734016974e-04,-5.626145753e-04,1.766092048e-04,-3.860053705e-04,-8.178084605e-04,2.541615136e-04,-5.636469470e-04,2.252260955e-05,3.102128868e-05,5.354389823e-05,-2.667262491e-04,2.404017275e-05,-2.426860763e-04,-2.249438272e-04,1.735713553e-04,-5.137247184e-05,-4.004027106e-05,1.394537396e-06,-3.864573366e-05,4.666502735e-04,7.582534184e-05,5.424756154e-04,-5.976324551e-04,3.576887646e-05,-5.618635787e-04,-5.684328571e-04,5.618541401e-05,-5.122474431e-04,-5.760208289e-04,-1.849507669e-05,-5.945159056e-04,-6.690449830e-04,1.444959269e-04,-5.245490561e-04,-6.209786391e-04,1.895186157e-05,-6.020267775e-04,-7.573583328e-04,2.682953944e-04,-4.890629384e-04,-7.646252085e-04,1.275303794e-04,-6.370948291e-04,-6.247226954e-04,2.015250888e-04,-4.231976067e-04,-6.871973232e-04,5.586257762e-05,-6.313347456e-04,-9.103627328e-04,2.290935620e-04,-6.812691708e-04,-1.039221774e-03,1.747730395e-04,-8.644487344e-04,-8.075762690e-04,2.366863267e-04,-5.708899423e-04
-5.7,1.965212611e-04,-1.638646804e-04,3.265658070e-05,1.532173944e-04,1.351156037e-04,2.883329981e-04,3.582519166e-04,6.419336328e-05,4.224452799e-04,-2.527796306e-04,9.980938245e-05,-1.529702482e-04,-8.402672740e-05,2.580207753e-04,1.739940479e-04,1.359977467e-04,-4.838384175e-04,-3.478406708e-04,1.134674712e-04,7.828354275e-05,1.917510139e-04,-3.365448603e-05,2.437692097e-05,-9.277565065e-06,-5.329558743e-04,2.157855575e-04,-3.171703168e-04,-4.966426909e-04,1.398853388e-04,-3.567573521e-04,-6.795823796e-04,8.091850348e-05,-5.986638761e-04,1.375951455e-04,2.510469044e-04,3.886420499e-04,-5.416939001e-04,1.249063427e-04,-4.167875574e-04,-1.576231222e-04,8.733247796e-05,-7.029064421e-05,-6.373471067e-04,1.289833074e-04,-5.083637993e-04,-8.200671456e-04,2.109480628e-04,-6.091190828e-04,-1.250601063e-03,4.299391381e-04,-8.206619245e-04,-5.253279225e-04,1.740492812e-04,-3.512786412e-04,-7.743295286e-04,2.562882812e-04,-5.180412474e-04,3.626136187e-05,3.344794164e-05,6.970930351e-05,-2.960712789e-04,2.034484648e-05,-2.757264324e-04,-2.249320859e-04,1.610707962e-04,-6.386128965e-05,-8.676882208e-05,-3.768814109e-06,-9.053763619e-05,4.395503754e-04,6.623955663e-05,5.057899320e-04,-5.490235118e-04,3.118942767e-05,-5.178340841e-04,-5.426762365e-04,5.279317452e-05,-4.898830620e-04,-5.273670331e-04,-8.687836160e-06,-5.360548693e-04,-6.364325545e-04,1.446068478e-04,-4.918257067e-04,-5.696665089e-04,2.031718799e-05,-5.493493209e-04,-7.275816111e-04,2.783467403e-04,-4.492348708e-04,-6.859885971e-04,1.144920775e-04,-5.714965196e-04,-5.916406533e-04,2.132175209e-04,-3.784231325e-04,-6.313733729e-04,4.846645083e-05,-5.829069220e-04,-8.745796498e-04,2.314398025e-04,-6.431398473e-04,-9.939982578e-04,1.840337636e-04,-8.099644942e-04,-7.650047733e-04,2.367049084e-04,-5.282998650e-04
-5.6,1.973567345e-04,-1.508251072e-04,4.653162735e-05,1.595664170e-04,1.216061384e-04,2.811725554e-04,3.225749072e-04,5.621005443e-05,3.787849616e-04,-2.557092995e-04,9.891547460e-05,-1.567938249e-04,-9.379670852e-05,2.515528251e-04,1.577561166e-04,1.921583064e-04,-5.130882191e-04,-3.209299127e-04,1.134294303e-04,7.391714395e-05,1.873465743e-04,-1.633223158e-05,4.344594388e-05,2.711371231e-05,-5.762001146e-04,2.135407252e-04,-3.626593893e-04,-4.918990661e-04,1.413626957e-04,-3.505363704e-04,-7.204073050e-04,8.109424023e-05,-6.393130647e-04,1.368704224e-04,2.403878403e-04,3.772582627e-04,-4.870393348e-04,1.120584901e-04,-3.749808448e-04,-1.067987449e-04,7.776627011e-05,-2.903247480e-05,-5.877194173e-04,1.219200794e-04,-4.657993378e-04,-7.653279106e-04,1.991496648e-04,-5.661782458e-04,-1.192825162e-03,4.268407620e-04,-7.659843999e-04,-4.880840462e-04,1.705293588e-04,-3.175546873e-04,-7.280347205e-04,2.567367508e-04,-4.712979696e-04,5.136565485e-05,3.646393380e-05,8.782958865e-05,-3.236293396e-04,1.655472016e-05,-3.070746195e-04,-2.237927848e-04,1.479125077e-04,-7.588027711e-05,-1.331862677e-04,-9.151821633e-06,-1.423380894e-04,4.106649172e-04,5.629634642e-05,4.669612636e-04,-4.991013986e-04,2.612597365e-05,-4.729754250e-04,-5.156498866e-04,4.919855198e-05,-4.664513346e-04,-4.789690398e-04,2.431397677e-06,-4.765376421e-04,-6.022210890e-04,1.443513286e-04,-4.578697604e-04,-5.171551329e-04,2.192770724e-05,-4.952274257e-04,-6.952152912e-04,2.874028510e-04,-4.078124402e-04,-6.056219979e-04,1.013238249e-04,-5.042981730e-04,-5.559798054e-04,2.236885702e-04,-3.322912353e-04,-5.732234326e-04,4.039361651e-05,-5.328298161e-04,-8.356019159e-04,2.326066767e-04,-6.029952392e-04,-9.454330627e-04,1.931297048e-04,-7.523033579e-04,-7.198647137e-04,2.363202931e-04,-4.835444207e-04
-5.5,1.977480951e-04,-1.370943841e-04,6.065371108e-05,1.639187130e-04,1.067943073e-04,2.707130203e-04,2.842616077e-04,4.780414743e-05,3.320657552e-04,-2.586576617e-04,9.761610254e-05,-1.610415591e-04,-1.045848505e-04,2.441416227e-04,1.395567722e-04,2.497563401e-04,-5.393788368e-04,-2.896224968e-04,1.129750269e-04,6.927635846e-05,1.822513853e-04,2.321172061e-06,6.263730836e-05,6.495848043e-05,-6.173369709e-04,2.100293640e-04,-4.073076069e-04,-4.852095907e-04,1.419193079e-04,-3.432902828e-04,-7.573422896e-04,8.084112810e-05,-6.765011615e-04,1.323142326e-04,2.281097047e-04,3.604239373e-04,-4.336190698e-04,9.877834418e-05,-3.348407256e-04,-5.665943596e-05,6.798705310e-05,1.132761714e-05,-5.383529128e-04,1.143668353e-04,-4.239860775e-04,-7.094980212e-04,1.866201105e-04,-5.228779107e-04,-1.131615381e-03,4.220685163e-04,-7.095468651e-04,-4.508266140e-04,1.660980521e-04,-2.847285619e-04,-6.790752208e-04,2.555450459e-04,-4.235301750e-04,6.780165536e-05,4.005070242e-05,1.078523578e-04,-3.491744151e-04,1.269813486e-05,-3.364762803e-04,-2.214929429e-04,1.342133886e-04,-8.727955432e-05,-1.790774580e-04,-1.473060720e-05,-1.938080652e-04,3.800969135e-04,4.600229047e-05,4.260992040e-04,-4.480952137e-04,2.061583514e-05,-4.274793785e-04,-4.873207139e-04,4.533804357e-05,-4.419826703e-04,-4.308589163e-04,1.464651225e-05,-4.162124040e-04,-5.664057025e-04,1.436470016e-04,-4.227587009e-04,-4.635627963e-04,2.375137853e-05,-4.398114178e-04,-6.603149241e-04,2.953695968e-04,-3.649453274e-04,-5.238288135e-04,8.816794087e-05,-4.356608726e-04,-5.178059764e-04,2.328288227e-04,-2.849771537e-04,-5.129883681e-04,3.180804156e-05,-4.811803265e-04,-7.935410619e-04,2.325935453e-04,-5.609475166e-04,-8.936641243e-04,2.019479334e-04,-6.917161909e-04,-6.724761273e-04,2.355960126e-04,-4.368801147e-04
-5.4,1.976879897e-04,-1.227559318e-04,7.493205789e-05,1.665365863e-04,9.082309582e-05,2.573596822e-04,2.436083751e-04,3.903635944e-05,2.826447345e-04,-2.614432192e-04,9.589250361e-05,-1.655507156e-04,-1.161314841e-04,2.358224043e-04,1.196909202e-04,3.082002195e-04,-5.622642077e-04,-2.540639882e-04,1.122679358e-04,6.437088297e-05,1.766388188e-04,2.230071391e-05,8.179706180e-05,1.040977757e-04,-6.560142443e-04,2.052495328e-04,-4.507647114e-04,-4.764075580e-04,1.415670492e-04,-3.348405087e-04,-7.901410817e-04,8.014783128e-05,-7.099932504e-04,1.244031857e-04,2.142898177e-04,3.386930034e-04,-3.814834242e-04,8.519495547e-05,-2.962884688e-04,-7.286401273e-06,5.798405732e-05,5.069765605e-05,-4.891909611e-04,1.063835391e-04,-3.828074221e-04,-6.525875451e-04,1.734320538e-04,-4.791554913e-04,-1.067094969e-03,4.155673110e-04,-6.515276579e-04,-4.134869176e-04,1.608130384e-04,-2.526738792e-04,-6.276168856e-04,2.527679883e-04,-3.748488973e-04,8.549718798e-05,4.417271252e-05,1.296699005e-04,-3.724979581e-04,8.804190187e-06,-3.636937679e-04,-2.180089750e-04,1.200854607e-04,-9.792351431e-05,-2.242213135e-04,-2.047720425e-05,-2.446985178e-04,3.479647084e-04,3.536703338e-05,3.833317417e-04,-3.962410782e-04,1.471128824e-05,-3.815297900e-04,-4.576597367e-04,4.115089743e-05,-4.165088393e-04,-3.830292513e-04,2.770819070e-05,-3.553210606e-04,-5.289944945e-04,1.424190141e-04,-3.865754804e-04,-4.090045227e-04,2.575008144e-05,-3.832544413e-04,-6.229574561e-04,3.021572706e-04,-3.208001855e-04,-4.409046916e-04,7.514777023e-05,-3.657569213e-04,-4.772120628e-04,2.405399631e-04,-2.366720998e-04,-4.509373241e-04,2.288848060e-05,-4.280488435e-04,-7.485274876e-04,2.314045145e-04,-5.171229731e-04,-8.388525324e-04,2.103676214e-04,-6.284849110e-04,-6.231564626e-04,2.345830482e-04,-3.885734144e-04
-5.3,1.971731625e-04,-1.078976521e-04,8.927551039e-05,1.676999135e-04,7.385181467e-05,2.415517282e-04,2.009450056e-04,2.997223839e-05,2.309172440e-04,-2.638750604e-04,9.372841572e-05,-1.701466447e-04,-1.281609825e-04,2.266341811e-04,9.847319863e-05,3.668312457e-04,-5.813086768e-04,-2.144774311e-04,1.114620460e-04,5.921186067e-05,1.706739066e-04,4.355722510e-05,1.007671788e-04,1.443244039e-04,-6.918725626e-04,1.992128575e-04,-4.926597051e-04,-4.653359379e-04,1.403255681e-04,-3.250103698e-04,-8.185762381e-04,7.900576279e-05,-7.395704753e-04,1.136644410e-04,1.990208474e-04,3.126852884e-04,-3.306457869e-04,7.144286372e-05,-2.592029232e-04,4.124990141e-05,4.774669276e-05,8.899659417e-05,-4.401486868e-04,9.803183564e-05,-3.421168512e-04,-5.945995389e-04,1.596612981e-04,-4.349382408e-04,-9.993883769e-04,4.072903830e-04,-5.920979938e-04,-3.759840009e-04,1.547402501e-04,-2.212437508e-04,-5.738337597e-04,2.484744123e-04,-3.253593475e-04,1.043440303e-04,4.877790982e-05,1.531219401e-04,-3.934084562e-04,4.902571939e-06,-3.885058842e-04,-2.133234266e-04,1.056335085e-04,-1.076899181e-04,-2.683899663e-04,-2.635936144e-05,-2.947493277e-04,3.144031574e-04,2.440387311e-05,3.388070305e-04,-3.437766320e-04,8.480147184e-06,-3.352964848e-04,-4.266384190e-04,3.658049185e-05,-3.900579271e-04,-3.354397860e-04,4.134331244e-05,-2.940964736e-04,-4.900103133e-04,1.406040518e-04,-3.494062615e-04,-3.535894404e-04,2.788008133e-05,-3.257093591e-04,-5.832382995e-04,3.076822838e-04,-2.755560157e-04,-3.571321506e-04,6.236691057e-05,-2.947652400e-04,-4.343167735e-04,2.467377638e-04,-1.875790097e-04,-3.873613087e-04,1.382350860e-05,-3.735378001e-04,-7.007067575e-04,2.290483233e-04,-4.716584343e-04,-7.811788601e-04,2.182637196e-04,-5.629151405e-04,-5.722108431e-04,2.333163520e-04,-3.388944911e-04
-5.2,1.962054069e-04,-9.261088842e-05,1.035945185e-04,1.677016750e-04,5.605677858e-05,2.237584536e-04,1.566331017e-04,2.068207255e-05,1.773151743e-04,-2.657553915e-04,9.111155448e-05,-1.746438370e-04,-1.403840247e-04,2.166198400e-04,7.623581525e-05,4.249306210e-04,-5.960940670e-04,-1.711634460e-04,1.107018429e-04,5.381235331e-05,1.645141962e-04,6.600348841e-05,1.193850999e-04,1.853885884e-04,-7.245473554e-04,1.919444990e-04,-5.326028565e-04,-4.518476429e-04,1.382219703e-04,-3.136256726e-04,-8.424407353e-04,7.740968779e-05,-7.650310475e-04,1.006702265e-04,1.824106852e-04,2.830809117e-04,-2.810817423e-04,5.766042431e-05,-2.234213180e-04,8.889000010e-05,3.726641286e-05,1.261564130e-04,-3.911130302e-04,8.937438142e-05,-3.017386488e-04,-5.355301172e-04,1.453870606e-04,-3.901430566e-04,-9.286132197e-04,3.971977707e-04,-5.314154490e-04,-3.382247045e-04,1.479531261e-04,-1.902715784e-04,-5.179028516e-04,2.427446123e-04,-2.751582393e-04,1.242009898e-04,5.379865895e-05,1.779996488e-04,-4.117311193e-04,1.023293629e-06,-4.107078257e-04,-2.074222236e-04,9.095362721e-05,-1.164685964e-04,-3.113488528e-04,-3.234043593e-05,-3.436892888e-04,2.795642915e-04,1.313046394e-05,2.926947554e-04,-2.909357045e-04,2.005079992e-06,-2.889306245e-04,-3.942262122e-04,3.157561757e-05,-3.626505946e-04,-2.880261589e-04,5.526573972e-05,-2.327604191e-04,-4.494921173e-04,1.381534972e-04,-3.113386201e-04,-2.974198131e-04,3.009283889e-05,-2.673269742e-04,-5.412690652e-04,3.118683996e-04,-2.294006657e-04,-2.727765401e-04,4.990923273e-05,-2.228673074e-04,-3.892629264e-04,2.513546580e-04,-1.379082683e-04,-3.225667126e-04,4.805490077e-06,-3.177612225e-04,-6.502368436e-04,2.255388508e-04,-4.246979928e-04,-7.208390795e-04,2.255097302e-04,-4.953293493e-04,-5.199244477e-04,2.318118430e-04,-2.881126048e-04
-5.1,1.947917088e-04,-7.698932134e-05,1.178023875e-04,1.668419257e-04,3.763153486e-05,2.044734606e-04,1.110632104e-04,1.124063687e-05,1.223038473e-04,-2.668824956e-04,8.803488821e-05,-1.788476074e-04,-1.525006563e-04,2.058262560e-04,5.332559966e-05,4.817288603e-04,-6.062264809e-04,-1.244976206e-04,1.101222394e-04,4.818769303e-05,1.583099324e-04,8.952047212e-05,1.374847201e-04,2.270051922e-04,-7.536730158e-04,1.834829582e-04,-5.701900576e-04,-4.358072057e-04,1.352903786e-04,-3.005168271e-04,-8.615510540e-04,7.535832356e-05,-7.861927305e-04,8.602986521e-05,1.645821793e-04,2.506120445e-04,-2.327294443e-04,4.398744216e-05,-1.887420021e-04,1.355838436e-04,2.653838411e-05,1.621222277e-04,-3.419451719e-04,8.047405282e-05,-2.614711190e-04,-4.753699636e-04,1.306924093e-04,-3.446775543e-04,-8.548772879e-04,3.852562283e-04,-4.696210596e-04,-3.001048011e-04,1.405317976e-04,-1.595730035e-04,-4.600013068e-04,2.356679211e-04,-2.243333857e-04,1.448978108e-04,5.915307886e-05,2.040508896e-04,-4.273083058e-04,-2.803532601e-06,-4.301118384e-04,-2.002932297e-04,7.613254492e-05,-1.241606847e-04,-3.528582003e-04,-3.837937479e-05,-3.912375751e-04,2.436170024e-04,1.569570339e-06,2.451865727e-04,-2.379448537e-04,-4.618507490e-06,-2.425633612e-04,-3.603909516e-04,2.609147182e-05,-3.342994798e-04,-2.407101975e-04,6.918652269e-05,-1.715236748e-04,-4.074962106e-04,1.350351282e-04,-2.724610825e-04,-2.405924907e-04,3.233653344e-05,-2.082559572e-04,-4.971766311e-04,3.146480008e-04,-1.825286303e-04,-1.880841281e-04,3.783922826e-05,-1.502448998e-04,-3.422160392e-04,2.543416322e-04,-8.787440707e-05,-2.568693066e-04,-3.975971486e-06,-2.608452781e-04,-5.972868424e-04,2.208958702e-04,-3.763909722e-04,-6.580414098e-04,2.319800194e-04,-4.260613904e-04,-4.665581972e-04,2.300650486e-04,-2.364931486e-04
-5,1.929433189e-04,-6.112787460e-05,1.318154443e-04,1.654201431e-04,1.878633431e-05,1.842064774e-04,6.465050933e-05,1.726722688e-06,6.637723201e-05,-2.670545012e-04,8.449773421e-05,-1.825567670e-04,-1.642044069e-04,1.943043619e-04,3.009995498e-05,5.364197592e-04,-6.113443009e-04,-7.492454164e-05,1.098476076e-04,4.235570703e-05,1.522033146e-04,1.139626052e-04,1.548988188e-04,2.688614240e-04,-7.788891782e-04,1.738797658e-04,-6.050094124e-04,-4.170940322e-04,1.315715112e-04,-2.855225210e-04,-8.757515187e-04,7.285496974e-05,-8.028965489e-04,7.037956072e-05,1.456725322e-04,2.160520929e-04,-1.854916688e-04,3.056237720e-05,-1.549292916e-04,1.812877818e-04,1.556294959e-05,1.968507314e-04,-2.924854810e-04,7.139333640e-05,-2.210921446e-04,-4.141079930e-04,1.156650199e-04,-2.984429731e-04,-7.782799673e-04,3.714395654e-04,-4.068404020e-04,-2.615118671e-04,1.325623000e-04,-1.289495671e-04,-4.003061966e-04,2.273406616e-04,-1.729655350e-04,1.662398973e-04,6.474672821e-05,2.309866256e-04,-4.400008167e-04,-6.547857667e-06,-4.465486744e-04,-1.919265454e-04,6.124764028e-05,-1.306789052e-04,-3.926757816e-04,-4.443082117e-05,-4.371066028e-04,2.067456791e-04,-1.025020657e-05,1.964954726e-04,-1.850216308e-04,-1.128619085e-05,-1.963078216e-04,-3.251022351e-04,2.009041308e-05,-3.050118221e-04,-1.934101989e-04,8.282183222e-05,-1.105883667e-04,-3.640971164e-04,1.312330220e-04,-2.328640944e-04,-1.832023235e-04,3.455819316e-05,-1.486441304e-04,-4.511036085e-04,3.159638254e-04,-1.351397831e-04,-1.032825906e-04,2.620254754e-05,-7.708004302e-05,-2.933635624e-04,2.556694167e-04,-3.769414567e-05,-1.905884988e-04,-1.234048032e-05,-2.029289791e-04,-5.420367253e-04,2.151456122e-04,-3.268911131e-04,-5.930048334e-04,2.375522928e-04,-3.554525406e-04,-4.123478300e-04,2.280518031e-04,-1.842960269e-04
-4.9,1.906739468e-04,-4.512170149e-05,1.455522453e-04,1.637267528e-04,-2.531089721e-07,1.634736439e-04,1.782919093e-05,-7.777551243e-06,1.005163969e-05,-2.660739767e-04,8.050673244e-05,-1.855672443e-04,-1.751871799e-04,1.821091340e-04,6.921954033e-06,5.881792223e-04,-6.111273143e-04,-2.294809197e-05,1.099902736e-04,3.633688222e-05,1.463271558e-04,1.391618105e-04,1.714623709e-04,3.106241814e-04,-7.998484418e-04,1.631989885e-04,-6.366494533e-04,-3.956065866e-04,1.271122907e-04,-2.684942959e-04,-8.849190771e-04,6.990813037e-05,-8.150109467e-04,5.437063479e-05,1.258323739e-04,1.802030087e-04,-1.392390396e-04,1.751913554e-05,-1.217199041e-04,2.259610679e-04,4.346880946e-06,2.303079488e-04,-2.425602092e-04,6.219401608e-05,-1.803661931e-04,-3.517364914e-04,1.003978845e-04,-2.513386069e-04,-6.989163115e-04,3.557294102e-04,-3.431869013e-04,-2.223298108e-04,1.241358865e-04,-9.819392434e-05,-3.389964014e-04,2.178647293e-04,-1.211316722e-04,1.880136076e-04,7.047462603e-05,2.584882336e-04,-4.496896680e-04,-1.017990837e-05,-4.598695764e-04,-1.823159741e-04,4.636728513e-05,-1.359486889e-04,-4.305604149e-04,-5.044539767e-05,-4.810058125e-04,1.691480314e-04,-2.229382861e-05,1.468542028e-04,-1.323736777e-04,-1.788937090e-05,-1.502630486e-04,-2.883367528e-04,1.354275171e-05,-2.747940011e-04,-1.460491868e-04,9.589792593e-05,-5.015126085e-05,-3.193871381e-04,1.267455531e-04,-1.926415851e-04,-1.253460258e-04,3.670577669e-05,-8.864024907e-05,-4.032093565e-04,3.157710800e-04,-8.743827648e-05,-1.858374195e-05,1.502690328e-05,-3.556838667e-06,-2.429143615e-04,2.553290536e-04,1.241469217e-05,-1.240415427e-04,-2.012288333e-05,-1.441644260e-04,-4.846774247e-04,2.083208358e-04,-2.763565890e-04,-5.259586098e-04,2.421101412e-04,-2.838484686e-04,-3.575053205e-04,2.257303152e-04,-1.317750052e-04
-4.8,1.879975510e-04,-2.906523546e-05,1.589323155e-04,1.620352351e-04,-1.924761549e-05,1.427876196e-04,-2.895409077e-05,-1.718761637e-05,-4.614170713e-05,-2.637527748e-04,7.607653560e-05,-1.876762392e-04,-1.851442516e-04,1.692994661e-04,-1.584478548e-05,6.361875286e-04,-6.053063865e-04,3.088114205e-05,1.106490722e-04,3.015450786e-05,1.408035801e-04,1.649307626e-04,1.870159748e-04,3.519467374e-04,-8.162244548e-04,1.515163866e-04,-6.647080681e-04,-3.712663830e-04,1.219654036e-04,-2.493009795e-04,-8.889673965e-04,6.653201535e-05,-8.224353811e-04,3.865715868e-05,1.052245507e-04,1.438817094e-04,-9.381346534e-05,4.983386706e-06,-8.883007864e-05,2.695631718e-04,-7.095629145e-06,2.624675426e-04,-1.919887041e-04,5.293711892e-05,-1.390515852e-04,-2.882560604e-04,8.498921984e-05,-2.032668405e-04,-6.168822021e-04,3.381170632e-04,-2.787651390e-04,-1.824440631e-04,1.153481014e-04,-6.709596170e-05,-2.762552439e-04,2.073466140e-04,-6.890862991e-05,2.099917644e-04,7.622362304e-05,2.862153875e-04,-4.562776826e-04,-1.367056992e-05,-4.699482526e-04,-1.714606881e-04,3.155150807e-05,-1.399091800e-04,-4.662755466e-04,-5.637020422e-05,-5.226457508e-04,1.310325069e-04,-3.451945330e-05,9.651305364e-05,-8.019762324e-05,-2.432032286e-05,-1.045179461e-04,-2.500837128e-04,6.427801208e-06,-2.436559116e-04,-9.856000189e-05,1.081540364e-04,9.594034522e-06,-2.734733881e-04,1.215816764e-04,-1.518917117e-04,-6.712471045e-05,3.872954893e-05,-2.839516152e-05,-3.536699824e-04,3.140393812e-04,-3.963060113e-05,6.581230074e-05,4.323595785e-06,7.013589652e-05,-1.910974321e-04,2.533318659e-04,6.223443372e-05,-5.753729181e-05,-2.717905089e-05,-8.471634270e-05,-4.254105549e-04,2.004603747e-04,-2.249501802e-04,-4.571411541e-04,2.455451899e-04,-2.115959642e-04,-3.022213044e-04,2.230439978e-04,-7.917730657e-05
-4.7,1.849262895e-04,-1.305123182e-05,1.718750577e-04,1.605964413e-04,-3.794784706e-05,1.226485943e-04,-7.524724508e-05,-2.641751276e-05,-1.016647578e-04,-2.599161494e-04,7.122989260e-05,-1.886862568e-04,-1.937785936e-04,1.559378858e-04,-3.784070779e-05,6.796535063e-04,-5.936736602e-04,8.597984610e-05,1.119087018e-04,2.383471155e-05,1.357434134e-04,1.910660356e-04,2.014089359e-04,3.924749715e-04,-8.277192433e-04,1.389180627e-04,-6.888011806e-04,-3.440206759e-04,1.161887405e-04,-2.278319354e-04,-8.878492990e-04,6.274679941e-05,-8.251024996e-04,2.388398013e-05,8.402255206e-05,1.079065322e-04,-4.903121379e-05,-6.931376294e-06,-5.596259009e-05,3.120528871e-04,-1.874231119e-05,2.933105759e-04,-1.405900882e-04,4.368305978e-05,-9.690702846e-05,-2.236787063e-04,6.954110806e-05,-1.541375983e-04,-5.322793116e-04,3.186063473e-04,-2.136729643e-04,-1.417460427e-04,1.062971479e-04,-3.544889483e-05,-2.122720458e-04,1.958963042e-04,-1.637574163e-05,2.319391881e-04,8.187516350e-05,3.138143516e-04,-4.596903653e-04,-1.699188676e-05,-4.766822521e-04,-1.593666948e-04,1.685362231e-05,-1.425130725e-04,-4.995924857e-04,-6.214955517e-05,-5.617420408e-04,9.261563068e-05,-4.687838096e-05,4.573724972e-05,-2.867654692e-05,-3.047698661e-05,-5.915353353e-05,-2.103483656e-04,-1.264898592e-06,-2.116132642e-04,-5.088711395e-05,1.193446876e-04,6.845757364e-05,-2.264717215e-04,1.157560768e-04,-1.107156447e-04,-8.644102605e-06,4.058250586e-05,3.193840326e-05,-3.026760753e-04,3.107539444e-04,8.077869012e-06,1.497126190e-04,-5.910023594e-06,1.438025954e-04,-1.381587921e-04,2.497087695e-04,1.115499774e-04,8.630710476e-06,-3.339162691e-05,-2.476091644e-05,-3.644471484e-04,1.916083647e-04,-1.728387836e-04,-3.867971510e-04,2.477589033e-04,-1.390382478e-04,-2.466671053e-04,2.199247501e-04,-2.674235522e-05
-4.6,1.814690077e-04,2.830239786e-06,1.842992475e-04,1.596360709e-04,-5.609948752e-05,1.035365834e-04,-1.205998926e-04,-3.538115516e-05,-1.559810478e-04,-2.544055085e-04,6.599703815e-05,-1.884084704e-04,-2.008040476e-04,1.420900625e-04,-5.871398506e-05,7.178390932e-04,-5.760927758e-04,1.417463174e-04,1.138403130e-04,1.740627535e-05,1.312465883e-04,2.173514555e-04,2.145020821e-04,4.318535375e-04,-8.340692954e-04,1.254985824e-04,-7.085707129e-04,-3.138434645e-04,1.098447300e-04,-2.039987344e-04,-8.815573665e-04,5.857859252e-05,-8.229787740e-04,1.067568867e-05,6.240846202e-05,7.308415069e-05,-4.685957250e-06,-1.812752462e-05,-2.281348187e-05,3.533891811e-04,-3.056256917e-05,3.228266119e-04,-8.818904351e-05,3.449188311e-05,-5.369716041e-05,-1.580284660e-04,5.415704014e-05,-1.038714259e-04,-4.452190567e-04,2.972167325e-04,-1.480023242e-04,-1.001362653e-04,9.708161840e-05,-3.054646873e-06,-1.472414781e-04,1.836255840e-04,3.638410583e-05,2.536183032e-04,8.730845973e-05,3.409267629e-04,-4.598759385e-04,-2.011754502e-05,-4.799934835e-04,-1.460479389e-04,2.323048013e-06,-1.437248909e-04,-5.302933532e-04,-6.772596596e-05,-5.980193191e-04,5.411924113e-05,-5.931535627e-05,-5.196115138e-06,2.202474614e-05,-3.626769319e-05,-1.424294704e-05,-1.691527702e-04,-9.534550593e-06,-1.786873208e-04,-2.985534140e-06,1.292420038e-04,1.262564697e-04,-1.784983788e-04,1.092840434e-04,-6.921433546e-05,4.998712678e-05,4.221998462e-05,9.220711141e-05,-2.504281971e-04,3.059157708e-04,5.548757374e-05,2.329273781e-04,-1.568702816e-05,2.172403499e-04,-8.435625383e-05,2.445088750e-04,1.601526212e-04,7.419103805e-05,-3.867532697e-05,3.551571108e-05,-3.020053899e-04,1.818134724e-04,-1.201919175e-04,-3.151731448e-04,2.486645893e-04,-6.650855551e-05,-1.909951585e-04,2.162959812e-04,2.530082271e-05
-4.5,1.776302054e-04,1.849282714e-05,1.961230325e-04,1.593547893e-04,-7.345007134e-05,8.590471801e-05,-1.645706146e-04,-4.399381193e-05,-2.085644265e-04,-2.470800476e-04,6.041470607e-05,-1.866653415e-04,-2.059475623e-04,1.278241012e-04,-7.812346111e-05,7.500824038e-04,-5.525077349e-04,1.975746689e-04,1.165030639e-04,1.090023935e-05,1.274033033e-04,2.435617386e-04,2.261705784e-04,4.697323169e-04,-8.350508604e-04,1.113587455e-04,-7.236921149e-04,-2.807355138e-04,1.029996504e-04,-1.777358634e-04,-8.701236079e-04,5.405917198e-05,-8.160644360e-04,-3.737348309e-07,4.057045363e-05,4.019671880e-05,3.944738744e-05,-2.852632159e-05,1.092106585e-05,3.935325868e-04,-4.251763445e-05,3.510149523e-04,-3.462113977e-05,2.542331608e-05,-9.197823698e-06,-9.134044566e-05,3.893898278e-05,-5.240146288e-05,-3.558254355e-04,2.739861167e-04,-8.183931876e-05,-5.752658817e-05,8.779805078e-05,3.027146261e-05,-8.136124890e-05,1.706456319e-04,8.928438297e-05,2.747948743e-04,9.240398169e-05,3.671988560e-04,-4.568048449e-04,-2.302332975e-05,-4.798281746e-04,-1.315265945e-04,-1.199165684e-05,-1.435182513e-04,-5.581742143e-04,-7.304135919e-05,-6.312155734e-04,1.576725921e-05,-7.176923985e-05,-5.600198064e-05,7.176573921e-05,-4.161586905e-05,3.014987016e-05,-1.265349160e-04,-1.836857313e-05,-1.449034891e-04,4.518202371e-05,1.376376295e-04,1.828196533e-04,-1.296617108e-04,1.021770880e-04,-2.748462280e-05,1.086593110e-04,4.359885793e-05,1.522581689e-04,-1.971314528e-04,2.995410317e-04,1.024095789e-04,3.152664081e-04,-2.502689761e-05,2.902395105e-04,-2.995289313e-05,2.377974882e-04,2.078445951e-04,1.388994545e-04,-4.298074291e-05,9.591871159e-05,-2.383082257e-04,1.711284859e-04,-6.717973974e-05,-2.425128216e-04,2.481898231e-04,5.677001585e-06,-1.353378469e-04,2.120746426e-04,7.673679571e-05
-4.4,1.734090750e-04,3.385490981e-05,2.072639848e-04,1.599293060e-04,-8.975642201e-05,7.017288395e-05,-2.067345250e-04,-5.217371706e-05,-2.589082420e-04,-2.378180322e-04,5.452514301e-05,-1.832928892e-04,-2.089512822e-04,1.132096894e-04,-9.574159276e-05,7.758176766e-04,-5.229496131e-04,2.528680635e-04,1.199458605e-04,4.349363169e-06,1.242952236e-04,2.694665232e-04,2.363068108e-04,5.057733339e-04,-8.304853019e-04,9.660331165e-05,-7.338819903e-04,-2.447245871e-04,9.572298317e-05,-1.490016039e-04,-8.536194432e-04,4.922555853e-05,-8.043938846e-04,-8.711227685e-06,1.870000022e-05,9.988772539e-06,8.360755786e-05,-3.807018756e-05,4.553737031e-05,4.324457069e-04,-5.456104420e-05,3.778846627e-04,2.026164595e-05,1.653622803e-05,3.679787398e-05,-2.365996937e-05,2.398461309e-05,3.246437166e-07,-2.642370955e-04,2.489728674e-04,-1.526422809e-05,-1.384235274e-05,7.853841820e-05,6.469606546e-05,-1.482982344e-05,1.570642717e-04,1.422344483e-04,2.952435994e-04,9.704699253e-05,3.922905919e-04,-4.504692481e-04,-2.568765585e-05,-4.761569039e-04,-1.158321755e-04,-2.604109701e-05,-1.418732725e-04,-5.830488467e-04,-7.803840394e-05,-6.610872506e-04,-2.221838658e-05,-8.417403248e-05,-1.063924191e-04,1.204350260e-04,-4.646395958e-05,7.397106642e-05,-8.254830956e-05,-2.774264590e-05,-1.102909555e-04,9.364791276e-05,1.443439369e-04,2.379918497e-04,-8.005685315e-05,9.444024324e-05,1.438339010e-05,1.672624421e-04,4.467687485e-05,2.119393170e-04,-1.429907232e-04,2.916600856e-04,1.486693625e-04,3.965367076e-04,-3.395206729e-05,3.625846403e-04,2.478949564e-05,2.296538152e-04,2.544433109e-04,2.025408672e-04,-4.629581993e-05,1.562450473e-04,-1.735818655e-04,1.596105083e-04,-1.397135723e-05,-1.690532147e-04,2.462788854e-04,7.722567078e-05,-7.980603327e-05,2.071723373e-04,1.273663040e-04
-4.3,1.687982331e-04,4.884059161e-05,2.176388248e-04,1.615127622e-04,-1.047915372e-04,5.672122498e-05,-2.466912986e-04,-5.984367696e-05,-3.065349755e-04,-2.265182799e-04,4.837518518e-05,-1.781430947e-04,-2.095753044e-04,9.831720029e-05,-1.112581041e-04,7.945916759e-04,-4.875419079e-04,3.070497679e-04,1.242085528e-04,-2.212533183e-06,1.219960196e-04,2.948347120e-04,2.448232467e-04,5.396579587e-04,-8.202448172e-04,8.133896701e-05,-7.389058502e-04,-2.058665997e-04,8.808677523e-05,-1.177798245e-04,-8.321566711e-04,4.411949591e-05,-7.880371752e-04,-1.383523910e-05,-3.010983649e-06,-1.684622275e-05,1.280405382e-04,-4.672406387e-05,8.131647429e-05,4.700922247e-04,-6.663933762e-05,4.034528871e-04,7.658503466e-05,7.887327719e-06,8.447236238e-05,4.495695604e-05,9.384982132e-06,5.434193817e-05,-1.706090381e-04,2.222570301e-04,5.164799203e-05,3.097527252e-05,6.938730595e-05,1.003625785e-04,5.215445266e-05,1.429835156e-04,1.951379682e-04,3.147529764e-04,1.011307945e-04,4.158837709e-04,-4.408830342e-04,-2.809214368e-05,-4.689751779e-04,-9.899983450e-05,-3.977542610e-05,-1.387752606e-04,-6.047532303e-04,-8.266186160e-05,-6.874150919e-04,-5.962274249e-05,-9.646015451e-05,-1.560828970e-04,1.679517501e-04,-5.077564095e-05,1.171761092e-04,-3.726320500e-05,-3.762132548e-05,-7.488453048e-05,1.424410498e-04,1.491944927e-04,2.916355425e-04,-2.976465204e-05,8.607142229e-05,5.630677025e-05,2.256849080e-04,4.541265053e-05,2.710975585e-04,-8.820726897e-05,2.823164420e-04,1.941091730e-04,4.765407811e-04,-4.248565512e-05,4.340551259e-04,7.961604652e-05,2.201687093e-04,2.997847558e-04,2.649277438e-04,-4.864470430e-05,2.162830395e-04,-1.080553897e-04,1.473216691e-04,3.926627933e-05,-9.502238980e-05,2.428946823e-04,1.478722925e-04,-2.448861121e-05,2.014960684e-04,1.770074572e-04
-4.2,1.637820841e-04,6.338069247e-05,2.271627766e-04,1.642337949e-04,-1.183502761e-04,4.588351884e-05,-2.840734642e-04,-6.693257039e-05,-3.510060346e-04,-2.131018641e-04,4.201522181e-05,-1.710866423e-04,-2.076014782e-04,8.321683601e-05,-1.243846422e-04,8.060776799e-04,-4.465060329e-04,3.595716470e-04,1.293222615e-04,-8.751322802e-06,1.205709387e-04,3.194388427e-04,2.516549431e-04,5.710937858e-04,-8.042580218e-04,6.567271613e-05,-7.385853057e-04,-1.642475950e-04,8.016499910e-05,-8.408259592e-05,-8.058892060e-04,3.878688507e-05,-7.671023210e-04,-1.530636101e-05,-2.437286031e-05,-3.967922131e-05,1.729918714e-04,-5.447559599e-05,1.185162754e-04,5.064348324e-04,-7.869284224e-05,4.277419901e-04,1.344465104e-04,-4.705967402e-07,1.339759136e-04,1.144419141e-04,-4.777612599e-06,1.096643015e-04,-7.511434939e-05,1.939410100e-04,1.188266607e-04,7.696678366e-05,6.041886683e-05,1.373856505e-04,1.193926490e-04,1.284979810e-04,2.478906300e-04,3.331289887e-04,1.045594240e-04,4.376884127e-04,-4.280825459e-04,-3.022206224e-05,-4.583046081e-04,-8.106898297e-05,-5.314619070e-05,-1.342151737e-04,-6.231503842e-04,-8.685981833e-05,-7.100102025e-04,-9.624338389e-05,-1.085558218e-04,-2.047992057e-04,2.142635636e-04,-5.453624719e-05,1.597273164e-04,9.231001159e-06,-4.795924345e-05,-3.872824229e-05,1.915870122e-04,1.520439271e-04,3.436309394e-04,2.114608980e-05,7.706233613e-05,9.820842593e-05,2.838108008e-04,4.576644926e-05,3.295772501e-04,-3.297634465e-05,2.715657352e-04,2.385893906e-04,5.550751015e-04,-5.064997660e-05,5.044251249e-04,1.342832763e-04,2.094426255e-04,3.437259018e-04,3.258955253e-04,-5.008388012e-05,2.758116452e-04,-4.196094559e-05,1.343300185e-04,9.236907294e-05,-2.063827565e-05,2.380198055e-04,2.173815299e-04,3.054635502e-05,1.949490471e-04,2.254954021e-04
-4.1,1.583350994e-04,7.741371944e-05,2.357488189e-04,1.681947667e-04,-1.302538662e-04,3.794090050e-05,-3.185544196e-04,-7.337670481e-05,-3.919311244e-04,-1.975137220e-04,3.549795034e-05,-1.620157717e-04,-2.028379787e-04,6.797784194e-05,-1.348601367e-04,8.100886454e-04,-4.001676879e-04,4.099209574e-04,1.353089927e-04,-1.523332275e-05,1.200756700e-04,3.430593458e-04,2.567610739e-04,5.998204198e-04,-7.825144100e-04,4.971076046e-05,-7.328036495e-04,-1.199858595e-04,7.203298774e-05,-4.795287180e-05,-7.750147523e-04,3.327722676e-05,-7.417375256e-04,-1.275725157e-05,-4.520068052e-05,-5.795793209e-05,2.186981171e-04,-6.133417799e-05,1.573639391e-04,5.414331295e-04,-9.065641612e-05,4.507767133e-04,1.939099622e-04,-8.490311596e-06,1.854196506e-04,1.847120245e-04,-1.843184411e-05,1.662801804e-04,2.205377865e-05,1.641500493e-04,1.862038280e-04,1.241518575e-04,5.169414849e-05,1.758460060e-04,1.866838477e-04,1.136943167e-04,3.003781644e-04,3.501977069e-04,1.072496183e-04,4.574473252e-04,-4.121277889e-04,-3.206654462e-05,-4.441943335e-04,-6.208313200e-05,-6.610843368e-05,-1.281915657e-04,-6.381348406e-04,-9.058473616e-05,-7.287195768e-04,-1.318958776e-04,-1.203884073e-04,-2.522842848e-04,2.593430240e-04,-5.775210244e-05,2.015909216e-04,5.682362815e-05,-5.870271303e-05,-1.879084881e-06,2.411068221e-04,1.527678421e-04,3.938746643e-04,7.261478761e-05,6.739997240e-05,1.400147600e-04,3.415171452e-04,4.570145076e-05,3.872185960e-04,2.251502351e-05,2.594747162e-04,2.819897397e-04,6.319282040e-04,-5.846508892e-05,5.734631151e-04,1.885625557e-04,1.975837809e-04,3.861463366e-04,3.852963292e-04,-5.069570365e-05,3.346006255e-04,2.446607874e-05,1.207103656e-04,1.451764444e-04,5.389240643e-05,2.316565615e-04,2.855489679e-04,8.524893197e-05,1.874319757e-04,2.726809077e-04
-4,1.524205242e-04,9.088673874e-05,2.433072629e-04,1.734703433e-04,-1.403536635e-04,3.311667973e-05,-3.498554237e-04,-7.912099291e-05,-4.289764166e-04,-1.797237396e-04,2.887703485e-05,-1.508467047e-04,-1.951238867e-04,5.266779522e-05,-1.424560915e-04,8.065895772e-04,-3.489632421e-04,4.576263351e-04,1.421811504e-04,-2.162594426e-05,1.205552061e-04,3.654887873e-04,2.601250949e-04,6.256138822e-04,-7.550667600e-04,3.355777149e-05,-7.215089885e-04,-7.323319835e-05,6.376693097e-05,-9.466267376e-06,-7.397754016e-04,2.764308268e-05,-7.121323189e-04,-5.900723291e-06,-6.531632953e-05,-7.121705282e-05,2.653786442e-04,-6.732932688e-05,1.980493173e-04,5.750426668e-04,-1.024601071e-04,4.725825597e-04,2.550016922e-04,-1.613118448e-05,2.388705077e-04,2.556685639e-04,-3.151958752e-05,2.241489764e-04,1.206802467e-04,1.330324354e-04,2.537126822e-04,1.725274962e-04,4.325925841e-05,2.157867546e-04,2.538243340e-04,9.865134196e-05,3.524756759e-04,3.658074084e-04,1.091319362e-04,4.749393446e-04,-3.931034248e-04,-3.361867053e-05,-4.267220953e-04,-4.209074601e-05,-7.862241213e-05,-1.207131581e-04,-6.496360275e-04,-9.379431364e-05,-7.434303412e-04,-1.664184171e-04,-1.318857701e-04,-2.983041872e-04,3.031848055e-04,-6.044931258e-05,2.427354929e-04,1.053822522e-04,-6.979132706e-05,3.559092514e-05,2.910145060e-04,1.512637353e-04,4.422782413e-04,1.245851194e-04,5.706791481e-05,1.816530342e-04,3.986725409e-04,4.518503437e-05,4.438575752e-04,7.809077138e-05,2.461202277e-04,3.242109991e-04,7.068793121e-04,-6.594728138e-05,6.409320307e-04,2.422430294e-04,1.847065812e-04,4.269496106e-04,4.429926533e-04,-5.057982461e-05,3.924128286e-04,9.098756123e-05,1.065449818e-04,1.975325430e-04,1.283762206e-04,2.238260548e-04,3.522022753e-04,1.395834126e-04,1.788454692e-04,3.184288818e-04
-3.9,1.459899922e-04,1.037561018e-04,2.497460940e-04,1.801074867e-04,-1.485345497e-04,3.157293702e-05,-3.777509753e-04,-8.411988243e-05,-4.618708578e-04,-1.597270131e-04,2.220586741e-05,-1.375211457e-04,-1.843329703e-04,3.735197488e-05,-1.469809954e-04,7.957066649e-04,-2.934433655e-04,5.022632995e-04,1.499416427e-04,-2.789824344e-05,1.220433993e-04,3.865364194e-04,2.617536877e-04,6.482901071e-04,-7.220311433e-04,1.731634929e-05,-7.047147940e-04,-2.417462915e-05,5.544326842e-05,3.126863927e-05,-7.004565515e-04,2.193950266e-05,-6.785170489e-04,5.464999288e-06,-8.455065092e-05,-7.908565164e-05,3.132290695e-04,-7.250875923e-05,2.407203102e-04,6.072157388e-04,-1.140298567e-04,4.931858821e-04,3.177084158e-04,-2.335951583e-05,2.943489000e-04,3.271968674e-04,-4.399779477e-05,2.831990726e-04,2.205278869e-04,1.007590934e-04,3.212869802e-04,2.220676536e-04,3.514429974e-05,2.572119534e-04,3.206081984e-04,8.344065647e-05,4.040488549e-04,3.798307580e-04,1.101510811e-04,4.899818391e-04,-3.711189389e-04,-3.487554784e-05,-4.059944868e-04,-2.114634780e-05,-9.065488662e-05,-1.118012344e-04,-6.576202944e-04,-9.645218068e-05,-7.540724750e-04,-1.996752681e-04,-1.429775514e-04,-3.426528196e-04,3.458049875e-04,-6.267212890e-05,2.831328586e-04,1.547546488e-04,-8.115917592e-05,7.359547286e-05,3.413140508e-04,1.474531690e-04,4.887672198e-04,1.770019039e-04,4.604739332e-05,2.230492973e-04,4.551378431e-04,4.418986766e-05,4.993277107e-04,1.335890721e-04,2.315880597e-04,3.651771319e-04,7.796992884e-04,-7.310823549e-05,7.065910529e-04,2.951341183e-04,1.709305159e-04,4.660646342e-04,4.988528475e-04,-4.984344312e-05,4.490094044e-04,1.573646281e-04,9.192396744e-05,2.492885955e-04,2.026363068e-04,2.145667408e-04,4.172030476e-04,1.935237564e-04,1.690940839e-04,3.626178403e-04
-3.8,1.389841575e-04,1.159880577e-04,2.549722152e-04,1.881267329e-04,-1.547177372e-04,3.340899568e-05,-4.020725057e-04,-8.833800776e-05,-4.904105135e-04,-1.375433299e-04,1.553653359e-05,-1.220067963e-04,-1.703764009e-04,2.209282780e-05,-1.482835731e-04,7.777297555e-04,-2.342701606e-04,5.434595949e-04,1.585848087e-04,-3.402149360e-05,1.245633151e-04,4.060335600e-04,2.616744362e-04,6.677079961e-04,-6.835850585e-04,1.086489170e-06,-6.824985693e-04,2.697333870e-05,4.713790889e-05,7.411124759e-05,-6.573844260e-04,1.622336209e-05,-6.411610640e-04,2.145390263e-05,-1.027457508e-04,-8.129184818e-05,3.624166830e-04,-7.693621732e-05,2.854804657e-04,6.379034035e-04,-1.252884243e-04,5.126149792e-04,3.819771112e-04,-3.014829681e-05,3.518288144e-04,3.991673930e-04,-5.583969685e-05,3.433276962e-04,3.213398069e-04,6.752224516e-05,3.888620521e-04,2.727245276e-04,2.736278492e-05,3.000873125e-04,3.868290191e-04,6.812776498e-05,4.549567841e-04,3.921669871e-04,1.102657236e-04,5.024327107e-04,-3.463080145e-04,-3.583838464e-05,-3.821463991e-04,6.883699617e-07,-1.021800224e-04,-1.014916524e-04,-6.620920002e-04,-9.852845388e-05,-7.606204541e-04,-2.315592674e-04,-1.535963851e-04,-3.851556524e-04,3.872418021e-04,-6.448091569e-05,3.227608864e-04,2.047724374e-04,-9.273559458e-05,1.120368428e-04,3.919964161e-04,1.412843214e-04,5.332807375e-04,2.298087501e-04,3.431845879e-05,2.641272089e-04,5.107682176e-04,4.269487557e-05,5.534630932e-04,1.888652308e-04,2.159717616e-04,4.048369924e-04,8.501545868e-04,-7.995548716e-05,7.701990996e-04,3.470671575e-04,1.563796344e-04,5.034467918e-04,5.527498275e-04,-4.859198107e-05,5.041578465e-04,2.233613078e-04,7.694501133e-05,3.003063191e-04,2.765157588e-04,2.039329838e-04,4.804487426e-04,2.470487824e-04,1.580917920e-04,4.051405744e-04
-3.7,1.313339700e-04,1.275592782e-04,2.588932483e-04,1.975233487e-04,-1.588621752e-04,3.866117344e-05,-4.227108132e-04,-9.175060992e-05,-5.144614232e-04,-1.132162484e-04,8.918885580e-06,-1.042973628e-04,-1.532047867e-04,6.949529694e-06,-1.462552570e-04,7.531064125e-04,-1.722060271e-04,5.809003854e-04,1.680976716e-04,-3.996988922e-05,1.281277824e-04,4.238398560e-04,2.599319112e-04,6.837717672e-04,-6.399647440e-04,-1.503496257e-05,-6.549997066e-04,7.996483875e-05,3.892542047e-05,1.188902592e-04,-6.109231467e-04,1.055262693e-05,-6.003705198e-04,4.209180520e-05,-1.197575180e-04,-7.766571283e-05,4.130768565e-04,-8.068892166e-05,3.323879349e-04,6.670574323e-04,-1.361565373e-04,5.309008950e-04,4.477157465e-04,-3.647664822e-05,4.112390983e-04,4.714371168e-04,-6.703520248e-05,4.044019143e-04,4.228433469e-04,3.353293211e-05,4.563762790e-04,3.244306569e-04,1.991141104e-05,3.443420679e-04,4.522813822e-04,5.277372345e-05,5.050551057e-04,4.027433897e-04,1.094481530e-04,5.121915426e-04,-3.188278045e-04,-3.651241400e-05,-3.553402185e-04,2.334300742e-05,-1.131798675e-04,-8.983686005e-05,-6.630944156e-04,-1.000001676e-04,-7.630945832e-04,-2.619939232e-04,-1.636789537e-04,-4.256728769e-04,4.275557778e-04,-6.594975220e-05,3.616060256e-04,2.552545193e-04,-1.044455805e-04,1.508089388e-04,4.430363145e-04,1.327341348e-04,5.757704494e-04,2.829454666e-04,2.186178080e-05,3.048072474e-04,5.654151888e-04,4.068619935e-05,6.061013882e-04,2.437928206e-04,1.993716984e-04,4.431645191e-04,9.180127578e-04,-8.649388980e-05,8.315188680e-04,3.978954024e-04,1.411825498e-04,5.390779521e-04,6.045633648e-04,-4.692208332e-05,5.576412815e-04,2.887487306e-04,6.171262225e-05,3.504613528e-04,3.498793292e-04,1.919940377e-04,5.418733669e-04,3.001370951e-04,1.457682761e-04,4.459053712e-04
-3.6,1.229620616e-04,1.384572419e-04,2.614193035e-04,2.082671075e-04,-1.609640603e-04,4.730304730e-05,-4.396177097e-04,-9.434377700e-05,-5.339614867e-04,-8.681220947e-05,2.399545697e-06,-8.441266378e-05,-1.328100602e-04,-8.022365888e-06,-1.408324261e-04,7.224286671e-04,-1.080964411e-04,6.143322259e-04,1.784606433e-04,-4.572130472e-05,1.327393386e-04,4.398493115e-04,2.565826926e-04,6.964320041e-04,-5.914625234e-04,-3.095476001e-05,-6.224172834e-04,1.345262417e-04,3.087834649e-05,1.654045882e-04,-5.614722096e-04,4.985634268e-06,-5.564865753e-04,6.731717425e-05,-1.354582917e-04,-6.814111750e-05,4.653088161e-04,-8.385437398e-05,3.814544421e-04,6.946311439e-04,-1.465540670e-04,5.480770769e-04,5.147938401e-04,-4.232915866e-05,4.724646814e-04,5.438504690e-04,-7.759055991e-05,4.662599091e-04,5.247537974e-04,-9.826472455e-07,5.237711502e-04,3.771007148e-04,1.277022797e-05,3.898709428e-04,5.167611648e-04,3.743693465e-05,5.541980994e-04,4.115153145e-04,1.076839059e-04,5.191992204e-04,-2.888588550e-04,-3.690658941e-05,-3.257654444e-04,4.673590299e-05,-1.236442315e-04,-7.690832851e-05,-6.607109308e-04,-1.008515905e-04,-7.615625213e-04,-2.909354403e-04,-1.731668639e-04,-4.641023041e-04,4.668272921e-04,-6.716358543e-05,3.996637066e-04,3.060087180e-04,-1.162101801e-04,1.897985380e-04,4.943878986e-04,1.218102223e-04,6.161981209e-04,3.363446078e-04,8.661150599e-06,3.450057584e-04,6.189275541e-04,3.815811696e-05,6.570856711e-04,2.982624069e-04,1.818943498e-04,4.801567566e-04,9.830471463e-04,-9.272700319e-05,8.903201431e-04,4.474918370e-04,1.254729112e-04,5.729647481e-04,6.541843818e-04,-4.491788751e-05,6.092664943e-04,3.533081925e-04,4.633717790e-05,3.996453704e-04,4.226122103e-04,1.788335912e-04,6.014458015e-04,3.527615719e-04,1.320752791e-04,4.848368510e-04
-3.5,1.137839362e-04,1.486804058e-04,2.624643420e-04,2.203006688e-04,-1.610548655e-04,5.924580322e-05,-4.528069983e-04,-9.611447079e-05,-5.489214691e-04,-5.842001856e-05,-3.979158018e-06,-6.239917658e-05,-1.092274416e-04,-2.277116767e-05,-1.319986092e-04,6.864150703e-04,-4.285049100e-05,6.435645793e-04,1.896470531e-04,-5.125789382e-05,1.383891593e-04,4.539943433e-04,2.516908165e-04,7.056851598e-04,-5.384243638e-04,-4.658352809e-05,-5.850078919e-04,1.903569523e-04,2.306667042e-05,2.134236227e-04,-5.094645563e-04,-4.195333102e-07,-5.098840896e-04,9.698306400e-05,-1.497394983e-04,-5.275643426e-05,5.191699525e-04,-8.652636911e-05,4.326435834e-04,7.205790573e-04,-1.564010817e-04,5.641779756e-04,5.830424726e-04,-4.769521523e-05,5.353472573e-04,6.162397288e-04,-8.752755587e-05,5.287121729e-04,6.267763861e-04,-3.578764029e-05,5.909887458e-04,4.306324440e-04,5.903173880e-06,4.365356178e-04,5.800643428e-04,2.217457471e-05,6.022389175e-04,4.184642867e-04,1.049714278e-04,5.234357145e-04,-2.566058547e-04,-3.703316573e-05,-2.936390205e-04,7.077026473e-05,-1.335696113e-04,-6.279934658e-05,-6.550664872e-04,-1.010744282e-04,-7.561409154e-04,-3.183745536e-04,-1.820073556e-04,-5.003819092e-04,5.051509465e-04,-6.821500635e-05,4.369359401e-04,3.568315150e-04,-1.279472181e-04,2.288842969e-04,5.459791374e-04,1.085531787e-04,6.545323160e-04,3.899276408e-04,-5.293679787e-06,3.846339610e-04,6.711509459e-04,3.511380546e-05,7.062647514e-04,3.521783770e-04,1.636514715e-04,5.158298485e-04,1.045039362e-03,-9.865747296e-05,9.463818887e-04,4.957449443e-04,1.093901393e-04,6.051350836e-04,7.015188963e-04,-4.264982645e-05,6.588690698e-04,4.168323794e-04,3.093386741e-05,4.477662468e-04,4.946157959e-04,1.645496705e-04,6.591654664e-04,4.048836526e-04,1.169921640e-04,5.218758166e-04
