Time,S1D1HbO,S1D1HbR,S1D1HbT,S2D2HbO,S2D2HbR,S2D2HbT,S3D3HbO,S3D3HbR,S3D3HbT,S4D4HbO,S4D4HbR,S4D4HbT,S5D5HbO,S5D5HbR,S5D5HbT,S6D6HbO,S6D6HbR,S6D6HbT,S7D7HbO,S7D7HbR,S7D7HbT,S8D8HbO,S8D8HbR,S8D8HbT,S9D9HbO,S9D9HbR,S9D9HbT,S10D10HbO,S10D10HbR,S10D10HbT,S11D11HbO,S11D11HbR,S11D11HbT,S12D12HbO,S12D12HbR,S12D12HbT,S13D13HbO,S13D13HbR,S13D13HbT,S14D14HbO,S14D14HbR,S14D14HbT,S15D15HbO,S15D15HbR,S15D15HbT,S16D16HbO,S16D16HbR,S16D16HbT,S17D17HbO,S17D17HbR,S17D17HbT,S18D18HbO,S18D18HbR,S18D18HbT,S19D19HbO,S19D19HbR,S19D19HbT,S20D20HbO,S20D20HbR,S20D20HbT,S21D21HbO,S21D21HbR,S21D21HbT,S22D22HbO,S22D22HbR,S22D22HbT,S23D23HbO,S23D23HbR,S23D23HbT,S24D24HbO,S24D24HbR,S24D24HbT,S25D25HbO,S25D25HbR,S25D25HbT,S26D26HbO,S26D26HbR,S26D26HbT,S27D27HbO,S27D27HbR,S27D27HbT,S28D28HbO,S28D28HbR,S28D28HbT,S29D29HbO,S29D29HbR,S29D29HbT,S30D30HbO,S30D30HbR,S30D30HbT,S31D31HbO,S31D31HbR,S31D31HbT,S32D32HbO,S32D32HbR,S32D32HbT,S33D33HbO,S33D33HbR,S33D33HbT,S34D34HbO,S34D34HbR,S34D34HbT,S35D35HbO,S35D35HbR,S35D35HbT,S36D36HbO,S36D36HbR,S36D36HbT,
-10,-5.051386434e-04,-4.162484953e-05,-5.467634929e-04,-8.934610835e-04,2.691080235e-04,-6.243530600e-04,-1.033294704e-04,-3.124264488e-04,-4.157559192e-04,-3.383222009e-05,-1.373433043e-05,-4.756655052e-05,-2.728853718e-04,-3.287299413e-04,-6.016153132e-04,-2.688622741e-04,1.694272323e-04,-9.943504178e-05,2.722243253e-04,-3.837416523e-04,-1.115173270e-04,1.908549672e-03,-2.596851705e-03,-6.883020331e-04,-2.698289919e-04,-2.996162152e-04,-5.694452070e-04,-1.015169811e-04,-1.965074026e-04,-2.980243837e-04,3.442614688e-04,-2.686664096e-04,7.559505920e-05,6.582055572e-04,-2.116513687e-04,4.465541885e-04,3.153367967e-03,-3.752207237e-03,-5.988392705e-04,-5.033212572e-04,5.955641727e-04,9.224291554e-05,-3.118238707e-04,4.535959733e-04,1.417721026e-04,-9.363337993e-04,8.697050939e-04,-6.662870537e-05,-2.616969624e-04,-6.968619036e-04,-9.585588660e-04,9.962167409e-05,4.761821440e-05,1.472398885e-04,9.806738904e-05,-2.538986806e-04,-1.558312915e-04,2.013923778e-05,-2.455951420e-04,-2.254559042e-04,9.045107706e-05,5.185171806e-05,1.423027951e-04,4.346315306e-04,-8.674605679e-04,-4.328290373e-04,3.108769576e-04,-3.416955088e-05,2.767074067e-04,3.956247510e-04,-1.864226928e-05,3.769824817e-04,4.121752678e-05,-3.596044691e-04,-3.183869423e-04,1.062458503e-03,-3.245195161e-04,7.379389864e-04,-4.637792094e-03,2.801898480e-03,-1.835893614e-03,-2.749967432e-04,-7.179498478e-04,-9.929465910e-04,-1.305024711e-03,1.421635843e-03,1.166111323e-04,-6.250051813e-04,6.725921094e-05,-5.577459704e-04,2.456442309e-05,-2.303388357e-04,-2.057744126e-04,-1.264775328e-03,-1.242534027e-05,-1.277200668e-03,-2.067145946e-04,1.525500205e-05,-1.914595926e-04,-6.926404506e-04,1.621556902e-03,9.289164512e-04,-3.624708895e-04,-4.113753938e-04,-7.738462833e-04,8.318443138e-04,-3.174544191e-04,5.143898947e-04
-9.9,-5.191671543e-04,-3.577682338e-05,-5.549439777e-04,-8.990326845e-04,2.677264953e-04,-6.313061893e-04,-1.134336763e-04,-3.047938267e-04,-4.182275029e-04,-4.195139077e-05,-1.292807544e-05,-5.487946620e-05,-2.744728562e-04,-3.206504551e-04,-5.951233113e-04,-2.737824244e-04,1.762826007e-04,-9.749982365e-05,2.416907386e-04,-3.715855017e-04,-1.298947631e-04,1.955040615e-03,-2.710749970e-03,-7.557093556e-04,-2.784409456e-04,-2.898714959e-04,-5.683124415e-04,-1.228906789e-04,-1.865055569e-04,-3.093962359e-04,3.191306275e-04,-2.599383150e-04,5.919231250e-05,6.388440368e-04,-1.987482489e-04,4.400957880e-04,3.169351515e-03,-3.877994021e-03,-7.086425063e-04,-5.412739597e-04,5.930992093e-04,5.182524963e-05,-5.142462177e-04,6.886053240e-04,1.743591064e-04,-9.532671675e-04,8.523637468e-04,-1.009034207e-04,-2.845465755e-04,-6.665265289e-04,-9.510731044e-04,7.351323741e-05,4.907900944e-05,1.225922469e-04,8.662090257e-05,-2.323422580e-04,-1.457213554e-04,-5.521074375e-07,-2.491894810e-04,-2.497415884e-04,6.529275388e-05,5.370471837e-05,1.189974723e-04,3.629138260e-04,-8.088458639e-04,-4.459320378e-04,2.920859085e-04,-3.571527966e-05,2.563706289e-04,3.781728690e-04,-1.749072899e-05,3.606821400e-04,6.115873034e-05,-3.888722517e-04,-3.277135213e-04,1.037623405e-03,-3.210983359e-04,7.165250687e-04,-4.676101707e-03,2.871265866e-03,-1.804835841e-03,-2.211003583e-04,-7.272956188e-04,-9.483959770e-04,-1.359648631e-03,1.499702350e-03,1.400537192e-04,-6.259327865e-04,5.608061221e-05,-5.698521743e-04,-5.446492178e-05,-1.758816845e-04,-2.303466063e-04,-1.293786046e-03,-4.231828846e-06,-1.298017874e-03,-1.774339833e-04,-3.720017858e-05,-2.146341619e-04,-5.821033733e-04,1.474456283e-03,8.923529098e-04,-3.589272743e-04,-4.271216443e-04,-7.860489186e-04,9.804735372e-04,-4.296569742e-04,5.508165629e-04
-9.8,-5.331063140e-04,-2.958576255e-05,-5.626920766e-04,-9.042484717e-04,2.661934436e-04,-6.380550281e-04,-1.237999958e-04,-2.970816917e-04,-4.208816874e-04,-5.043002962e-05,-1.220057375e-05,-6.263060338e-05,-2.763803733e-04,-3.125930699e-04,-5.889734433e-04,-2.768363728e-04,1.809394216e-04,-9.589695118e-05,2.114176509e-04,-3.591704074e-04,-1.477527565e-04,2.011502398e-03,-2.830832983e-03,-8.193305846e-04,-2.870152331e-04,-2.800468513e-04,-5.670620844e-04,-1.440077859e-04,-1.764578627e-04,-3.204656486e-04,2.936419921e-04,-2.514146028e-04,4.222738931e-05,6.167819734e-04,-1.837983906e-04,4.329835828e-04,3.175545142e-03,-3.972911327e-03,-7.973661854e-04,-5.772048049e-04,5.873251865e-04,1.012038157e-05,-7.062289051e-04,9.148480112e-04,2.086191061e-04,-9.613776212e-04,8.285808018e-04,-1.327968195e-04,-3.092945783e-04,-6.320026899e-04,-9.412972682e-04,4.809519147e-05,5.004064015e-05,9.813583162e-05,7.756758929e-05,-2.106238981e-04,-1.330563089e-04,-2.020979148e-05,-2.523821781e-04,-2.725919696e-04,4.030718687e-05,5.542055562e-05,9.572774248e-05,2.855851481e-04,-7.397947201e-04,-4.542095720e-04,2.725723796e-04,-3.714407728e-05,2.354283024e-04,3.606857761e-04,-1.725054075e-05,3.434352353e-04,8.357676544e-05,-4.165066855e-04,-3.329299200e-04,1.011303732e-03,-3.162939845e-04,6.950097478e-04,-4.699435353e-03,2.940217483e-03,-1.759217870e-03,-1.647090335e-04,-7.360664442e-04,-9.007754777e-04,-1.398573438e-03,1.558461483e-03,1.598880445e-04,-6.218294145e-04,4.444719870e-05,-5.773822158e-04,-1.358877686e-04,-1.169274546e-04,-2.528152232e-04,-1.314947507e-03,1.371177372e-06,-1.313576329e-03,-1.389931210e-04,-8.859158565e-05,-2.275847066e-04,-4.776115949e-04,1.327528258e-03,8.499166628e-04,-3.458402889e-04,-4.468414834e-04,-7.926817723e-04,1.114706011e-03,-5.432138333e-04,5.714921780e-04
-9.7,-5.469171868e-04,-2.308694956e-05,-5.700041363e-04,-9.089889059e-04,2.644865242e-04,-6.445023817e-04,-1.343755037e-04,-2.893157761e-04,-4.236912797e-04,-5.921277994e-05,-1.154367678e-05,-7.075645672e-05,-2.785927883e-04,-3.045786363e-04,-5.831714246e-04,-2.780626092e-04,1.834002552e-04,-9.466235395e-05,1.815288991e-04,-3.465363313e-04,-1.650074322e-04,2.076941878e-03,-2.955198342e-03,-8.782564634e-04,-2.955262331e-04,-2.701687759e-04,-5.656950091e-04,-1.647264666e-04,-1.663976298e-04,-3.311240964e-04,2.679362869e-04,-2.431049856e-04,2.483130137e-05,5.924630705e-04,-1.670588980e-04,4.254041725e-04,3.168925547e-03,-4.034908692e-03,-8.659831453e-04,-6.104797837e-04,5.782845558e-04,-3.219522788e-05,-8.854882393e-04,1.129991852e-03,2.445036127e-04,-9.607021045e-04,7.987162600e-04,-1.619858445e-04,-3.355763135e-04,-5.935583789e-04,-9.291346924e-04,2.352699244e-05,5.064185630e-05,7.416884874e-05,7.114546312e-05,-1.890196560e-04,-1.178741929e-04,-3.878404140e-05,-2.550383406e-04,-2.938223819e-04,1.566589192e-05,5.697064920e-05,7.263654112e-05,2.036217238e-04,-6.612791584e-04,-4.576574345e-04,2.524277116e-04,-3.844268049e-05,2.139850311e-04,3.430762937e-04,-1.791057731e-05,3.251657164e-04,1.080501228e-04,-4.420127609e-04,-3.339626381e-04,9.836552371e-04,-3.100996032e-04,6.735556339e-04,-4.703833260e-03,3.005255612e-03,-1.698577649e-03,-1.065993415e-04,-7.437910888e-04,-8.503904302e-04,-1.421537498e-03,1.597366925e-03,1.758294273e-04,-6.132328052e-04,3.266562333e-05,-5.805671819e-04,-2.190859738e-04,-5.387864797e-05,-2.729646218e-04,-1.328053908e-03,4.589102615e-06,-1.323464805e-03,-9.138728200e-05,-1.385234120e-04,-2.299106940e-04,-3.795471609e-04,1.182222104e-03,8.026749427e-04,-3.224182690e-04,-4.711109839e-04,-7.935292529e-04,1.233903039e-03,-6.568912868e-04,5.770117527e-04
-9.6,-5.605622475e-04,-1.631774762e-05,-5.768799952e-04,-9.131404738e-04,2.625830094e-04,-6.505574644e-04,-1.451067248e-04,-2.815227870e-04,-4.266295118e-04,-6.824453321e-05,-1.095060932e-05,-7.919514254e-05,-2.810989203e-04,-2.966282503e-04,-5.777271706e-04,-2.775437606e-04,1.837092917e-04,-9.383446893e-05,1.521495372e-04,-3.337327506e-04,-1.815832134e-04,2.150000187e-03,-3.081664932e-03,-9.316647454e-04,-3.039527553e-04,-2.602641433e-04,-5.642168986e-04,-1.849158455e-04,-1.563580450e-04,-3.412738905e-04,2.421499451e-04,-2.350166681e-04,7.133276970e-06,5.663403463e-04,-1.487817795e-04,4.175585668e-04,3.146797769e-03,-4.062602394e-03,-9.158046254e-04,-6.404877753e-04,5.660666870e-04,-7.442108829e-05,-1.049863845e-03,1.331767801e-03,2.819039555e-04,-9.513262331e-04,7.631765478e-04,-1.881496853e-04,-3.629862090e-04,-5.515108879e-04,-9.144970969e-04,-2.665487339e-08,5.101339317e-05,5.098673830e-05,6.756514381e-05,-1.678090551e-04,-1.002439112e-04,-5.622418464e-05,-2.570350035e-04,-3.132591882e-04,-8.463273328e-06,5.832335640e-05,4.986008307e-05,1.181120989e-04,-5.744467463e-04,-4.563346474e-04,2.317417876e-04,-3.959593476e-05,1.921458528e-04,3.252501610e-04,-1.944128047e-05,3.058088805e-04,1.341276967e-04,-4.649301725e-04,-3.308024758e-04,9.548458008e-04,-3.025151128e-04,6.523306880e-04,-4.685592023e-03,3.062944235e-03,-1.622647788e-03,-4.770581386e-05,-7.499050202e-04,-7.976108341e-04,-1.428511307e-03,1.616253025e-03,1.877417179e-04,-6.007321386e-04,2.104800294e-05,-5.796841356e-04,-3.034253157e-04,1.281489446e-05,-2.906104212e-04,-1.332977155e-03,5.656123138e-06,-1.327321032e-03,-3.485040643e-05,-1.864837583e-04,-2.213341647e-04,-2.881857935e-04,1.039979247e-03,7.517934534e-04,-2.881372759e-04,-5.002759523e-04,-7.884132282e-04,1.337772463e-03,-7.695518218e-04,5.682206417e-04
-9.5,-5.740023488e-04,-9.317941933e-06,-5.833202907e-04,-9.165945516e-04,2.604599020e-04,-6.561346496e-04,-1.559388542e-04,-2.737298880e-04,-4.296687421e-04,-7.746892092e-05,-1.041588046e-05,-8.788480138e-05,-2.838896053e-04,-2.887631663e-04,-5.726527716e-04,-2.754046461e-04,1.819587043e-04,-9.344594171e-05,1.234076081e-04,-3.208174826e-04,-1.974098744e-04,2.229010685e-03,-3.207836747e-03,-9.788260621e-04,-3.122759216e-04,-2.503600432e-04,-5.626359648e-04,-2.044545523e-04,-1.463728925e-04,-3.508274448e-04,2.164165118e-04,-2.271547407e-04,-1.073822886e-05,5.388607928e-04,-1.291990449e-04,4.096617479e-04,3.106818298e-03,-4.055288014e-03,-9.484697165e-04,-6.666611065e-04,5.508107792e-04,-1.158503273e-04,-1.197345764e-03,1.517998070e-03,3.206523061e-04,-9.333750857e-04,7.223992418e-04,-2.109758438e-04,-3.910764501e-04,-5.062239332e-04,-8.973003834e-04,-2.239374334e-05,5.127385130e-05,2.888010796e-05,6.701518270e-05,-1.472716312e-04,-8.025644853e-05,-7.247527073e-05,-2.582647281e-04,-3.307399988e-04,-3.191599510e-05,5.944490565e-05,2.752891054e-05,3.024774704e-05,-4.806126292e-04,-4.503648822e-04,2.106036766e-04,-4.058708784e-05,1.700165888e-04,3.071124386e-04,-2.179556296e-05,2.853168757e-04,1.613365444e-04,-4.848407781e-04,-3.235042338e-04,9.250563069e-04,-2.935473082e-04,6.315089987e-04,-4.641468948e-03,3.110104513e-03,-1.531364434e-03,1.090761681e-05,-7.537637920e-04,-7.428561752e-04,-1.419686636e-03,1.615321507e-03,1.956348703e-04,-5.849477614e-04,9.902852990e-06,-5.750449084e-04,-3.882429196e-04,8.264718298e-05,-3.055957367e-04,-1.329666401e-03,4.827439710e-06,-1.324838961e-03,3.014849193e-05,-2.318436169e-04,-2.016951250e-04,-2.037153623e-04,9.022167643e-04,6.985014020e-04,-2.427658051e-04,-5.344198025e-04,-7.771856077e-04,1.426323686e-03,-8.801380935e-04,5.461855924e-04
-9.4,-5.871948701e-04,-2.129700418e-06,-5.893245705e-04,-9.192472360e-04,2.580942208e-04,-6.611530152e-04,-1.668158781e-04,-2.659640544e-04,-4.327799325e-04,-8.682725194e-05,-9.934818487e-06,-9.676207042e-05,-2.869563988e-04,-2.810046008e-04,-5.679609996e-04,-2.718086012e-04,1.782911693e-04,-9.351743194e-05,9.543399203e-05,-3.078547407e-04,-2.124207486e-04,2.312050103e-03,-3.331154915e-03,-1.019104812e-03,-3.204780700e-04,-2.404835040e-04,-5.609615740e-04,-2.232308220e-04,-1.364767948e-04,-3.597076168e-04,1.908663378e-04,-2.195225791e-04,-2.865624137e-05,5.104516904e-04,-1.085117502e-04,4.019399401e-04,3.046997349e-03,-4.012928306e-03,-9.659309570e-04,-6.884946687e-04,5.327050610e-04,-1.557896076e-04,-1.326102382e-03,1.686633102e-03,3.605307199e-04,-9.070167847e-04,6.768448775e-04,-2.301719073e-04,-4.193597813e-04,-4.581046320e-04,-8.774644132e-04,-4.339605230e-05,5.152687584e-05,8.130823533e-06,6.966778200e-05,-1.276863504e-04,-5.801856844e-05,-8.747792358e-05,-2.586373747e-04,-3.461152983e-04,-5.453315429e-05,6.030075807e-05,5.767603782e-06,-5.869362773e-05,-3.812431612e-04,-4.399367889e-04,1.891012185e-04,-4.139810323e-05,1.477031153e-04,2.885728223e-04,-2.491031200e-05,2.636625103e-04,1.891874339e-04,-5.013737664e-04,-3.121863325e-04,8.944782353e-04,-2.832104584e-04,6.112677770e-04,-4.568848390e-03,3.143956003e-03,-1.424892387e-03,6.808298101e-05,-7.546628301e-04,-6.865798491e-04,-1.395464582e-03,1.595120141e-03,1.996555585e-04,-5.665151099e-04,-4.731073175e-07,-5.669882172e-04,-4.728360368e-04,1.550467340e-04,-3.177893028e-04,-1.318153972e-03,2.374165806e-06,-1.315779806e-03,1.029133616e-04,-2.738609113e-04,-1.709475497e-04,-1.262569019e-04,7.703091062e-04,6.440522043e-04,-1.863847821e-04,-5.733427191e-04,-7.597275013e-04,1.499838289e-03,-9.876665726e-04,5.121717165e-04
-9.3,-6.000933056e-04,5.202813909e-06,-5.948904917e-04,-9.210004248e-04,2.554633384e-04,-6.655370863e-04,-1.776817217e-04,-2.582513873e-04,-4.359331090e-04,-9.625834813e-05,-9.502947256e-06,-1.057612954e-04,-2.902911247e-04,-2.733733815e-04,-5.636645062e-04,-2.669515403e-04,1.728974852e-04,-9.405405509e-05,6.836028016e-05,-2.949127801e-04,-2.265524999e-04,2.396990693e-03,-3.448949138e-03,-1.051958445e-03,-3.285426076e-04,-2.306610575e-04,-5.592036651e-04,-2.411442180e-04,-1.267048801e-04,-3.678490980e-04,1.656246194e-04,-2.121220440e-04,-4.649742467e-05,4.815093602e-04,-8.688538442e-05,3.946239758e-04,2.965701669e-03,-3.936124841e-03,-9.704231721e-04,-7.055622906e-04,5.119819278e-04,-1.935803628e-04,-1.434510824e-03,1.835793094e-03,4.012822698e-04,-8.724756824e-04,6.269937197e-04,-2.454819626e-04,-4.473205190e-04,-4.075982413e-04,-8.549187604e-04,-6.285251862e-05,5.185856782e-05,-1.099395080e-05,7.568105784e-05,-1.093320810e-04,-3.365102317e-05,-1.011712473e-04,-2.580800812e-04,-3.592513285e-04,-7.616382234e-05,6.085722339e-05,-1.530659894e-05,-1.473682959e-04,-2.779341080e-04,-4.253024039e-04,1.673199707e-04,-4.201004220e-05,1.253099285e-04,2.695498975e-04,-2.870827612e-05,2.408416214e-04,2.171787535e-04,-5.142087628e-04,-2.970300094e-04,8.633075332e-04,-2.715271566e-04,5.917803766e-04,-4.465842829e-03,3.162189795e-03,-1.303653035e-03,1.226086686e-04,-7.518655711e-04,-6.292569024e-04,-1.356443576e-03,1.556516938e-03,2.000733615e-04,-5.460709159e-04,-9.802241289e-06,-5.558731572e-04,-5.564516684e-04,2.293664935e-04,-3.270851749e-04,-1.298562940e-03,-1.421589678e-06,-1.299984529e-03,1.825318677e-04,-3.116927104e-04,-1.291608427e-04,-5.588134187e-05,6.455631518e-04,5.896818099e-04,-1.194008985e-04,-6.165525485e-04,-7.359534471e-04,1.558868486e-03,-1.091242339e-03,4.676261470e-04
-9.2,-6.126478222e-04,1.263406461e-05,-6.000137576e-04,-9.217637882e-04,2.525453729e-04,-6.692184153e-04,-1.884819611e-04,-2.506164801e-04,-4.390984412e-04,-1.056992586e-04,-9.115477855e-06,-1.148147365e-04,-2.938859157e-04,-2.658894749e-04,-5.597753906e-04,-2.610538730e-04,1.660097749e-04,-9.504409818e-05,4.231537366e-05,-2.820614459e-04,-2.397460722e-04,2.481562979e-03,-3.558504792e-03,-1.076941813e-03,-3.364542321e-04,-2.209182226e-04,-5.573724547e-04,-2.581078820e-04,-1.170921846e-04,-3.752000665e-04,1.408087566e-04,-2.049534469e-04,-6.414469033e-05,4.523898795e-04,-6.445170440e-05,3.879381751e-04,2.861665070e-03,-3.826074290e-03,-9.644092207e-04,-7.175310996e-04,4.889116257e-04,-2.286194739e-04,-1.521189964e-03,1.963807266e-03,4.426173011e-04,-8.300498296e-04,5.733457370e-04,-2.567040926e-04,-4.744313375e-04,-3.551807733e-04,-8.296121108e-04,-8.058442685e-05,5.233540651e-05,-2.824902034e-05,8.519698840e-05,-9.248718355e-05,-7.290195148e-06,-1.134980942e-04,-2.565353181e-04,-3.700334123e-04,-9.666837984e-05,6.108305093e-05,-3.558532892e-05,-2.343897713e-04,-1.723823061e-04,-4.067720773e-04,1.453422495e-04,-4.240351725e-05,1.029387322e-04,2.499744910e-04,-3.309987907e-05,2.168746120e-04,2.447980662e-04,-5.230754961e-04,-2.782774299e-04,8.317364346e-04,-2.585289005e-04,5.732075342e-04,-4.331325983e-03,3.162987461e-03,-1.168338522e-03,1.732641912e-04,-7.446391445e-04,-5.713749534e-04,-1.303406644e-03,1.500672153e-03,1.972655093e-04,-5.242375802e-04,-1.783284936e-05,-5.420704295e-04,-6.382784560e-04,3.048758145e-04,-3.334026415e-04,-1.271112154e-03,-6.272690767e-06,-1.277384844e-03,2.678913606e-04,-3.444186040e-04,-7.652724337e-05,7.381764988e-06,5.291862022e-04,5.365679672e-04,-4.255266312e-05,-6.632663015e-04,-7.058189646e-04,1.604253877e-03,-1.190089618e-03,4.141642591e-04
-9.1,-6.248059000e-04,2.011782839e-05,-6.046880716e-04,-9.214568372e-04,2.493197587e-04,-6.721370786e-04,-1.991652935e-04,-2.430819592e-04,-4.422472527e-04,-1.150865038e-04,-8.767154832e-06,-1.238536586e-04,-2.977330988e-04,-2.585714955e-04,-5.563045943e-04,-2.543502639e-04,1.578907701e-04,-9.645949375e-05,1.742182889e-05,-2.693697526e-04,-2.519479237e-04,2.563425521e-03,-3.657146090e-03,-1.093720569e-03,-3.441987750e-04,-2.112790463e-04,-5.554778212e-04,-2.740497826e-04,-1.076732437e-04,-3.817230263e-04,1.165263808e-04,-1.980154399e-04,-8.148905906e-05,4.234009459e-04,-4.131472968e-05,3.820862163e-04,2.734004015e-03,-3.684508370e-03,-9.505043544e-04,-7.241738970e-04,4.637972891e-04,-2.603766079e-04,-1.585032959e-03,2.069245398e-03,4.842124392e-04,-7.801284914e-04,5.164234367e-04,-2.637050547e-04,-5.001696440e-04,-3.013513286e-04,-8.015209726e-04,-9.642225499e-05,5.300373878e-05,-4.341851621e-05,9.833609906e-05,-7.742680915e-05,2.090928991e-05,-1.244111922e-04,-2.539574910e-04,-3.783686832e-04,-1.159205665e-04,6.095081075e-05,-5.496975575e-05,-3.183566384e-04,-6.634885413e-05,-3.847054926e-04,1.232468812e-04,-4.255914447e-05,8.068773672e-05,2.297923981e-04,-3.798453531e-05,1.918078628e-04,2.715217257e-04,-5.277491889e-04,-2.562274632e-04,7.999464696e-04,-2.442562573e-04,5.556902123e-04,-4.164916817e-03,3.145012217e-03,-1.019904600e-03,2.188673223e-04,-7.322926158e-04,-5.134252934e-04,-1.237304792e-03,1.429006738e-03,1.917019466e-04,-5.016059742e-04,-2.434483965e-05,-5.259508139e-04,-7.174447179e-04,3.807593466e-04,-3.366853713e-04,-1.236117637e-03,-1.189254076e-05,-1.248010178e-03,3.577051481e-04,-3.710758897e-04,-1.337074156e-05,6.354288775e-05,4.222524208e-04,4.857953086e-04,4.309206016e-05,-7.124233968e-04,-6.693313367e-04,1.637137055e-03,-1.283585334e-03,3.535517209e-04
-9,-6.365122679e-04,2.760775303e-05,-6.089045148e-04,-9.200102207e-04,2.457680116e-04,-6.742422091e-04,-2.096840651e-04,-2.356682955e-04,-4.453523607e-04,-1.243573646e-04,-8.452529683e-06,-1.328098943e-04,-3.018244399e-04,-2.514363117e-04,-5.532607516e-04,-2.470768328e-04,1.488193064e-04,-9.825752647e-05,-6.207089631e-06,-2.569035620e-04,-2.631106516e-04,2.640227092e-03,-3.742316809e-03,-1.102089717e-03,-3.517622577e-04,-2.017657974e-04,-5.535280550e-04,-2.889119819e-04,-9.848207505e-05,-3.873940569e-04,9.287487368e-05,-1.913049699e-04,-9.843009622e-05,3.947949956e-04,-1.755846145e-05,3.772365342e-04,2.582243206e-03,-3.513625597e-03,-9.313823910e-04,-7.253766272e-04,4.369708652e-04,-2.884057620e-04,-1.625233676e-03,2.150941098e-03,5.257074225e-04,-7.232065505e-04,4.567779897e-04,-2.664285609e-04,-5.240297247e-04,-2.466246702e-04,-7.706543948e-04,-1.102129163e-04,5.389106432e-05,-5.632185200e-05,1.151908909e-04,-6.441761261e-05,5.077327825e-05,-1.338780515e-04,-2.503097467e-04,-3.841877983e-04,-1.338080956e-04,6.043804043e-05,-7.337005518e-05,-3.978827996e-04,3.838201922e-05,-3.595007803e-04,1.011096635e-04,-4.245791847e-05,5.865174506e-05,2.089665083e-04,-4.325139220e-05,1.657151161e-04,2.968151998e-04,-5.280435016e-04,-2.312283018e-04,7.681052460e-04,-2.287588031e-04,5.393464429e-04,-3.966943800e-03,3.107396930e-03,-8.595468704e-04,2.583204977e-04,-7.142125646e-04,-4.558920668e-04,-1.159232107e-03,1.343162201e-03,1.839300942e-04,-4.787201785e-04,-2.915370968e-05,-5.078738882e-04,-7.930270733e-04,4.561267757e-04,-3.369002976e-04,-1.193990504e-03,-1.799834795e-05,-1.211988852e-03,4.505510226e-04,-3.907038143e-04,5.984720828e-05,1.126581235e-04,3.256734969e-04,4.383316204e-04,1.361523415e-04,-7.627147513e-04,-6.265624098e-04,1.658957244e-03,-1.371281184e-03,2.876760597e-04
-8.9,-6.477081269e-04,3.505768771e-05,-6.126504392e-04,-9.173659634e-04,2.418745383e-04,-6.754914251e-04,-2.199938554e-04,-2.283938351e-04,-4.483876906e-04,-1.334509151e-04,-8.166465784e-06,-1.416173809e-04,-3.061498369e-04,-2.444988047e-04,-5.506486417e-04,-2.394566578e-04,1.390728571e-04,-1.003838007e-04,-2.846958489e-05,-2.447233683e-04,-2.731929532e-04,2.709651821e-03,-3.811640353e-03,-1.101988532e-03,-3.591294964e-04,-1.923988021e-04,-5.515282984e-04,-3.026482295e-04,-8.955238077e-05,-3.922006102e-04,6.994195997e-05,-1.848172933e-04,-1.148753333e-04,3.667648625e-04,6.744704063e-06,3.735095665e-04,2.406358338e-03,-3.316024713e-03,-9.096663747e-04,-7.211374809e-04,4.087873818e-04,-3.123500991e-04,-1.641303257e-03,2.208009036e-03,5.667057793e-04,-6.598926261e-04,3.949978207e-04,-2.648948055e-04,-5.455303531e-04,-1.915238589e-04,-7.370542119e-04,-1.218258939e-04,5.500833562e-05,-6.681755831e-05,1.358191617e-04,-5.370983718e-05,8.210932448e-05,-1.418831871e-04,-2.455630731e-04,-3.874462602e-04,-1.502324394e-04,5.952810903e-05,-9.070433037e-05,-4.716235450e-04,1.400390612e-04,-3.315844838e-04,7.900382320e-05,-4.208150506e-05,3.692231814e-05,1.874777317e-04,-4.877973712e-05,1.386979946e-04,3.201367020e-04,-5.238042305e-04,-2.036675286e-04,7.363664364e-04,-2.120948342e-04,5.242716022e-04,-3.738412003e-03,3.049744160e-03,-6.886678427e-04,2.906537170e-04,-6.898939087e-04,-3.992401917e-04,-1.070393647e-03,1.244950664e-03,1.745570171e-04,-4.560661323e-04,-3.211413729e-05,-4.881802696e-04,-8.640726234e-04,5.300349061e-04,-3.340377173e-04,-1.145230859e-03,-2.431232665e-05,-1.169543185e-03,5.449179273e-04,-4.023914762e-04,1.425264511e-04,1.548413888e-04,2.401755321e-04,3.950169208e-04,2.349675715e-04,-8.126282460e-04,-5.776606745e-04,1.671409578e-03,-1.452904395e-03,2.185051836e-04
-8.8,-6.583305200e-04,4.242188793e-05,-6.159086321e-04,-9.134771906e-04,2.376273426e-04,-6.758498479e-04,-2.300528861e-04,-2.212748545e-04,-4.513277406e-04,-1.423089044e-04,-7.904544167e-06,-1.502134486e-04,-3.106960770e-04,-2.377717336e-04,-5.484678106e-04,-2.316862622e-04,1.289090500e-04,-1.027772122e-04,-4.927772850e-05,-2.328821318e-04,-2.821598603e-04,2.769450735e-03,-3.862956265e-03,-1.093505530e-03,-3.662830937e-04,-1.831963392e-04,-5.494794329e-04,-3.152212117e-04,-8.091775003e-05,-3.961389617e-04,4.780612214e-05,-1.785460007e-04,-1.307398786e-04,3.394435881e-04,3.152480272e-05,3.709683908e-04,2.206833878e-03,-3.094641783e-03,-8.878079041e-04,-7.115576354e-04,3.796164170e-04,-3.319412184e-04,-1.633078505e-03,2.239857595e-03,6.067790898e-04,-5.909090899e-04,3.317166812e-04,-2.591924087e-04,-5.642184685e-04,-1.365743387e-04,-7.007928073e-04,-1.311583095e-04,5.635252102e-05,-7.480578847e-05,1.602361238e-04,-4.552665528e-05,1.147094686e-04,-1.484279983e-04,-2.396983086e-04,-3.881263069e-04,-1.651087754e-04,5.821063494e-05,-1.068981404e-04,-5.382938518e-04,2.368903784e-04,-3.014034735e-04,5.699965436e-05,-4.141247860e-05,1.558717576e-05,1.653238897e-04,-5.443921650e-05,1.108846732e-04,3.409445015e-04,-5.149062051e-04,-1.739617036e-04,7.048700112e-04,-1.943308981e-04,5.105391131e-04,-3.480968003e-03,2.972129841e-03,-5.088381621e-04,3.150605728e-04,-6.589648101e-04,-3.439042374e-04,-9.720748223e-04,1.136301816e-03,1.642269935e-04,-4.340641166e-04,-3.312452446e-05,-4.671886410e-04,-9.296341095e-04,6.015202542e-04,-3.281138553e-04,-1.090416884e-03,-3.056261937e-05,-1.120979503e-03,6.392545861e-04,-4.053238977e-04,2.339306884e-04,1.902791781e-04,1.662816781e-04,3.565608561e-04,3.376444005e-04,-8.605041929e-04,-5.228597924e-04,1.676371818e-03,-1.528337125e-03,1.480346930e-04
-8.7,-6.683128361e-04,4.965532149e-05,-6.186575147e-04,-9.083082075e-04,2.330186049e-04,-6.752896026e-04,-2.398221285e-04,-2.143254463e-04,-4.541475747e-04,-1.508768345e-04,-7.663199770e-06,-1.585400342e-04,-3.154462835e-04,-2.312655960e-04,-5.467118796e-04,-2.239253576e-04,1.185482103e-04,-1.053771474e-04,-6.856088523e-05,-2.214232812e-04,-2.899841664e-04,2.817470276e-03,-3.894342950e-03,-1.076872674e-03,-3.732034704e-04,-1.741745338e-04,-5.473780042e-04,-3.266007538e-04,-7.261188554e-05,-3.992126394e-04,2.653587480e-05,-1.724830921e-04,-1.459472173e-04,3.129088919e-04,5.670485429e-05,3.696137462e-04,1.984732793e-03,-2.852693369e-03,-8.679605757e-04,-6.968268800e-04,3.498310764e-04,-3.469958036e-04,-1.600728587e-03,2.246197871e-03,6.454692838e-04,-5.170852466e-04,2.676180629e-04,-2.494671837e-04,-5.796702315e-04,-8.230061840e-05,-6.619708499e-04,-1.381398039e-04,5.790910717e-05,-8.023069672e-05,1.884036075e-04,-4.005186025e-05,1.483517472e-04,-1.535301925e-04,-2.327095707e-04,-3.862397632e-04,-1.783667949e-04,5.648138589e-05,-1.218854091e-04,-5.966827454e-04,3.272649015e-04,-2.694178438e-04,3.516311065e-05,-4.043450180e-05,-5.271391156e-06,1.425163779e-04,-6.008990320e-05,8.242647468e-05,3.587063341e-04,-5.012544123e-04,-1.425480783e-04,6.737406715e-04,-1.755418614e-04,4.981988101e-04,-3.196834564e-03,2.875079491e-03,-3.217550734e-04,3.309228493e-04,-6.212034536e-04,-2.902806044e-04,-8.656193796e-04,1.019213458e-03,1.535940783e-04,-4.130641701e-04,-3.213236735e-05,-4.451965374e-04,-9.888127497e-04,6.696366436e-04,-3.191761061e-04,-1.030190009e-03,-3.648496738e-05,-1.066674977e-03,7.320151069e-04,-3.988217524e-04,3.331933545e-04,2.192432741e-04,1.042996448e-04,3.235429188e-04,4.421136076e-04,-9.045942990e-04,-4.624806915e-04,1.675806906e-03,-1.597579130e-03,7.822777532e-05
-8.6,-6.775867886e-04,5.671418712e-05,-6.208726015e-04,-9.018354826e-04,2.280451905e-04,-6.737902921e-04,-2.492664271e-04,-2.075571965e-04,-4.568236235e-04,-1.591054836e-04,-7.439688140e-06,-1.665451717e-04,-3.203802734e-04,-2.249884039e-04,-5.453686772e-04,-2.162905005e-04,1.081583586e-04,-1.081321419e-04,-8.626985485e-05,-2.103792714e-04,-2.966491262e-04,2.851687805e-03,-3.904139806e-03,-1.052452001e-03,-3.798699693e-04,-1.653472372e-04,-5.452172065e-04,-3.367634886e-04,-6.466892422e-05,-4.014324128e-04,6.187861099e-06,-1.666191799e-04,-1.604313188e-04,2.871912169e-04,8.219318893e-05,3.693844058e-04,1.741774019e-03,-2.593630451e-03,-8.518564314e-04,-6.772074253e-04,3.197945121e-04,-3.574129132e-04,-1.544766120e-03,2.227051261e-03,6.822851411e-04,-4.393464123e-04,2.034345971e-04,-2.359118152e-04,-5.914924343e-04,-2.922387054e-05,-6.207163049e-04,-1.427371304e-04,5.965433836e-05,-8.308279200e-05,2.202162037e-04,-3.741792537e-05,1.827982783e-04,-1.572242746e-04,-2.246074137e-04,-3.818316882e-04,-1.899525247e-04,5.434189759e-05,-1.356106271e-04,-6.456703579e-04,4.095778025e-04,-2.360925554e-04,1.355381359e-05,-3.913243616e-05,-2.557862257e-05,1.190756621e-04,-6.558258839e-05,5.349307370e-05,3.729087258e-04,-4.827887307e-04,-1.098800049e-04,6.430847151e-04,-1.558123152e-04,4.872724000e-04,-2.888699571e-03,2.759494512e-03,-1.292050589e-04,3.378213370e-04,-5.765462894e-04,-2.387249524e-04,-7.524152767e-04,8.957060258e-04,1.432907492e-04,-3.933432649e-04,-2.913923936e-05,-4.224825042e-04,-1.040800667e-03,7.334909563e-04,-3.073097104e-04,-9.652393503e-04,-4.182486983e-05,-1.007064220e-03,8.216973456e-04,-3.823712869e-04,4.393260588e-04,2.421005166e-04,5.431382122e-05,2.964143378e-04,5.461981281e-04,-9.431232574e-04,-3.969251292e-04,1.671651360e-03,-1.660697529e-03,1.095383101e-05
-8.5,-6.860853905e-04,6.355650625e-05,-6.225288842e-04,-8.940494623e-04,2.227091305e-04,-6.713403318e-04,-2.583562940e-04,-2.009787927e-04,-4.593350867e-04,-1.669529196e-04,-7.232104765e-06,-1.741850244e-04,-3.254755721e-04,-2.189453888e-04,-5.444209608e-04,-2.088529731e-04,9.784402899e-05,-1.110089441e-04,-1.023807546e-04,-1.997710404e-04,-3.021517950e-04,2.870257030e-03,-3.890975342e-03,-1.020718313e-03,-3.862624450e-04,-1.567259111e-04,-5.429883561e-04,-3.456935180e-04,-5.712370537e-05,-4.028172233e-04,-1.319542810e-05,-1.609437960e-04,-1.741392241e-04,2.622839688e-04,1.078794861e-04,3.701634549e-04,1.480393571e-03,-2.321094975e-03,-8.407014038e-04,-6.530166143e-04,2.898434121e-04,-3.631732022e-04,-1.466061367e-03,2.182756406e-03,7.166950391e-04,-3.586997660e-04,1.399422518e-04,-2.187575142e-04,-5.993274935e-04,2.214315570e-05,-5.771843378e-04,-1.449572641e-04,6.155684699e-05,-8.340041714e-05,2.554864191e-04,-3.769589957e-05,2.177905195e-04,-1.595628197e-04,-2.154213380e-04,-3.749841577e-04,-1.998306409e-04,5.179920628e-05,-1.480314346e-04,-6.842508829e-04,4.823647498e-04,-2.018861331e-04,-7.776686569e-06,-3.749239816e-05,-4.526908473e-05,9.502774059e-05,-7.076016604e-05,2.426757455e-05,3.830651644e-04,-4.594906286e-04,-7.642546415e-05,6.129867633e-04,-1.352390425e-04,4.777477207e-04,-2.559576506e-03,2.626540359e-03,6.696385278e-05,3.355345052e-04,-5.250899668e-04,-1.895554617e-04,-6.338843251e-04,7.677795038e-04,1.338951787e-04,-3.751042087e-04,-2.420323293e-05,-3.993074416e-04,-1.084915245e-03,7.922721572e-04,-2.926430874e-04,-8.962882287e-04,-4.633988384e-05,-9.426281126e-04,9.068708277e-04,-3.556422907e-04,5.512285369e-04,2.593178202e-04,1.618425215e-05,2.755020724e-04,6.476923275e-04,-9.743537711e-04,-3.266614436e-04,1.665706692e-03,-1.717771510e-03,-5.206481755e-05
-8.4,-6.937459116e-04,7.014254581e-05,-6.236033658e-04,-8.849564491e-04,2.170180362e-04,-6.679384129e-04,-2.670696018e-04,-1.945957632e-04,-4.616653650e-04,-1.743867464e-04,-7.039602757e-06,-1.814263491e-04,-3.307084609e-04,-2.131387386e-04,-5.438471995e-04,-2.016413271e-04,8.764068186e-05,-1.140006452e-04,-1.168975640e-04,-1.896083329e-04,-3.065058969e-04,2.871556141e-03,-3.853795342e-03,-9.822392006e-04,-3.923624161e-04,-1.483195471e-04,-5.406819632e-04,-3.533828755e-04,-5.001171142e-05,-4.033945870e-04,-3.158704791e-05,-1.554456746e-04,-1.870327225e-04,2.381552739e-04,1.336342981e-04,3.717895720e-04,1.203753011e-03,-2.038859901e-03,-8.351068904e-04,-6.246067855e-04,2.602682635e-04,-3.643385220e-04,-1.365849635e-03,2.113970642e-03,7.481210062e-04,-2.762163003e-04,7.794975676e-05,-1.982665435e-04,-6.028626163e-04,7.130634113e-05,-5.315562751e-04,-1.448476836e-04,6.357819656e-05,-8.126948703e-05,2.939326937e-04,-4.088798085e-05,2.530447128e-04,-1.606170977e-04,-2.052016666e-04,-3.658187643e-04,-2.079861098e-04,4.886584282e-05,-1.591202670e-04,-7.115602051e-04,5.443229919e-04,-1.672372132e-04,-2.878552561e-05,-3.550182999e-05,-6.428735560e-05,7.040355018e-05,-7.546090595e-05,-5.057355763e-06,3.887241215e-04,-4.313904380e-04,-4.266631647e-05,5.835080877e-04,-1.139333558e-04,4.695747318e-04,-2.212671044e-03,2.477534264e-03,2.648632197e-04,3.240280941e-04,-4.670880838e-04,-1.430599896e-04,-5.114727238e-04,6.373740581e-04,1.259013343e-04,-3.584782419e-04,-1.743616212e-05,-3.759144040e-04,-1.120620307e-03,8.452713634e-04,-2.753489431e-04,-8.240831357e-04,-4.980213792e-05,-8.738852736e-04,9.861939351e-04,-3.184932812e-04,6.677006539e-04,2.714563923e-04,-1.044327723e-05,2.610131150e-04,7.444479351e-04,-9.966523532e-04,-2.522044181e-04,1.659556795e-03,-1.768847157e-03,-1.092903625e-04
-8.3,-7.005117324e-04,7.643496001e-05,-6.240767724e-04,-8.745794119e-04,2.109853507e-04,-6.635940612e-04,-2.753922986e-04,-1.884104389e-04,-4.638027375e-04,-1.813859094e-04,-6.862748270e-06,-1.882486577e-04,-3.360543492e-04,-2.075674670e-04,-5.436218162e-04,-1.946479870e-04,7.751573990e-05,-1.171322471e-04,-1.298524128e-04,-1.798906168e-04,-3.097430296e-04,2.854228409e-03,-3.791880090e-03,-9.376516804e-04,-3.981530797e-04,-1.401346774e-04,-5.382877571e-04,-3.598307140e-04,-4.336853173e-05,-4.031992457e-04,-4.897511140e-05,-1.501129233e-04,-1.990880347e-04,2.147604893e-04,1.593105651e-04,3.740710545e-04,9.156849428e-04,-1.750748029e-03,-8.350630857e-04,-5.923428420e-04,2.312932139e-04,-3.610496281e-04,-1.245722193e-03,2.021659885e-03,7.759376917e-04,-1.930103195e-04,1.828486652e-05,-1.747254530e-04,-6.018396302e-04,1.178041408e-04,-4.840354893e-04,-1.424931029e-04,6.567231150e-05,-7.682079137e-05,3.351740008e-04,-4.692321165e-05,2.882507891e-04,-1.604756871e-04,-1.940205400e-04,-3.544962270e-04,-2.144241063e-04,4.555991168e-05,-1.688641946e-04,-7.269050738e-04,5.943529165e-04,-1.325521573e-04,-4.943754003e-05,-3.314972166e-05,-8.258726170e-05,4.524147787e-05,-7.952350283e-05,-3.428202497e-05,3.894789549e-04,-3.985746935e-04,-9.095738653e-06,5.546879632e-04,-9.202230657e-05,4.626656567e-04,-1.851281564e-03,2.313868574e-03,4.625870104e-04,3.034386127e-04,-4.029414529e-04,-9.950284025e-05,-3.866416085e-04,5.063370811e-04,1.196954726e-04,-3.435332289e-04,-8.994191099e-06,-3.525274200e-04,-1.147532800e-03,8.918926288e-04,-2.556401708e-04,-7.493847552e-04,-5.200067299e-05,-8.013854282e-04,1.058424554e-03,-2.709652929e-04,7.874592611e-04,2.791519854e-04,-2.611507558e-05,2.530369098e-04,8.344609393e-04,-1.008551243e-03,-1.740903040e-04,1.654526947e-03,-1.813916184e-03,-1.593892366e-04
-8.2,-7.063325747e-04,8.239870785e-05,-6.239338668e-04,-8.629570585e-04,2.046303489e-04,-6.583267096e-04,-2.833177228e-04,-1.824220661e-04,-4.657397888e-04,-1.879413084e-04,-6.703766415e-06,-1.946450748e-04,-3.414872168e-04,-2.022274430e-04,-5.437146598e-04,-1.878380622e-04,6.737541092e-05,-1.204626513e-04,-1.413034887e-04,-1.706084124e-04,-3.119119011e-04,2.817211336e-03,-3.704846206e-03,-8.876348697e-04,-4.036183220e-04,-1.321755336e-04,-5.357938556e-04,-3.650412223e-04,-3.722893109e-05,-4.022701533e-04,-6.536058820e-05,-1.449331075e-04,-2.102936957e-04,1.920543230e-04,1.847457317e-04,3.768000547e-04,6.205997740e-04,-1.460547362e-03,-8.399475880e-04,-5.565842334e-04,2.030622969e-04,-3.535219366e-04,-1.107600980e-03,1.907077529e-03,7.994765485e-04,-1.102190904e-04,-3.822161455e-05,-1.484407050e-04,-5.960612000e-04,1.612211568e-04,-4.348400432e-04,-1.380091618e-04,6.778468913e-05,-7.022447270e-05,3.787323106e-04,-5.565612510e-05,3.230761855e-04,-1.592406507e-04,-1.819720821e-04,-3.412127328e-04,-2.191684052e-04,4.190515017e-05,-1.772632550e-04,-7.297903470e-04,6.315929083e-04,-9.819743868e-05,-6.970304904e-05,-3.042709670e-05,-1.001301457e-04,1.959092734e-05,-8.279277806e-05,-6.320185072e-05,3.849810738e-04,-3.611940754e-04,2.378699839e-05,5.265477319e-04,-6.964844534e-05,4.568992866e-04,-1.478743133e-03,2.136984495e-03,6.582413621e-04,2.740542529e-04,-3.331808467e-04,-5.912659374e-05,-2.608571170e-04,3.763967062e-04,1.155395892e-04,-3.302868302e-04,9.365782504e-07,-3.293502520e-04,-1.165417158e-03,9.316559339e-04,-2.337612243e-04,-6.729620089e-04,-5.274233784e-05,-7.257043468e-04,1.122429929e-03,-2.132677835e-04,9.091621454e-04,2.830854733e-04,-3.154030728e-05,2.515451660e-04,9.159513613e-04,-1.008802187e-03,-9.285082531e-05,1.651677744e-03,-1.852916690e-03,-2.012389462e-04
-8.1,-7.111635953e-04,8.800086591e-05,-6.231627294e-04,-8.501414852e-04,1.979778183e-04,-6.521636670e-04,-2.908449792e-04,-1.766269550e-04,-4.674719341e-04,-1.940550942e-04,-6.566451970e-06,-2.006215462e-04,-3.469785944e-04,-1.971115478e-04,-5.440901422e-04,-1.811589880e-04,5.707573634e-05,-1.240832516e-04,-1.513318182e-04,-1.617448666e-04,-3.130766848e-04,2.759755034e-03,-3.592635411e-03,-8.328803768e-04,-4.087416161e-04,-1.244443576e-04,-5.331859736e-04,-3.690215162e-04,-3.162564625e-05,-4.006471624e-04,-8.075473483e-05,-1.398932959e-04,-2.206480307e-04,1.700016637e-04,2.097626726e-04,3.797643362e-04,3.233769757e-04,-1.171940355e-03,-8.485633790e-04,-5.176793920e-04,1.756381524e-04,-3.420412396e-04,-9.537044254e-04,1.771737466e-03,8.180330411e-04,-2.898104857e-05,-9.075630740e-05,-1.197373560e-04,-5.853936207e-04,2.011983182e-04,-3.841953025e-04,-1.315349151e-04,6.985253196e-05,-6.168238311e-05,4.240413846e-04,-6.686782985e-05,3.571735547e-04,-1.570225603e-04,-1.691718979e-04,-3.261944582e-04,-2.222596600e-04,3.793113714e-05,-1.843285228e-04,-7.199425997e-04,6.554441245e-04,-6.449847516e-05,-8.955542687e-05,-2.732772023e-05,-1.168831471e-04,-6.485607959e-06,-8.512492131e-05,-9.161052927e-05,3.749558029e-04,-3.194725316e-04,5.548327136e-05,4.990948484e-04,-4.696811267e-05,4.521267358e-04,-1.098410378e-03,1.948389293e-03,8.499789153e-04,2.362972753e-04,-2.584443695e-04,-2.214709424e-05,-1.355767550e-04,2.491380937e-04,1.135613387e-04,-3.187225501e-04,1.215660531e-05,-3.065659448e-04,-1.174171149e-03,9.641947820e-04,-2.099763670e-04,-5.955898771e-04,-5.185061914e-05,-6.474404963e-04,1.177196178e-03,-1.457596002e-04,1.031436578e-03,2.839499187e-04,-2.756044913e-05,2.563894695e-04,9.874231875e-04,-9.964169772e-04,-8.993789669e-06,1.651805601e-03,-1.885738323e-03,-2.339327221e-04
-8,-7.149644793e-04,9.321044672e-05,-6.217540326e-04,-8.361953234e-04,1.910573559e-04,-6.451379675e-04,-2.979773762e-04,-1.710186184e-04,-4.689959945e-04,-1.997392836e-04,-6.455719550e-06,-2.061950032e-04,-3.524968799e-04,-1.922099142e-04,-5.447067941e-04,-1.745510990e-04,4.643696032e-05,-1.281141387e-04,-1.600387483e-04,-1.532773246e-04,-3.133160729e-04,2.681429356e-03,-3.455494462e-03,-7.740651058e-04,-4.135057098e-04,-1.169417864e-04,-5.304474962e-04,-3.717809934e-04,-2.658792555e-05,-3.983689189e-04,-9.517755814e-05,-1.349800797e-04,-2.301576379e-04,1.485860261e-04,2.341678257e-04,3.827538518e-04,2.924117372e-05,-8.884465773e-04,-8.592054036e-04,-4.759736182e-04,1.490135092e-04,-3.269601090e-04,-7.865071971e-04,1.617382565e-03,8.308753676e-04,4.959140219e-05,-1.385504584e-04,-8.895905618e-05,-5.697700230e-04,2.374391010e-04,-3.323309219e-04,-1.232265848e-04,7.180635321e-05,-5.142023161e-05,4.704592273e-04,-8.026923953e-05,3.901899878e-04,-1.539368578e-04,-1.557555005e-04,-3.096923583e-04,-2.237548291e-04,3.367371025e-05,-1.900811189e-04,-6.973319275e-04,6.655886981e-04,-3.174322949e-05,-1.089693251e-04,-2.384888996e-05,-1.328182150e-04,-3.291309979e-05,-8.639198435e-05,-1.193050841e-04,3.592180383e-04,-2.737163411e-04,8.550169723e-05,4.723238595e-04,-2.414840397e-05,4.481754555e-04,-7.136705698e-04,1.749698438e-03,1.036027868e-03,1.907110094e-04,-1.794550033e-04,1.125600605e-05,-1.222778710e-05,1.259787992e-04,1.137510120e-04,-3.088078170e-04,2.446965707e-05,-2.843381599e-04,-1.173807124e-03,9.892496444e-04,-1.845574793e-04,-5.180490960e-04,-4.916392105e-05,-5.672130171e-04,1.221833127e-03,-6.892786725e-05,1.152905260e-03,2.824174801e-04,-1.511861559e-05,2.672988645e-04,1.047694123e-03,-9.706889770e-04,7.700514587e-05,1.655428369e-03,-1.912218511e-03,-2.567901419e-04
-7.9,-7.176994065e-04,9.799829606e-05,-6.197011105e-04,-8.211891825e-04,1.839022988e-04,-6.372868837e-04,-3.047216166e-04,-1.655879082e-04,-4.703095247e-04,-2.050144478e-04,-6.376930970e-06,-2.113913788e-04,-3.580074605e-04,-1.875102056e-04,-5.455176661e-04,-1.679594662e-04,3.526047406e-05,-1.326989922e-04,-1.675448228e-04,-1.451789507e-04,-3.127237735e-04,2.582119436e-03,-3.293952000e-03,-7.118325642e-04,-4.178933782e-04,-1.096672177e-04,-5.275605958e-04,-3.733326121e-04,-2.213988705e-05,-3.954724992e-04,-1.086577345e-04,-1.301795822e-04,-2.388373167e-04,1.278144786e-04,2.577469524e-04,3.855614310e-04,-2.563826068e-04,-6.133714535e-04,-8.697540602e-04,-4.318230989e-04,1.231296815e-04,-3.086934174e-04,-6.086904003e-04,1.445945504e-03,8.372551041e-04,1.244433510e-04,-1.809111874e-04,-5.646783644e-05,-5.491965327e-04,2.697126491e-04,-2.794838836e-04,-1.132544505e-04,7.357301508e-05,-3.968143542e-05,5.172823291e-04,-9.550674280e-05,4.217755863e-04,-1.501033110e-04,-1.418749488e-04,-2.919782598e-04,-2.237277857e-04,2.917521546e-05,-1.945525702e-04,-6.621928784e-04,6.620060148e-04,-1.868635927e-07,-1.279197297e-04,-1.999219563e-05,-1.479119253e-04,-5.960665374e-05,-8.648572536e-05,-1.460923791e-04,3.376843525e-04,-2.243206520e-04,1.133637005e-04,4.462137301e-04,-1.363447181e-06,4.448502829e-04,-3.279725855e-04,1.542681480e-03,1.214708895e-03,1.379519181e-04,-9.700337742e-05,4.094854070e-05,1.078214001e-04,8.144943805e-06,1.159663439e-04,-3.005143167e-04,3.769887640e-05,-2.628154403e-04,-1.164431975e-03,1.006657345e-03,-1.577746294e-04,-4.411239092e-04,-4.453581308e-05,-4.856597223e-04,1.255574032e-03,1.662890668e-05,1.272202939e-03,2.791075117e-04,4.773160760e-06,2.838806724e-04,1.095894044e-03,-9.311930881e-04,1.647009560e-04,1.662764887e-03,-1.932133592e-03,-2.693687051e-04
-7.8,-7.193379220e-04,1.023370799e-04,-6.170008421e-04,-8.051997099e-04,1.765484634e-04,-6.286512465e-04,-3.110877081e-04,-1.603231567e-04,-4.714108648e-04,-2.099088350e-04,-6.335203073e-06,-2.162440381e-04,-3.634735209e-04,-1.829978901e-04,-5.464714110e-04,-1.613462572e-04,2.334691947e-05,-1.379993377e-04,-1.739891671e-04,-1.374208000e-04,-3.114099671e-04,2.462012204e-03,-3.108799827e-03,-6.467876230e-04,-4.218888505e-04,-1.026191188e-04,-5.245079694e-04,-3.736952211e-04,-1.829893169e-05,-3.919941528e-04,-1.212332965e-04,-1.254775326e-04,-2.467108291e-04,1.077196405e-04,2.802604707e-04,3.879801112e-04,-5.280289364e-04,-3.497638071e-04,-8.777927435e-04,-3.856062531e-04,9.789506061e-05,-2.877111925e-04,-4.230808101e-04,1.259501133e-03,8.364203230e-04,1.946075357e-04,-2.172513919e-04,-2.264385616e-05,-5.237609791e-04,2.978553348e-04,-2.259056444e-04,-1.018030317e-04,7.507963744e-05,-2.672339430e-05,5.637612678e-04,-1.121713837e-04,4.515898841e-04,-1.456484362e-04,-1.276934075e-04,-2.733418437e-04,-2.222701175e-04,2.448411170e-05,-1.977860059e-04,-6.150386468e-04,6.449843618e-04,2.994571499e-05,-1.463814875e-04,-1.576412802e-05,-1.621456155e-04,-8.647482661e-05,-8.532064366e-05,-1.717954703e-04,3.103801200e-04,-1.717717380e-04,1.386083820e-04,4.207234318e-04,2.120909442e-05,4.419325262e-04,5.515842424e-05,1.329288854e-03,1.384447278e-03,7.878478573e-05,-1.193640386e-05,6.684838187e-05,2.232902971e-04,-1.033449614e-04,1.199453357e-04,-2.938391285e-04,5.170051629e-05,-2.421386122e-04,-1.146228641e-03,1.016337870e-03,-1.298907714e-04,-3.655951743e-04,-3.783839596e-05,-4.034335702e-04,1.277775002e-03,1.102072290e-04,1.387982231e-03,2.745563569e-04,3.106955628e-05,3.056259132e-04,1.131439105e-03,-8.777681281e-04,2.536709772e-04,1.673730343e-03,-1.945193536e-03,-2.714631929e-04
-7.7,-7.198559588e-04,1.062013166e-04,-6.136546422e-04,-7.883080221e-04,1.690329464e-04,-6.192750757e-04,-3.170889812e-04,-1.552103518e-04,-4.722993330e-04,-2.144578471e-04,-6.334930838e-06,-2.207927779e-04,-3.688569634e-04,-1.786564925e-04,-5.475134559e-04,-1.547018125e-04,1.051357420e-05,-1.441882383e-04,-1.795279329e-04,-1.299744487e-04,-3.095023817e-04,2.321579728e-03,-2.901085643e-03,-5.795059149e-04,-4.254790923e-04,-9.579532497e-05,-5.212744173e-04,-3.728953734e-04,-1.507447719e-05,-3.879698506e-04,-1.329517090e-04,-1.208595375e-04,-2.538112465e-04,8.836133107e-05,3.014396877e-04,3.898010188e-04,-7.803521428e-04,-1.003927084e-04,-8.807448512e-04,-3.377285182e-04,7.320060544e-05,-2.645279128e-04,-2.325837254e-04,1.060215866e-03,8.276321404e-04,2.592295146e-04,-2.471149841e-04,1.211453049e-05,-4.936418363e-04,3.217718601e-04,-1.718699762e-04,-8.907280398e-05,7.625738853e-05,-1.281541544e-05,6.091182412e-04,-1.298129556e-04,4.793052856e-04,-1.407090949e-04,-1.133781037e-04,-2.540871986e-04,-2.194908750e-04,1.965388801e-05,-1.998369870e-04,-5.566576848e-04,6.151182824e-04,5.846059759e-05,-1.643285945e-04,-1.117640261e-05,-1.755049971e-04,-1.134218873e-04,-8.283593585e-05,-1.962578232e-04,2.774420333e-04,-1.166440770e-04,1.607979563e-04,3.957884833e-04,4.339094409e-05,4.391794273e-04,4.321579707e-04,1.111636091e-03,1.543794061e-03,1.407779648e-05,7.485157185e-05,8.892936833e-05,3.330099240e-04,-2.076837346e-04,1.253261894e-04,-2.888227296e-04,6.637331924e-05,-2.224494104e-04,-1.119442139e-03,1.018282561e-03,-1.011595780e-04,-2.922290121e-04,-2.896793000e-05,-3.211969421e-04,1.287916665e-03,2.109963315e-04,1.498912996e-03,2.691906135e-04,6.272835978e-05,3.319189733e-04,1.153992868e-03,-8.104904503e-04,3.435024180e-04,1.687955667e-03,-1.951042078e-03,-2.630864115e-04
-7.6,-7.192359827e-04,1.095674199e-04,-6.096685628e-04,-7.705977784e-04,1.613931513e-04,-6.092046271e-04,-3.227413620e-04,-1.502334193e-04,-4.729747813e-04,-2.187034119e-04,-6.379694582e-06,-2.250831064e-04,-3.741187070e-04,-1.744678739e-04,-5.485865809e-04,-1.480521051e-04,-3.390452135e-06,-1.514425572e-04,-1.843307221e-04,-1.228147641e-04,-3.071454861e-04,2.161567168e-03,-2.672120337e-03,-5.105531695e-04,-4.286540597e-04,-8.919339337e-05,-5.178474530e-04,-3.709671365e-04,-1.246723134e-05,-3.834343678e-04,-1.438679832e-04,-1.163116189e-04,-2.601796021e-04,6.983021443e-05,3.209839871e-04,3.908142015e-04,-1.008266835e-03,1.322521228e-04,-8.760147123e-04,-2.886205218e-04,4.893325967e-05,-2.396872621e-04,-4.011521060e-05,8.503025432e-04,8.101873326e-04,3.175870590e-04,-2.701961793e-04,4.739087971e-05,-4.591139353e-04,3.414356173e-04,-1.176783181e-04,-7.528091890e-05,7.704435701e-05,1.763438109e-06,6.525672421e-04,-1.479591087e-04,5.046081334e-04,-1.354347150e-04,-9.909250034e-05,-2.345272153e-04,-2.155143998e-04,1.474165339e-05,-2.007727464e-04,-4.880850983e-04,5.732834365e-04,8.519833821e-05,-1.817324847e-04,-6.245981954e-06,-1.879784667e-04,-1.403479345e-04,-7.899639679e-05,-2.193443313e-04,2.391170051e-04,-5.959229169e-05,1.795247134e-04,3.713208309e-04,6.500597767e-05,4.363268086e-04,7.995209736e-04,8.919384691e-04,1.691459443e-03,-5.520669590e-05,1.624293964e-04,1.072227005e-04,4.359420488e-04,-3.042694128e-04,1.316726360e-04,-2.855592750e-04,8.166234016e-05,-2.038969348e-04,-1.084371998e-03,1.012547416e-03,-7.182458220e-05,-2.217633402e-04,-1.785112678e-05,-2.396144670e-04,1.285606886e-03,3.180750263e-04,1.603681913e-03,2.633092429e-04,9.874320140e-05,3.620524443e-04,1.163426008e-03,-7.296475537e-04,4.337784540e-04,1.704825753e-03,-1.949263126e-03,-2.444373726e-04
-7.5,-7.174656346e-04,1.124137699e-04,-6.050518648e-04,-7.521522130e-04,1.536660786e-04,-5.984861344e-04,-3.280613250e-04,-1.453746482e-04,-4.734359733e-04,-2.226925658e-04,-6.472500352e-06,-2.291650662e-04,-3.792179053e-04,-1.704126279e-04,-5.496305333e-04,-1.414606791e-04,-1.847182806e-05,-1.599325072e-04,-1.885747327e-04,-1.159223796e-04,-3.044971122e-04,1.982989152e-03,-2.423495438e-03,-4.405062860e-04,-4.314055723e-04,-8.281103533e-05,-5.142166076e-04,-3.679493467e-04,-1.046907306e-05,-3.784184197e-04,-1.540404790e-04,-1.118209016e-04,-2.658613807e-04,5.225355382e-05,3.385587088e-04,3.908122626e-04,-1.207055113e-03,3.459450287e-04,-8.611100847e-04,-2.387289317e-04,2.498769550e-05,-2.137412362e-04,1.514652826e-04,6.319834109e-04,7.834486935e-04,3.691042849e-04,-2.863522579e-04,8.275202703e-05,-4.205477305e-04,3.568875606e-04,-6.366016993e-05,-6.065917161e-05,7.738722293e-05,1.672805132e-05,6.933362596e-04,-1.661366973e-04,5.271995623e-04,-1.299863575e-04,-8.498833407e-05,-2.149746916e-04,-2.104762117e-04,9.806715907e-06,-2.006694957e-04,-4.105515625e-04,5.205902230e-04,1.100386605e-04,-1.985592087e-04,-9.949220415e-07,-1.995541308e-04,-1.671472305e-04,-7.379243274e-05,-2.409396632e-04,1.957589170e-04,-1.339676406e-06,1.944192406e-04,3.472132061e-04,8.588341282e-05,4.330966189e-04,1.153929284e-03,6.724180688e-04,1.826347353e-03,-1.280278461e-04,2.498430691e-04,1.218152230e-04,5.312008260e-04,-3.926969315e-04,1.385038945e-04,-2.841956679e-04,9.755653440e-05,-1.866391335e-04,-1.041370275e-03,9.992511945e-04,-4.211908011e-05,-1.548950735e-04,-4.450714579e-06,-1.593457881e-04,1.270584245e-03,4.304119381e-04,1.700996184e-03,2.570792705e-04,1.381690484e-04,3.952483189e-04,1.159781518e-03,-6.357166827e-04,5.240648355e-04,1.723529297e-03,-1.939399961e-03,-2.158706644e-04
-7.4,-7.145351313e-04,1.147208143e-04,-5.998143170e-04,-7.330501403e-04,1.458878086e-04,-5.871623318e-04,-3.330627448e-04,-1.406151905e-04,-4.736779353e-04,-2.264748334e-04,-6.616097249e-06,-2.330909307e-04,-3.841102810e-04,-1.664706201e-04,-5.505809010e-04,-1.350246703e-04,-3.478400692e-05,-1.698086772e-04,-1.924374577e-04,-1.092857410e-04,-3.017231986e-04,1.787128606e-03,-2.157099197e-03,-3.699705905e-04,-4.337253566e-04,-7.664658109e-05,-5.103719377e-04,-3.638813030e-04,-9.063303694e-06,-3.729446067e-04,-1.635255058e-04,-1.073762070e-04,-2.709017128e-04,3.580103406e-05,3.537942402e-04,3.895952742e-04,-1.372449369e-03,5.387129989e-04,-8.337363700e-04,-1.884997206e-04,1.275331498e-06,-1.872243891e-04,3.394233339e-04,4.074572526e-04,7.468805865e-04,4.133616587e-04,-2.956101549e-04,1.177515038e-04,-3.784013990e-04,3.682337391e-04,-1.016765990e-05,-4.544909816e-05,7.724160996e-05,3.179251180e-05,7.306892172e-04,-1.838909161e-04,5.467983011e-04,-1.245327708e-04,-7.119822158e-05,-1.957309924e-04,-2.045178702e-04,4.909182045e-06,-1.996086882e-04,-3.254218305e-04,4.583267644e-04,1.329049339e-04,-2.147664847e-04,4.549849596e-06,-2.102166351e-04,-1.937063916e-04,-6.723917713e-05,-2.609455687e-04,1.478245303e-04,5.733430542e-05,2.051588357e-04,3.233467119e-04,1.058616129e-04,4.292083248e-04,1.492360510e-03,4.552148739e-04,1.947575384e-03,-2.032850778e-04,3.361301598e-04,1.328450819e-04,6.180822953e-04,-4.727537935e-04,1.453285018e-04,-2.849186323e-04,1.140797307e-04,-1.708389016e-04,-9.908431019e-04,9.785747359e-04,-1.226836604e-05,-9.226972300e-05,1.123076263e-05,-8.103896037e-05,1.242723487e-03,5.468682043e-04,1.789591691e-03,2.505430119e-04,1.801407282e-04,4.306837400e-04,1.143246793e-03,-5.293494513e-04,6.138973418e-04,1.743116821e-03,-1.920995962e-03,-1.778791403e-04
-7.3,-7.104344413e-04,1.164711366e-04,-5.939633047e-04,-7.133617182e-04,1.380930406e-04,-5.752686776e-04,-3.377535758e-04,-1.359355247e-04,-4.736891005e-04,-2.300987400e-04,-6.813121870e-06,-2.369118619e-04,-3.887463634e-04,-1.626215732e-04,-5.513679367e-04,-1.288663303e-04,-5.232256015e-05,-1.811888904e-04,-1.960894761e-04,-1.029026777e-04,-2.989921538e-04,1.575529441e-03,-1.875122075e-03,-2.995926336e-04,-4.356033131e-04,-7.069941121e-05,-5.063027244e-04,-3.587987857e-04,-8.224932469e-06,-3.670237181e-04,-1.723725401e-04,-1.029683845e-04,-2.753409246e-04,2.068762186e-05,3.662880607e-04,3.869756826e-04,-1.500713312e-03,7.088473328e-04,-7.918659792e-04,-1.383585900e-04,-2.226914409e-05,-1.606277341e-04,5.212150837e-04,1.788708641e-04,7.000859478e-04,4.501012141e-04,-2.981667513e-04,1.519344628e-04,-3.332084830e-04,3.756421719e-04,4.243368888e-05,-2.989586627e-05,7.657117680e-05,4.667531053e-05,7.639454928e-04,-2.007994137e-04,5.631460791e-04,-1.192448457e-04,-5.783002928e-05,-1.770748749e-04,-1.977821206e-04,1.084496968e-07,-1.976736709e-04,-2.341355321e-04,3.879026897e-04,1.537671576e-04,-2.303019701e-04,1.035681957e-05,-2.199451505e-04,-2.199038873e-04,-5.937479987e-05,-2.792786872e-04,9.586823028e-05,1.156063127e-04,2.114745430e-04,2.995984879e-04,1.247922377e-04,4.243907257e-04,1.812149037e-03,2.423204078e-04,2.054469444e-03,-2.798342671e-04,4.203308866e-04,1.404966196e-04,6.960970406e-04,-5.444193584e-04,1.516776822e-04,-2.879332139e-04,1.312760003e-04,-1.566572136e-04,-9.332547529e-04,9.507589917e-04,1.750423882e-05,-3.447344406e-05,2.914939509e-05,-5.324048969e-06,1.202042578e-03,6.662021987e-04,1.868244777e-03,2.436308576e-04,2.238867467e-04,4.675176043e-04,1.114132704e-03,-4.113615413e-04,7.027711628e-04,1.762566354e-03,-1.893657981e-03,-1.310916275e-04
-7.2,-7.051513154e-04,1.176494150e-04,-5.875019004e-04,-6.931449894e-04,1.303146008e-04,-5.628303885e-04,-3.421333050e-04,-1.313158413e-04,-4.734491462e-04,-2.336083307e-04,-7.065994376e-06,-2.406743251e-04,-3.930704521e-04,-1.588455383e-04,-5.519159904e-04,-1.231231498e-04,-7.102446877e-05,-1.941476186e-04,-1.996886831e-04,-9.678130884e-05,-2.964699919e-04,1.349984761e-03,-1.580053282e-03,-2.300685213e-04,-4.370267847e-04,-6.497028483e-05,-5.019970695e-04,-3.527317116e-04,-7.921001812e-06,-3.606527134e-04,-1.806213787e-04,-9.859037210e-05,-2.792117508e-04,7.170673173e-06,3.756117705e-04,3.827824437e-04,-1.588732093e-03,8.549454151e-04,-7.337866778e-04,-8.869688065e-05,-4.568238278e-05,-1.343792634e-04,6.945420902e-04,-5.169817453e-05,6.428439156e-04,4.792235729e-04,-2.943806945e-04,1.848428784e-04,-2.855650456e-04,3.793387445e-04,9.377369886e-05,-1.424330287e-05,7.534604528e-05,6.110274241e-05,7.924956275e-04,-2.164815959e-04,5.760140316e-04,-1.142897663e-04,-4.496408262e-05,-1.592538489e-04,-1.904092975e-04,-4.538410158e-06,-1.949477077e-04,-1.381566404e-04,3.107985069e-04,1.726418665e-04,-2.451033679e-04,1.639026874e-05,-2.287130992e-04,-2.456110502e-04,-5.025845609e-05,-2.958695063e-04,4.053402133e-05,1.726211877e-04,2.131552090e-04,2.758466825e-04,1.425442538e-04,4.183909363e-04,2.110994667e-03,3.553905679e-05,2.146533724e-03,-3.564993734e-04,5.014950839e-04,1.449957105e-04,7.649912400e-04,-6.078600558e-04,1.571311842e-04,-2.934387718e-04,1.491918213e-04,-1.442469505e-04,-8.691329734e-04,9.161018492e-04,4.696887577e-05,1.797329127e-05,4.922031317e-05,6.719360443e-05,1.148707742e-03,7.870787689e-04,1.935786511e-03,2.361764827e-04,2.687388559e-04,5.049153386e-04,1.072861766e-03,-2.827263386e-04,7.901354277e-04,1.780849752e-03,-1.857128024e-03,-7.627827130e-05
-7.1,-6.986706671e-04,1.182422694e-04,-5.804283978e-04,-6.724438807e-04,1.225829546e-04,-5.498609262e-04,-3.461915889e-04,-1.267363906e-04,-4.729279795e-04,-2.370404931e-04,-7.376659444e-06,-2.444171525e-04,-3.970206632e-04,-1.551231550e-04,-5.521438182e-04,-1.179401774e-04,-9.076941865e-05,-2.087095961e-04,-2.033765332e-04,-9.094003018e-05,-2.943165634e-04,1.112528391e-03,-1.274672996e-03,-1.621446042e-04,-4.379809255e-04,-5.946148996e-05,-4.974424155e-04,-3.457035209e-04,-8.111297524e-06,-3.538148184e-04,-1.883014589e-04,-9.423705492e-05,-2.825385138e-04,-4.459867650e-06,3.813236014e-04,3.768637338e-04,-1.634107707e-03,9.759715645e-04,-6.581361429e-04,-3.986804108e-05,-6.896816635e-05,-1.088362074e-04,8.573921729e-04,-2.822452174e-04,5.751469555e-04,5.007739540e-04,-2.847535137e-04,2.160204403e-04,-2.361176413e-04,3.796004776e-04,1.434828363e-04,1.268863976e-06,7.354133605e-05,7.481020003e-05,8.158112645e-04,-2.306047333e-04,5.852065312e-04,-1.098256550e-04,-3.265321695e-05,-1.424788719e-04,-1.825352648e-04,-8.978159692e-06,-1.915134244e-04,-3.893227203e-05,2.285198684e-04,1.895875964e-04,-2.591000145e-04,2.261073442e-05,-2.364892801e-04,-2.706939532e-04,-3.996834151e-05,-3.106622947e-04,-1.745590415e-05,2.275043455e-04,2.100484414e-04,2.519720335e-04,1.590073271e-04,4.109793606e-04,2.386935245e-03,-1.635271609e-04,2.223408084e-03,-4.320819469e-04,5.786865376e-04,1.466045907e-04,8.247422885e-04,-6.634109209e-04,1.613313676e-04,-3.016070973e-04,1.678571870e-04,-1.337499103e-04,-7.990728078e-04,8.749539810e-04,7.588117316e-05,6.462138490e-05,7.131881895e-05,1.359402039e-04,1.083029906e-03,9.080876905e-04,1.991117597e-03,2.279328427e-04,3.141373265e-04,5.420701692e-04,1.019966297e-03,-1.445712304e-04,8.753950663e-04,1.796985822e-03,-1.811342815e-03,-1.435699317e-05
-7,-6.909751276e-04,1.182381097e-04,-5.727370179e-04,-6.512877100e-04,1.149258315e-04,-5.363618785e-04,-3.499079345e-04,-1.221778603e-04,-4.720857948e-04,-2.404234578e-04,-7.746348623e-06,-2.481698064e-04,-4.005298481e-04,-1.514357261e-04,-5.519655742e-04,-1.134658493e-04,-1.113825475e-04,-2.248483968e-04,-2.072760027e-04,-8.540648416e-05,-2.926824869e-04,8.654270217e-04,-9.620340625e-04,-9.660704079e-05,-4.384496827e-04,-5.417676789e-05,-4.926264506e-04,-3.377315520e-04,-8.749644214e-06,-3.464811962e-04,-1.954325609e-04,-8.990501808e-05,-2.853375790e-04,-1.389716961e-05,3.829850502e-04,3.690878806e-04,-1.635251484e-03,1.071313178e-03,-5.639383064e-04,7.807239133e-06,-9.209609244e-05,-8.428885330e-05,1.008066584e-03,-5.108339286e-04,4.972326556e-04,5.149189977e-04,-2.699011997e-04,2.450177980e-04,-1.855491758e-04,3.767443936e-04,1.911952178e-04,1.640614942e-05,7.113620827e-05,8.754235769e-05,8.334474964e-04,-2.428880506e-04,5.905594458e-04,-1.059967788e-04,-2.092525689e-05,-1.269220357e-04,-1.742903735e-04,-1.316251253e-05,-1.874528860e-04,6.214006243e-05,1.425556270e-04,2.046956895e-04,-2.722150676e-04,2.897548584e-05,-2.432395818e-04,-2.950152862e-04,-2.860007496e-05,-3.236153612e-04,-7.731549811e-05,2.793759190e-04,2.020604209e-04,2.278572498e-04,1.740942598e-04,4.019515097e-04,2.638316229e-03,-3.534875402e-04,2.284828689e-03,-5.053719639e-04,6.509865622e-04,1.456145984e-04,8.755259267e-04,-7.115388087e-04,1.639871180e-04,-3.125640308e-04,1.872667549e-04,-1.252972759e-04,-7.237364255e-04,8.277128014e-04,1.039763758e-04,1.050990154e-04,9.528064426e-05,2.003796596e-04,1.005447819e-03,1.027774830e-03,2.033222649e-03,2.185847738e-04,3.596344098e-04,5.782191835e-04,9.560919025e-04,1.825696812e-06,9.579175993e-04,1.810075133e-03,-1.756473482e-03,5.360165088e-05
-6.9,-6.820461199e-04,1.176271408e-04,-5.644189791e-04,-6.296916233e-04,1.073680526e-04,-5.223235707e-04,-3.532518857e-04,-1.176218204e-04,-4.708737062e-04,-2.437763559e-04,-8.175537745e-06,-2.519518937e-04,-4.035267209e-04,-1.477652091e-04,-5.512919300e-04,-1.098492131e-04,-1.326404762e-04,-2.424896892e-04,-2.114902763e-04,-8.021563809e-05,-2.917059144e-04,6.111586108e-04,-6.454199073e-04,-3.426129652e-05,-4.384165445e-04,-4.912104582e-05,-4.875375903e-04,-3.288273448e-04,-9.785535718e-06,-3.386128805e-04,-2.020254808e-04,-8.559233787e-05,-2.876178187e-04,-2.083665223e-05,3.801798161e-04,3.593431639e-04,-1.591463878e-03,1.140810760e-03,-4.506531187e-04,5.403430743e-05,-1.150049862e-04,-6.097067873e-05,1.145192606e-03,-7.355873951e-04,4.096052109e-04,5.219224602e-04,-2.505216511e-04,2.714008091e-04,-1.345587181e-04,3.711113728e-04,2.365526547e-04,3.093992744e-05,6.811356583e-05,9.905349327e-05,8.450385112e-04,-2.531051426e-04,5.919333687e-04,-1.029281141e-04,-9.788301477e-06,-1.127164156e-04,-1.657982912e-04,-1.704879376e-05,-1.828470850e-04,1.637376029e-04,5.433917753e-05,2.180767804e-04,-2.843672915e-04,3.543892520e-05,-2.489283663e-04,-3.184352996e-04,-1.626534448e-05,-3.347006441e-04,-1.382118245e-04,3.273689519e-04,1.891571274e-04,2.033864284e-04,1.877424344e-04,3.911288628e-04,2.863790083e-03,-5.331910652e-04,2.330599018e-03,-5.751611427e-04,7.174985565e-04,1.423374138e-04,9.176634040e-04,-7.527903538e-04,1.648730501e-04,-3.263735642e-04,2.073614653e-04,-1.190120990e-04,-6.438488765e-04,7.748143264e-04,1.309654499e-04,1.391176277e-04,1.209008044e-04,2.600184321e-04,9.165015321e-04,1.144682817e-03,2.061184349e-03,2.077560295e-04,4.048973950e-04,6.126534245e-04,8.819974534e-04,1.550423767e-04,1.037039830e-03,1.819322321e-03,-1.692947118e-03,1.263752027e-04
-6.8,-6.718645860e-04,1.164015990e-04,-5.554629870e-04,-6.076570719e-04,9.993159984e-05,-5.077254721e-04,-3.561830078e-04,-1.130512040e-04,-4.692342118e-04,-2.471092156e-04,-8.664159238e-06,-2.557733749e-04,-4.059364067e-04,-1.440942404e-04,-5.500306471e-04,-1.072356801e-04,-1.542815760e-04,-2.615172562e-04,-2.161009855e-04,-7.540727929e-05,-2.915082648e-04,3.523685616e-04,-3.282749612e-04,2.409360042e-05,-4.378642993e-04,-4.430009765e-05,-4.821643970e-04,-3.189960301e-04,-1.116563256e-05,-3.301616627e-04,-2.080814682e-04,-8.129852122e-05,-2.893799894e-04,-2.499541984e-05,3.725333545e-04,3.475379346e-04,-1.502991830e-03,1.184756827e-03,-3.182350029e-04,9.854367669e-05,-1.376115429e-04,-3.906786619e-05,1.267722300e-03,-9.546779238e-04,3.130443761e-04,5.221302333e-04,-2.273648068e-04,2.947654265e-04,-8.383451891e-05,3.630462031e-04,2.792116842e-04,4.464851071e-05,6.446045036e-05,1.091089611e-04,8.502903693e-04,-2.610845872e-04,5.892057821e-04,-1.007179560e-04,7.610558613e-07,-9.995690014e-05,-1.571735881e-04,-2.060036275e-05,-1.777739508e-04,2.646311877e-04,-3.478705861e-05,2.298441291e-04,-2.954717987e-04,4.195289206e-05,-2.535189066e-04,-3.408111475e-04,-3.090636177e-06,-3.439017837e-04,-1.992845609e-04,3.706529299e-04,1.713683689e-04,1.784469015e-04,1.999144686e-04,3.783613701e-04,3.062350308e-03,-7.017840089e-04,2.360566299e-03,-6.402571057e-04,7.773548626e-04,1.370977569e-04,9.515641825e-04,-7.877346991e-04,1.638294834e-04,-3.430232591e-04,2.280116302e-04,-1.150116288e-04,-5.601924921e-04,7.167258338e-04,1.565333418e-04,1.664772668e-04,1.479314711e-04,3.144087379e-04,8.168058527e-04,1.257392753e-03,2.074198605e-03,1.950158344e-04,4.497075311e-04,6.447233656e-04,7.985457881e-04,3.135262033e-04,1.112071991e-03,1.824044398e-03,-1.621444894e-03,2.025995038e-04
-6.7,-6.604107962e-04,1.145561631e-04,-5.458546331e-04,-5.851716894e-04,9.263587961e-05,-4.925358098e-04,-3.586502589e-04,-1.084507295e-04,-4.671009884e-04,-2.504226162e-04,-9.211931627e-06,-2.596345478e-04,-4.076800798e-04,-1.404062534e-04,-5.480863332e-04,-1.057602076e-04,-1.760191183e-04,-2.817793259e-04,-2.211653572e-04,-7.102340427e-05,-2.921887614e-04,9.181077159e-05,-1.411914446e-05,7.769162713e-05,-4.367737415e-04,-3.972025283e-05,-4.764939943e-04,-3.082348397e-04,-1.283485531e-05,-3.210696950e-04,-2.135903674e-04,-7.702456307e-05,-2.906149305e-04,-2.612983953e-05,3.597318455e-04,3.336020060e-04,-1.371056903e-03,1.203872449e-03,-1.671844546e-04,1.410980788e-04,-1.598224114e-04,-1.872433261e-05,1.374921150e-03,-1.166320568e-03,2.086005820e-04,5.159687463e-04,-2.012098265e-04,3.147589199e-04,-3.402337632e-05,3.528765596e-04,3.188531832e-04,5.731950214e-05,6.016885773e-05,1.174883599e-04,8.489749755e-04,-2.667086076e-04,5.822663679e-04,-9.942934891e-05,1.072836112e-05,-8.870098779e-05,-1.485179976e-04,-2.378710145e-05,-1.723050991e-04,3.636985648e-04,-1.236013392e-04,2.400972256e-04,-3.054400432e-04,4.846694643e-05,-2.569730967e-04,-3.619948694e-04,1.078387003e-05,-3.512109993e-04,-2.596666852e-04,4.084605726e-04,1.487938874e-04,1.529344532e-04,2.105981512e-04,3.635326044e-04,3.233371962e-03,-8.587739466e-04,2.374598016e-03,-6.994973719e-04,8.297270392e-04,1.302296672e-04,9.776781712e-04,-8.169139583e-04,1.607642130e-04,-3.624123652e-04,2.490044786e-04,-1.134078866e-04,-4.736037962e-04,6.539437678e-04,1.803399716e-04,1.870711693e-04,1.760789188e-04,3.631500881e-04,7.070295751e-04,1.364561386e-03,2.071590961e-03,1.798906427e-04,4.939507893e-04,6.738414320e-04,7.066888487e-04,4.756119301e-04,1.182300779e-03,1.823652532e-03,-1.542865900e-03,2.807866318e-04
-6.6,-6.476635131e-04,1.120884388e-04,-5.355750744e-04,-5.622086975e-04,8.549799053e-05,-4.767107069e-04,-3.605910954e-04,-1.038071690e-04,-4.643982644e-04,-2.537067074e-04,-9.818572574e-06,-2.635252799e-04,-4.086741594e-04,-1.366856690e-04,-5.453598284e-04,-1.055382414e-04,-1.975559523e-04,-3.030941937e-04,-2.267126753e-04,-6.710595034e-05,-2.938186257e-04,-1.677139141e-04,2.935387414e-04,1.258248274e-04,-4.351220994e-04,-3.538817466e-05,-4.705102741e-04,-2.965317689e-04,-1.473712371e-05,-3.112688926e-04,-2.185286879e-04,-7.277297651e-05,-2.913016644e-04,-2.405138085e-05,3.415404010e-04,3.174890201e-04,-1.197852011e-03,1.199270491e-03,1.418479972e-06,1.815025941e-04,-1.815469540e-04,-4.435986057e-08,1.466348478e-03,-1.368773628e-03,9.757485003e-05,5.039493276e-04,-1.728490557e-04,3.311002720e-04,1.429805904e-05,3.408944688e-04,3.551925278e-04,6.875343806e-05,5.523669406e-05,1.239901321e-04,8.409264794e-04,-2.699098679e-04,5.710166115e-04,-9.908316752e-05,2.011362260e-05,-7.896954492e-05,-1.399165536e-04,-2.658607039e-05,-1.665026240e-04,4.599316063e-04,-2.110214488e-04,2.489101575e-04,-3.141801441e-04,5.492870326e-05,-2.592514408e-04,-3.818313646e-04,2.520510061e-05,-3.566262640e-04,-3.185041794e-04,4.401131865e-04,1.216090070e-04,1.267600004e-04,2.198055647e-04,3.465655650e-04,3.376631418e-03,-1.004068746e-03,2.372562672e-03,-7.517657058e-04,8.738406315e-04,1.220749257e-04,9.964623577e-04,-8.408113210e-04,1.556510368e-04,-3.843462346e-04,2.700400004e-04,-1.143062343e-04,-3.849747645e-04,5.869984901e-04,2.020237257e-04,2.008889612e-04,2.050000235e-04,4.058889847e-04,5.878789478e-04,1.464953692e-03,2.052832639e-03,1.618801575e-04,5.376012589e-04,6.994814164e-04,6.074569744e-04,6.395365379e-04,1.246993512e-03,1.817602582e-03,-1.458255557e-03,3.593470246e-04
-6.5,-6.335994805e-04,1.089994547e-04,-5.246000258e-04,-5.387266741e-04,7.853275101e-05,-4.601939231e-04,-3.619312193e-04,-9.910942190e-05,-4.610406412e-04,-2.569400437e-04,-1.048377819e-05,-2.674238219e-04,-4.088299785e-04,-1.329180713e-04,-5.417480498e-04,-1.066559173e-04,-2.185999501e-04,-3.252558674e-04,-2.327413420e-04,-6.369504041e-05,-2.964363824e-04,-4.234163164e-04,5.912822355e-04,1.678659191e-04,-4.328822107e-04,-3.131062677e-05,-4.641928374e-04,-2.838657104e-04,-1.681593504e-05,-3.006816455e-04,-2.228591482e-04,-6.854766225e-05,-2.914068104e-04,-1.864063324e-05,3.178194622e-04,2.991788290e-04,-9.865050315e-04,1.172407808e-03,1.859027768e-04,2.196107784e-04,-2.027090688e-04,1.690170965e-05,1.541830339e-03,-1.560346767e-03,-1.851642737e-05,4.866650534e-04,-1.430744491e-04,3.435906043e-04,6.064390238e-05,3.273437586e-04,3.879876609e-04,7.876762582e-05,4.966888829e-05,1.284365141e-04,8.260377060e-04,-2.706665455e-04,5.553711606e-04,-9.965567633e-05,2.890707712e-05,-7.074859922e-05,-1.314351227e-04,-2.898224020e-05,-1.604173629e-04,5.524368773e-04,-2.961099187e-04,2.563269585e-04,-3.215984522e-04,6.128421288e-05,-2.603142393e-04,-4.001579390e-04,4.000798168e-05,-3.601499573e-04,-3.749741506e-04,4.650415446e-04,9.006739391e-05,9.985429376e-05,2.275714881e-04,3.274257819e-04,3.492297691e-03,-1.137977524e-03,2.354320167e-03,-7.960148450e-04,9.089950602e-04,1.129802152e-04,1.008358902e-03,-8.598399229e-04,1.485189790e-04,-4.085393231e-04,2.907368606e-04,-1.178024625e-04,-2.952571633e-04,5.164632577e-04,2.212060944e-04,2.080161521e-04,2.343002945e-04,4.423164465e-04,4.600807310e-04,1.557472225e-03,2.017552956e-03,1.404750741e-04,5.806987870e-04,7.211738611e-04,5.019569676e-04,8.034470418e-04,1.305404009e-03,1.805328158e-03,-1.368712446e-03,4.366157120e-04
-6.4,-6.181941167e-04,1.052941447e-04,-5.128999721e-04,-5.146705490e-04,7.175237991e-05,-4.429181691e-04,-3.625856974e-04,-9.434840430e-05,-4.569341017e-04,-2.600889547e-04,-1.120700973e-05,-2.712959645e-04,-4.080545709e-04,-1.290902744e-04,-5.371448453e-04,-1.091624872e-04,-2.388785101e-04,-3.480409973e-04,-2.392178701e-04,-6.082766643e-05,-3.000455365e-04,-6.725755025e-04,8.758629178e-04,2.032874153e-04,-4.300229910e-04,-2.749414376e-05,-4.575171348e-04,-2.702088546e-04,-1.901491471e-05,-2.892237693e-04,-2.265324985e-04,-6.435359448e-05,-2.908860930e-04,-9.857336598e-06,2.885361636e-04,2.786788270e-04,-7.410037372e-04,1.125025220e-03,3.840214829e-04,2.553221231e-04,-2.232563315e-04,3.206579167e-05,1.601428688e-03,-1.739418552e-03,-1.379898636e-04,4.647718175e-04,-1.126616855e-04,3.521101320e-04,1.046271078e-04,3.124158639e-04,4.170429717e-04,8.719853607e-05,4.347884982e-05,1.306773859e-04,8.042540742e-04,-2.689963415e-04,5.352577327e-04,-1.010817858e-04,3.708840182e-05,-6.399338393e-05,-1.231200971e-04,-3.096919044e-05,-1.540892875e-04,6.404303188e-04,-3.780683219e-04,2.623619970e-04,-3.276024841e-04,6.747836544e-05,-2.601241186e-04,-4.168060300e-04,5.501708368e-05,-3.617889463e-04,-4.283032078e-04,4.828033010e-04,5.450009318e-05,7.216856395e-05,2.339513836e-04,3.061199476e-04,3.580888170e-03,-1.261169945e-03,2.319718225e-03,-8.312958967e-04,9.345874201e-04,1.032915233e-04,1.013780293e-03,-8.743488820e-04,1.394314108e-04,-4.346259209e-04,3.106467372e-04,-1.239791836e-04,-2.054670931e-04,4.429624325e-04,2.374953394e-04,2.086288038e-04,2.635350411e-04,4.721638449e-04,3.243621785e-04,1.641183174e-03,1.965545352e-03,1.151772991e-04,6.233197329e-04,7.384970320e-04,3.913724038e-04,9.654064904e-04,1.356778894e-03,1.786178025e-03,-1.275296093e-03,5.108819319e-04
-6.3,-6.014236009e-04,1.009817912e-04,-5.004418097e-04,-4.899741759e-04,6.516598295e-05,-4.248081930e-04,-3.624615172e-04,-8.951678982e-05,-4.519783070e-04,-2.631079398e-04,-1.198718334e-05,-2.750951231e-04,-4.062526230e-04,-1.251902236e-04,-5.314428466e-04,-1.130675521e-04,-2.581501424e-04,-3.712176945e-04,-2.460783372e-04,-5.853661665e-05,-3.046149538e-04,-9.125938302e-04,1.144268870e-03,2.316750398e-04,-4.265110511e-04,-2.394461050e-05,-4.504556616e-04,-2.555311968e-04,-2.127837979e-05,-2.768095766e-04,-2.294913563e-04,-6.019641233e-05,-2.896877687e-04,2.254227166e-06,2.537688842e-04,2.560231114e-04,-4.660821450e-04,1.059078266e-03,5.929961212e-04,2.885697424e-04,-2.431632165e-04,4.540652589e-05,1.645410028e-03,-1.904463958e-03,-2.590539291e-04,4.389564552e-04,-8.235086616e-05,3.566055890e-04,1.459532554e-04,2.962545206e-04,4.422077760e-04,9.390176519e-05,3.669023157e-05,1.305919968e-04,7.755662960e-04,-2.649513397e-04,5.106149563e-04,-1.032629845e-04,4.462827233e-05,-5.863471222e-05,-1.150000484e-04,-3.254966818e-05,-1.475497165e-04,7.232287425e-04,-4.562283646e-04,2.670003779e-04,-3.321047127e-04,7.345533054e-05,-2.586493822e-04,-4.316045408e-04,7.004930569e-05,-3.615552351e-04,-4.777878891e-04,4.930988870e-04,1.531099787e-05,4.367145153e-05,2.390192309e-04,2.826906824e-04,3.643183018e-03,-1.374592631e-03,2.268590387e-03,-8.567884647e-04,9.501358604e-04,9.334739571e-05,1.013099170e-03,-8.846397270e-04,1.284594427e-04,-4.621752990e-04,3.292729132e-04,-1.329023859e-04,-1.166861242e-04,3.671738316e-04,2.504877074e-04,2.029849784e-04,2.922135802e-04,4.951985586e-04,1.814301854e-04,1.715336305e-03,1.896766490e-03,8.552358871e-05,6.655404494e-04,7.510640381e-04,2.769553765e-04,1.123408150e-03,1.400363527e-03,1.759373355e-03,-1.178956352e-03,5.804170033e-04
-6.2,-5.832678119e-04,9.607640735e-05,-4.871914046e-04,-4.645642587e-04,5.877917190e-05,-4.057850868e-04,-3.614610764e-04,-8.460869551e-05,-4.460697719e-04,-2.659412131e-04,-1.282239723e-05,-2.787636103e-04,-4.033291592e-04,-1.212067555e-04,-5.245359147e-04,-1.183430419e-04,-2.762123699e-04,-3.945554118e-04,-2.532318381e-04,-5.684937617e-05,-3.100812143e-04,-1.141048929e-03,1.393782219e-03,2.527332891e-04,-4.223127607e-04,-2.066682745e-05,-4.429795882e-04,-2.398060437e-04,-2.355184856e-05,-2.633578922e-04,-2.316749336e-04,-5.608202069e-05,-2.877569543e-04,1.756152505e-05,2.137075196e-04,2.312690447e-04,-1.670825054e-04,9.766674725e-04,8.095849671e-04,3.193005411e-04,-2.624264638e-04,5.687407728e-05,1.674209928e-03,-2.054085000e-03,-3.798750726e-04,4.099017357e-04,-5.282686230e-05,3.570748734e-04,1.844020871e-04,2.789673146e-04,4.633694017e-04,9.875034960e-05,2.933851836e-05,1.280888680e-04,7.400047832e-04,-2.586152309e-04,4.813895523e-04,-1.060769491e-04,5.149082254e-05,-5.458612654e-05,-1.070884657e-04,-3.373584772e-05,-1.408243134e-04,8.002415872e-04,-5.300472675e-04,2.701943196e-04,-3.350264137e-04,7.915906650e-05,-2.558673472e-04,-4.443835929e-04,8.491753454e-05,-3.594660584e-04,-5.228157593e-04,4.957845811e-04,-2.703117821e-05,1.434422278e-05,2.428652836e-04,2.572095064e-04,3.680120067e-03,-1.479359257e-03,2.200760810e-03,-8.718235825e-04,9.552973147e-04,8.347373216e-05,1.006643115e-03,-8.909874912e-04,1.156556234e-04,-4.907064940e-04,3.460886048e-04,-1.446178892e-04,-3.005518642e-05,2.898224304e-04,2.597672440e-04,1.914148035e-04,3.198063492e-04,5.112211527e-04,3.195649385e-05,1.779373191e-03,1.811329684e-03,5.111219048e-05,7.073963148e-04,7.585085053e-04,1.600068899e-04,1.275403227e-03,1.435410116e-03,1.723987577e-03,-1.080491857e-03,6.434957193e-04
-6.1,-5.637131308e-04,9.059702282e-05,-4.731161080e-04,-4.383648954e-04,5.259403262e-05,-3.857708628e-04,-3.594858341e-04,-7.961944279e-05,-4.391052769e-04,-2.685250705e-04,-1.370987375e-05,-2.822349443e-04,-3.991922881e-04,-1.171293066e-04,-5.163215947e-04,-1.249274704e-04,-2.929060355e-04,-4.178335059e-04,-2.605648441e-04,-5.578679680e-05,-3.163516409e-04,-1.355742231e-03,1.622026198e-03,2.662839670e-04,-4.173958279e-04,-1.766412471e-05,-4.350599527e-04,-2.230150825e-04,-2.578224875e-05,-2.487973312e-04,-2.330231244e-04,-5.201624230e-05,-2.850393667e-04,3.583982270e-05,1.686528711e-04,2.044926938e-04,1.501933786e-04,8.799744341e-04,1.030167813e-03,3.474525024e-04,-2.810543895e-04,6.639811291e-05,1.688388303e-03,-2.187033356e-03,-4.986450534e-04,3.782572354e-04,-2.470358253e-05,3.535536529e-04,2.198035963e-04,2.606396972e-04,4.804432935e-04,1.016337412e-04,2.147175893e-05,1.231055001e-04,6.976362265e-04,-2.501020128e-04,4.475342138e-04,-1.093856746e-04,5.763602024e-05,-5.174965435e-05,-9.938634968e-05,-3.454918028e-05,-1.339355300e-04,8.709634548e-04,-5.991066539e-04,2.718568009e-04,-3.363007229e-04,8.453396381e-05,-2.517667591e-04,-4.549775532e-04,9.943495444e-05,-3.555425988e-04,-5.628831711e-04,4.908785877e-04,-7.200458340e-05,-1.582293387e-05,2.455936314e-04,2.297706976e-04,3.692709051e-03,-1.576646311e-03,2.116062741e-03,-8.758954820e-04,9.498772776e-04,7.398179553e-05,9.946956592e-04,-8.936620672e-04,1.010335920e-04,-5.196986820e-04,3.605524517e-04,-1.591462303e-04,5.324106859e-05,2.116660875e-04,2.649071561e-04,1.743102957e-04,3.457556130e-04,5.200659086e-04,-1.234232642e-04,1.832919224e-03,1.709495959e-03,1.162999063e-05,7.488421754e-04,7.604721660e-04,4.185330602e-05,1.419338998e-03,1.461192304e-03,1.678945130e-03,-9.805313312e-04,6.984137991e-04
-6,-5.427541013e-04,8.456779672e-05,-4.581863046e-04,-4.113017347e-04,4.660933646e-05,-3.646923982e-04,-3.564393880e-04,-7.454546094e-05,-4.309848489e-04,-2.707902708e-04,-1.464617222e-05,-2.854364431e-04,-3.937553839e-04,-1.129476817e-04,-5.067030656e-04,-1.327292875e-04,-3.081167726e-04,-4.408460600e-04,-2.679453077e-04,-5.536154906e-05,-3.233068567e-04,-1.554744111e-03,1.827006804e-03,2.722626925e-04,-4.117297648e-04,-1.493803374e-05,-4.266677985e-04,-2.051521095e-04,-2.791766409e-05,-2.330697736e-04,-2.334788896e-04,-4.800450175e-05,-2.814833914e-04,5.677042782e-05,1.190153342e-04,1.757857621e-04,4.796422691e-04,7.712024696e-04,1.250844739e-03,3.729347310e-04,-2.990541845e-04,7.388054657e-05,1.688580019e-03,-2.302219676e-03,-6.136396570e-04,3.446202811e-04,1.485917498e-06,3.461061986e-04,2.520166295e-04,2.413476810e-04,4.933643105e-04,1.024593833e-04,1.314995353e-05,1.156093368e-04,6.485620682e-04,-2.395546557e-04,4.090074125e-04,-1.130409943e-04,6.302200086e-05,-5.001899339e-05,-9.188376681e-05,-3.501986694e-05,-1.269036337e-04,9.349647927e-04,-6.631058460e-04,2.718589467e-04,-3.358744879e-04,8.952569765e-05,-2.463487903e-04,-4.632268729e-04,1.134192303e-04,-3.498076425e-04,-5.976068029e-04,4.785577664e-04,-1.190490365e-04,-4.683143723e-05,2.473194919e-04,2.004880547e-04,3.681980694e-03,-1.667614490e-03,2.014366204e-03,-8.686630963e-04,9.338324731e-04,6.516937677e-05,9.775017715e-04,-8.929448746e-04,8.455689684e-05,-5.485972527e-04,3.721215258e-04,-1.764757269e-04,1.319978472e-04,1.334764917e-04,2.654743389e-04,1.521160380e-04,3.694900267e-04,5.216060647e-04,-2.840940903e-04,1.875760980e-03,1.591666889e-03,-3.312681566e-05,7.897231050e-04,7.565962894e-04,-7.617396492e-05,1.553200764e-03,1.477026799e-03,1.623039467e-03,-8.795297565e-04,7.435097103e-04
-5.9,-5.203935611e-04,7.801791617e-05,-4.423756449e-04,-3.833051327e-04,4.082071832e-05,-3.424844144e-04,-3.522296676e-04,-6.938427130e-05,-4.216139389e-04,-2.726636250e-04,-1.562746015e-05,-2.882910852e-04,-3.869385063e-04,-1.086519456e-04,-4.955904519e-04,-1.416276883e-04,-3.217750606e-04,-4.634027489e-04,-2.752260022e-04,-5.557653881e-05,-3.308025410e-04,-1.736431785e-03,2.007151171e-03,2.707193856e-04,-4.052854068e-04,-1.248800770e-05,-4.177734145e-04,-1.862253892e-04,-2.990696796e-05,-2.161323571e-04,-2.329891547e-04,-4.405150652e-05,-2.770406613e-04,7.994431565e-05,6.531082373e-05,1.452551394e-04,8.150258963e-04,6.525187622e-04,1.467544658e-03,3.956154515e-04,-3.164209041e-04,7.919454743e-05,1.675452653e-03,-2.398714269e-03,-7.232616160e-04,3.095269468e-04,2.529500860e-05,3.348219554e-04,2.809134510e-04,2.211681519e-04,5.020816028e-04,1.011567112e-04,4.442992356e-06,1.055997036e-04,5.929201724e-04,-2.271440455e-04,3.657761269e-04,-1.168883240e-04,6.760788190e-05,-4.928044209e-05,-8.456058214e-05,-3.518607272e-05,-1.197466549e-04,9.918801557e-04,-7.218430901e-04,2.700370656e-04,-3.337093366e-04,9.408230898e-05,-2.396270276e-04,-4.689792325e-04,1.266955858e-04,-3.422836466e-04,-6.267289655e-04,4.591471582e-04,-1.675818073e-04,-7.867183978e-05,2.481662334e-04,1.694943936e-04,3.648955716e-03,-1.753351273e-03,1.895604443e-03,-8.499459362e-04,9.072687411e-04,5.732280493e-05,9.552729235e-04,-8.891361307e-04,6.613679280e-05,-5.768201532e-04,3.802642630e-04,-1.965558902e-04,2.050165603e-04,5.601947933e-05,2.610360396e-04,1.253206755e-04,3.904419900e-04,5.157626655e-04,-4.494356150e-04,1.907816046e-03,1.458380431e-03,-8.324612654e-05,8.297635049e-04,7.465173783e-04,-1.927557850e-04,1.675052679e-03,1.482296894e-03,1.554970836e-03,-7.777756723e-04,7.771951634e-04
-5.8,-4.966418298e-04,7.098138601e-05,-4.256604438e-04,-3.543125942e-04,3.522069128e-05,-3.190919029e-04,-3.467706141e-04,-6.413441405e-05,-4.109050282e-04,-2.740686656e-04,-1.664952998e-05,-2.907181956e-04,-3.786694690e-04,-1.042324052e-04,-4.829018742e-04,-1.514725200e-04,-3.338551939e-04,-4.853277139e-04,-2.822476352e-04,-5.642352056e-05,-3.386711557e-04,-1.899512299e-03,2.161336431e-03,2.618241329e-04,-3.980343028e-04,-1.031118392e-05,-4.083454867e-04,-1.662592340e-04,-3.169997776e-05,-1.979592117e-04,-2.315054572e-04,-4.016095227e-05,-2.716664095e-04,1.048713406e-04,8.152555264e-06,1.130238958e-04,1.150136195e-03,5.260012201e-04,1.676137415e-03,4.153202104e-04,-3.331298762e-04,8.219033411e-05,1.649677859e-03,-2.475748953e-03,-8.260710940e-04,2.734510637e-04,4.636691885e-05,3.198179825e-04,3.063696727e-04,2.001865130e-04,5.065561857e-04,9.768164300e-05,-4.572658797e-06,9.310898420e-05,5.308900369e-04,-2.130689812e-04,3.178210557e-04,-1.207697407e-04,7.135704274e-05,-4.941269797e-05,-7.738751909e-05,-3.509298504e-05,-1.124805041e-04,1.041397661e-03,-7.751885101e-04,2.662091508e-04,-3.297828599e-04,9.815543451e-05,-2.316274254e-04,-4.720909944e-04,1.390983945e-04,-3.329925999e-04,-6.501177902e-04,4.331059399e-04,-2.170118503e-04,-1.113203529e-04,2.482619725e-04,1.369416196e-04,3.594620027e-03,-1.834821472e-03,1.759798554e-03,-8.197215746e-04,8.704370405e-04,5.071546587e-05,9.281885013e-04,-8.825501116e-04,4.563838968e-05,-6.037698297e-04,3.844761710e-04,-2.192936586e-04,2.711290856e-04,-1.996159351e-05,2.511674921e-04,9.444861957e-05,4.080654126e-04,5.025140322e-04,-6.187953094e-04,1.929103386e-03,1.310308077e-03,-1.387080531e-04,8.685752934e-04,7.298672403e-04,-3.066031583e-04,1.783074512e-03,1.476471353e-03,1.473394598e-03,-6.754050073e-04,7.979895908e-04
-5.7,-4.715160467e-04,6.349688808e-05,-4.080191587e-04,-3.242712910e-04,2.979856482e-05,-2.944727262e-04,-3.399840821e-04,-5.879521807e-05,-3.987793001e-04,-2.749259859e-04,-1.770743646e-05,-2.926334223e-04,-3.688852276e-04,-9.967958301e-05,-4.685648106e-04,-1.620871113e-04,-3.443711835e-04,-5.064582949e-04,-2.888427872e-04,-5.788214036e-05,-3.467249275e-04,-2.043022784e-03,2.288897085e-03,2.458743011e-04,-3.899487416e-04,-8.402147732e-06,-3.983508893e-04,-1.452954250e-04,-3.324841304e-05,-1.785438381e-04,-2.289854429e-04,-3.633535016e-05,-2.653207930e-04,1.309934604e-04,-5.176137401e-05,7.923208643e-05,1.478947439e-03,3.936033213e-04,1.872550760e-03,4.318381497e-04,-3.491321215e-04,8.270602821e-05,1.611915173e-03,-2.532728826e-03,-9.208136536e-04,2.368072682e-04,6.443665524e-05,3.012439235e-04,3.282592013e-04,1.785009224e-04,5.067601236e-04,9.201964815e-05,-1.381814911e-05,7.820149904e-05,4.626993463e-04,-1.975562486e-04,2.651430977e-04,-1.245268718e-04,7.424008954e-05,-5.028678225e-05,-7.032850735e-05,-3.479174988e-05,-1.051202572e-04,1.083253702e-03,-8.230583959e-04,2.601953062e-04,-3.240903624e-04,1.017015148e-04,-2.223888476e-04,-4.724297148e-04,1.504719292e-04,-3.219577856e-04,-6.677628581e-04,4.010112039e-04,-2.667516542e-04,-1.447365329e-04,2.477355952e-04,1.029990624e-04,3.519909324e-03,-1.912817698e-03,1.607091625e-03,-7.781289315e-04,8.237288130e-04,4.559988152e-05,8.963945067e-04,-8.734987908e-04,2.289571591e-05,-6.288534492e-04,3.843004538e-04,-2.445529954e-04,3.292180782e-04,-9.375688434e-05,2.354611939e-04,6.005294723e-05,4.218511583e-04,4.819041055e-04,-7.914669701e-04,1.939719104e-03,1.148252134e-03,-1.994001561e-04,9.056772706e-04,7.062771145e-04,-4.164771579e-04,1.875594374e-03,1.459117216e-03,1.376964924e-03,-5.724155268e-04,8.045493971e-04
-5.6,-4.450403931e-04,5.560777570e-05,-3.894326174e-04,-2.931411780e-04,2.454033932e-05,-2.686008387e-04,-3.318024204e-04,-5.336641499e-05,-3.851688354e-04,-2.751539259e-04,-1.879487475e-05,-2.939488007e-04,-3.575339675e-04,-9.498411426e-05,-4.525180817e-04,-1.732761917e-04,-3.533674978e-04,-5.266436895e-04,-2.948411451e-04,-5.991959166e-05,-3.547607368e-04,-2.166304631e-03,2.389603247e-03,2.232986155e-04,-3.810026247e-04,-6.752614016e-06,-3.877552387e-04,-1.233947042e-04,-3.450741102e-05,-1.579021152e-04,-2.253954492e-04,-3.257601821e-05,-2.579714674e-04,1.577006553e-04,-1.136641146e-04,4.403654070e-05,1.795737413e-03,2.571563296e-04,2.052893743e-03,4.449327190e-04,-3.643518933e-04,8.058082569e-05,1.562807135e-03,-2.569256980e-03,-1.006449845e-03,1.999518502e-04,7.933197862e-05,2.792838288e-04,3.464542458e-04,1.562237907e-04,5.026780365e-04,8.418650618e-05,-2.321662906e-05,6.096987712e-05,3.886296696e-04,-1.808589964e-04,2.077706732e-04,-1.280034578e-04,7.623644769e-05,-5.176701012e-05,-6.334432791e-05,-3.433825243e-05,-9.768258034e-05,1.117234355e-03,-8.653975811e-04,2.518367742e-04,-3.166468071e-04,1.046827424e-04,-2.119640647e-04,-4.698778036e-04,1.606714016e-04,-3.092064019e-04,-6.797665286e-04,3.635392618e-04,-3.162272669e-04,-1.788635145e-04,2.467125041e-04,6.784898954e-05,3.425705760e-03,-1.987905113e-03,1.437800647e-03,-7.254733777e-04,7.676685063e-04,4.219512857e-05,8.600027943e-04,-8.622689348e-04,-2.266140460e-06,-6.515098680e-04,3.793532018e-04,-2.721566662e-04,3.782338689e-04,-1.646946577e-04,2.135392112e-04,2.271055445e-05,4.313390513e-04,4.540496057e-04,-9.666741997e-04,1.939817091e-03,9.731428917e-04,-2.651290199e-04,9.405142747e-04,6.753852548e-04,-5.212116700e-04,1.951121716e-03,1.429910046e-03,1.264366096e-03,-4.686799711e-04,7.956861252e-04
-5.5,-4.172471366e-04,4.736211724e-05,-3.698850194e-04,-2.608985631e-04,1.942856831e-05,-2.414699948e-04,-3.221715741e-04,-4.784768402e-05,-3.700192581e-04,-2.746699096e-04,-1.990353572e-05,-2.945734453e-04,-3.445777067e-04,-9.013657804e-05,-4.347142848e-04,-1.848366619e-04,-3.609056601e-04,-5.457423220e-04,-3.000753772e-04,-6.249088753e-05,-3.625662647e-04,-2.268960162e-03,2.463617483e-03,1.946573206e-04,-3.711727879e-04,-5.350980984e-06,-3.765237689e-04,-1.006381258e-04,-3.543715568e-05,-1.360752815e-04,-2.207135584e-04,-2.888314611e-05,-2.495967045e-04,1.843483002e-04,-1.767390295e-04,7.609270715e-06,2.095160093e-03,1.184155718e-04,2.213575665e-03,4.543555771e-04,-3.786862386e-04,7.566933857e-05,1.502987424e-03,-2.585167714e-03,-1.082180289e-03,1.631787806e-04,9.097350220e-05,2.541522828e-04,3.608282571e-04,1.334827454e-04,4.943110024e-04,7.422706467e-05,-3.269693282e-05,4.153013185e-05,3.090209636e-04,-1.632532605e-04,1.457677031e-04,-1.310470772e-04,7.733409456e-05,-5.371298261e-05,-5.639668480e-05,-3.379176243e-05,-9.018844723e-05,1.143181953e-03,-9.021697289e-04,2.410122246e-04,-3.074881174e-04,1.070675109e-04,-2.004206066e-04,-4.643368584e-04,1.695649048e-04,-2.947719536e-04,-6.863317214e-04,3.214446990e-04,-3.648870223e-04,-2.136307709e-04,2.453107289e-04,3.167995799e-05,3.312837188e-03,-2.060358557e-03,1.252478631e-03,-6.622269864e-04,7.029008928e-04,4.067390633e-05,8.190951448e-04,-8.491023057e-04,-3.000716090e-05,-6.712379326e-04,3.693491031e-04,-3.018888295e-04,4.172103712e-04,-2.321410324e-04,1.850693388e-04,-1.698157595e-05,4.361274649e-04,4.191458890e-04,-1.143555499e-03,1.929591219e-03,7.860357202e-04,-3.356213379e-04,9.724689559e-04,6.368476180e-04,-6.197430711e-04,2.008387106e-03,1.388644035e-03,1.134338236e-03,-3.639605913e-04,7.703776448e-04
-5.4,-3.881777242e-04,3.881265271e-05,-3.493650715e-04,-2.275393803e-04,1.444218294e-05,-2.130971974e-04,-3.110540249e-04,-4.223824613e-05,-3.532922710e-04,-2.733923096e-04,-2.102267131e-05,-2.944149809e-04,-3.299947608e-04,-8.512732390e-05,-4.151220847e-04,-1.965662975e-04,-3.670505684e-04,-5.636168658e-04,-3.043863220e-04,-6.553943653e-05,-3.699257586e-04,-2.350812401e-03,2.511451208e-03,1.606388072e-04,-3.604399774e-04,-4.181832705e-06,-3.646218101e-04,-7.712765303e-05,-3.600434192e-05,-1.131319950e-04,-2.149319586e-04,-2.525582058e-05,-2.401877792e-04,2.102748057e-04,-2.401404394e-04,-2.986563367e-05,2.372284399e-03,-2.087468197e-05,2.351409717e-03,4.598644685e-04,-3.920067585e-04,6.785771007e-05,1.433102665e-03,-2.580559647e-03,-1.147456982e-03,1.267178496e-04,9.937118923e-05,2.260890388e-04,3.712587616e-04,1.104222116e-04,4.816809732e-04,6.221371887e-05,-4.219600635e-05,2.001771252e-05,2.242757209e-04,-1.450340538e-04,7.924166706e-05,-1.335098368e-04,7.752821933e-05,-5.598161752e-05,-4.945143870e-05,-3.321358089e-05,-8.266501959e-05,1.161003622e-03,-9.333516849e-04,2.276519373e-04,-2.966711071e-04,1.088303080e-04,-1.878407991e-04,-4.557320427e-04,1.770359883e-04,-2.786960545e-04,-6.877470458e-04,2.755384658e-04,-4.122085800e-04,-2.489572731e-04,2.436376483e-04,-5.319624808e-06,3.182071878e-03,-2.130105381e-03,1.051966496e-03,-5.890235822e-04,6.301754117e-04,4.115182952e-05,7.737360385e-04,-8.341867709e-04,-6.045073239e-05,-6.876197018e-04,3.541223866e-04,-3.334973151e-04,4.452842779e-04,-2.954984268e-04,1.497858511e-04,-5.841039509e-05,4.358817197e-04,3.774713246e-04,-1.321150184e-03,1.909259372e-03,5.881091886e-04,-4.105159107e-04,1.000866668e-03,5.903507568e-04,-7.111523814e-04,2.046392594e-03,1.335240212e-03,9.857125121e-04,-2.579288456e-04,7.277836665e-04
-5.3,-3.578829078e-04,3.001658166e-05,-3.278663261e-04,-1.930811681e-04,9.556358831e-06,-1.835248093e-04,-2.984307232e-04,-3.653660469e-05,-3.349673279e-04,-2.712423828e-04,-2.213900113e-05,-2.933813840e-04,-3.137813180e-04,-7.994634989e-05,-3.937276679e-04,-2.082668940e-04,-3.718599649e-04,-5.801268589e-04,-3.076263262e-04,-6.899744824e-05,-3.766237744e-04,-2.411884365e-03,2.533936254e-03,1.220518886e-04,-3.487887561e-04,-3.225552674e-06,-3.520143088e-04,-5.298519959e-05,-3.618344915e-05,-8.916864874e-05,-2.080575671e-04,-2.169200680e-05,-2.297495739e-04,2.348193512e-04,-3.030155927e-04,-6.819624156e-05,2.622644637e-03,-1.589400695e-04,2.463704568e-03,4.612442093e-04,-4.041628772e-04,5.708133217e-05,1.353843832e-03,-2.555820652e-03,-1.201976820e-03,9.074423373e-05,1.046146930e-04,1.953589268e-04,3.776302072e-04,8.720430706e-05,4.648345142e-04,4.824682775e-05,-5.166009512e-05,-3.413267374e-06,1.348639696e-04,-1.265120014e-04,8.351968177e-06,-1.352487133e-04,7.682043884e-05,-5.842827443e-05,-4.248011762e-05,-3.266574967e-05,-7.514586730e-05,1.170679441e-03,-9.589308873e-04,2.117485540e-04,-2.842719838e-04,1.099513104e-04,-1.743206734e-04,-4.440161447e-04,1.829863260e-04,-2.610298186e-04,-6.843698378e-04,2.266669513e-04,-4.577028865e-04,-2.847519057e-04,2.417868448e-04,-4.296506090e-05,3.034119033e-03,-2.196700819e-03,8.374182147e-04,-5.066523219e-04,5.503321237e-04,4.367980184e-05,7.239936786e-04,-8.176582301e-04,-9.366455156e-05,-7.003344029e-04,3.336403885e-04,-3.666940143e-04,4.617222707e-04,-3.542064759e-04,1.075157948e-04,-1.009512075e-04,4.303418631e-04,3.293906556e-04,-1.498387274e-03,1.879053375e-03,3.806661009e-04,-4.893540448e-04,1.024979031e-03,5.356249861e-04,-7.947164139e-04,2.064467714e-03,1.269751300e-03,8.174642466e-04,-1.501919353e-04,6.672723113e-04
-5.2,-3.264214144e-04,2.103518103e-05,-3.053862334e-04,-1.575632363e-04,4.742560039e-06,-1.528206763e-04,-2.843015846e-04,-3.074047277e-05,-3.150420573e-04,-2.681457486e-04,-2.323690457e-05,-2.913826532e-04,-2.959518380e-04,-7.458326366e-05,-3.705351016e-04,-2.197414476e-04,-3.753785669e-04,-5.951200145e-04,-3.096604608e-04,-7.278594520e-05,-3.824464060e-04,-2.452395729e-03,2.532207613e-03,7.981188322e-05,-3.362062850e-04,-2.458158817e-06,-3.386644438e-04,-2.834985553e-05,-3.595784908e-05,-6.430770461e-05,-2.001108810e-04,-1.818851758e-05,-2.182993985e-04,2.573399775e-04,-3.645270886e-04,-1.071871111e-04,2.842325622e-03,-2.939783035e-04,2.548347318e-03,4.583264118e-04,-4.149844580e-04,4.334195385e-05,1.265977670e-03,-2.511638254e-03,-1.245660585e-03,5.539994358e-05,1.068592574e-04,1.622592009e-04,3.798399237e-04,6.400689209e-05,4.438468158e-04,3.245768450e-05,-6.104487406e-05,-2.858718956e-05,4.133004174e-05,-1.080101156e-04,-6.668007389e-05,-1.361267419e-04,7.521974662e-05,-6.090699533e-05,-3.545996452e-05,-3.220960832e-05,-6.766957284e-05,1.172269477e-03,-9.789078116e-04,1.933616649e-04,-2.703842556e-04,1.104160728e-04,-1.599681828e-04,-4.291733442e-04,1.873382428e-04,-2.418351014e-04,-6.766084907e-04,1.756938891e-04,-5.009146016e-04,-3.209100736e-04,2.398346610e-04,-8.107541262e-05,2.869655347e-03,-2.259353808e-03,6.103015384e-04,-4.160498802e-04,4.642903492e-04,4.824046905e-05,6.699643814e-04,-7.996084468e-04,-1.296440654e-04,-7.091628687e-04,3.080104581e-04,-4.011524106e-04,4.659581551e-04,-4.077479613e-04,5.821019382e-05,-1.439734650e-04,4.193308770e-04,2.753574120e-04,-1.674077524e-03,1.839215284e-03,1.651377605e-04,-5.715765795e-04,1.044033065e-03,4.724564851e-04,-8.699516856e-04,2.062316891e-03,1.192365205e-03,6.287796821e-04,-4.032469683e-05,5.884549852e-04
-5.1,-2.938576736e-04,1.193329400e-05,-2.819243796e-04,-1.210455076e-04,-3.116735876e-08,-1.210766749e-04,-2.686849800e-04,-2.484685434e-05,-2.935318344e-04,-2.640332706e-04,-2.429867824e-05,-2.883319489e-04,-2.765387056e-04,-6.902732828e-05,-3.455660339e-04,-2.307869682e-04,-3.776372080e-04,-6.084241762e-04,-3.103665745e-04,-7.681449408e-05,-3.871810685e-04,-2.472764306e-03,2.507682328e-03,3.491802209e-05,-3.226807094e-04,-1.851331794e-06,-3.245320412e-04,-3.374076146e-06,-3.532061740e-05,-3.869469355e-05,-1.911242325e-04,-1.474090165e-05,-2.058651342e-04,2.772309624e-04,-4.238733530e-04,-1.466423906e-04,3.028055846e-03,-4.241918952e-04,2.603863950e-03,4.510034293e-04,-4.242819047e-04,2.672152460e-05,1.170367647e-03,-2.448991324e-03,-1.278623677e-03,2.081984459e-05,1.063107283e-04,1.271305729e-04,3.778086510e-04,4.101866733e-05,4.188273184e-04,1.501237171e-05,-7.031459817e-05,-5.530222646e-05,-5.569952283e-05,-8.985940486e-05,-1.455589277e-04,-1.360159427e-04,7.274530244e-05,-6.327064022e-05,-2.837379992e-05,-3.190388057e-05,-6.027768049e-05,1.165918649e-03,-9.933033436e-04,1.726153050e-04,-2.551171710e-04,1.102155367e-04,-1.449016344e-04,-4.112229237e-04,1.900370301e-04,-2.211858936e-04,-6.649067554e-04,1.234856957e-04,-5.414210597e-04,-3.573089115e-04,2.378368542e-04,-1.194720573e-04,2.689386431e-03,-2.316997233e-03,3.723891979e-04,-3.182889532e-04,3.730379144e-04,5.474896119e-05,6.117951945e-04,-7.800949723e-04,-1.682997779e-04,-7.139859450e-04,2.774818447e-04,-4.365041002e-04,4.576363373e-04,-4.556605094e-04,1.975827841e-06,-1.868500630e-04,4.027642054e-04,2.159141423e-04,-1.846906787e-03,1.789996223e-03,-5.691056432e-05,-6.565314408e-04,1.057230714e-03,4.006992728e-04,-9.366350907e-04,2.040044534e-03,1.103409443e-03,4.191309553e-04,7.209389813e-05,4.912248534e-04
-5,-2.602597073e-04,2.778728073e-06,-2.574809792e-04,-8.360707701e-05,-4.799704516e-06,-8.840678153e-05,-2.516171739e-04,-1.885218028e-05,-2.704693542e-04,-2.588417111e-04,-2.530463976e-05,-2.841463508e-04,-2.555918652e-04,-6.326755632e-05,-3.188594215e-04,-2.411859326e-04,-3.786558920e-04,-6.198418246e-04,-3.096357319e-04,-8.098079517e-05,-3.906165271e-04,-2.473606144e-03,2.462026451e-03,-1.157969263e-05,-3.082000560e-04,-1.372535706e-06,-3.095725917e-04,2.177982108e-05,-3.427481075e-05,-1.249498967e-05,-1.811408364e-04,-1.134317581e-05,-1.924840122e-04,2.939376572e-04,-4.803044472e-04,-1.863667900e-04,3.177268521e-03,-5.478306036e-04,2.629437918e-03,4.392366497e-04,-4.318454688e-04,7.391180913e-06,1.067980680e-03,-2.369124425e-03,-1.301143745e-03,-1.284476362e-05,1.032112505e-04,9.036648690e-05,3.714930744e-04,1.843410036e-05,3.899271747e-04,-3.885996743e-06,-7.944027907e-05,-8.332627582e-05,-1.555095083e-04,-7.239183816e-05,-2.279013465e-04,-1.348021264e-04,6.943044383e-05,-6.537168260e-05,-2.121087628e-05,-3.180229464e-05,-5.301317092e-05,1.151857404e-03,-1.002167523e-03,1.496898805e-04,-2.385952137e-04,1.093462804e-04,-1.292489333e-04,-3.902231379e-04,1.910528191e-04,-1.991703188e-04,-6.497318157e-04,7.089949827e-05,-5.788323175e-04,-3.938043640e-04,2.358260236e-04,-1.579783404e-04,2.494128194e-03,-2.368381506e-03,1.257466882e-04,-2.145635893e-04,2.776197342e-04,6.305614490e-05,5.497001769e-04,-7.591503159e-04,-2.094501391e-04,-7.147801154e-04,2.424425968e-04,-4.723375186e-04,4.366545871e-04,-4.975535472e-04,-6.089896006e-05,-2.289699332e-04,3.806594499e-04,1.516895166e-04,-2.015430440e-03,1.731654860e-03,-2.837755800e-04,-7.434882113e-04,1.063777979e-03,3.202897681e-04,-9.947976650e-04,1.998154265e-03,1.003356600e-03,1.883621592e-04,1.874368077e-04,3.757989669e-04
-4.9,-2.256980070e-04,-6.358416180e-06,-2.320564232e-04,-4.534522394e-05,-9.600250990e-06,-5.494547493e-05,-2.331523644e-04,-1.275238422e-05,-2.459047486e-04,-2.525146216e-04,-2.623303407e-05,-2.787476557e-04,-2.331788248e-04,-5.729279327e-05,-2.904716181e-04,-2.507004277e-04,-3.784478111e-04,-6.291482388e-04,-3.073739654e-04,-8.517024013e-05,-3.925442056e-04,-2.455733595e-03,2.397111758e-03,-5.862183710e-05,-2.927520386e-04,-9.851784390e-07,-2.937372170e-04,4.694190458e-05,-3.283300111e-05,1.410890347e-05,-1.702151344e-04,-7.987500428e-06,-1.782026349e-04,3.069687536e-04,-5.331329758e-04,-2.261642222e-04,3.288118598e-03,-6.632315363e-04,2.624887062e-03,4.230625567e-04,-4.374481545e-04,-1.438559777e-05,9.598814719e-04,-2.273510906e-03,-1.313629434e-03,-4.540843841e-05,9.782571576e-05,5.241727736e-05,3.608957820e-04,-3.548679820e-06,3.573471022e-04,-2.399834639e-05,-8.839693413e-05,-1.123952805e-04,-2.572937958e-04,-5.593018843e-05,-3.132239843e-04,-1.323908641e-04,6.532670407e-05,-6.706416001e-05,-1.396888743e-05,-3.195117251e-05,-4.592005994e-05,1.130395668e-03,-1.005584666e-03,1.248110016e-04,-2.209582866e-04,1.078107291e-04,-1.131475575e-04,-3.662750732e-04,1.903815079e-04,-1.758935653e-04,-6.315655932e-04,1.877256381e-05,-6.127930293e-04,-4.302311910e-04,2.338099783e-04,-1.964212127e-04,2.284880496e-03,-2.412171771e-03,-1.272912747e-04,-1.061731317e-04,1.791254201e-04,7.295228848e-05,4.839661745e-04,-7.367875971e-04,-2.528214226e-04,-7.116092156e-04,2.034095327e-04,-5.081996829e-04,4.031999036e-04,-5.331289850e-04,-1.299290813e-04,-2.697502036e-04,3.531436501e-04,8.339344648e-05,-2.178070108e-03,1.664454233e-03,-5.136158741e-04,-8.316525352e-04,1.062918216e-03,2.312656813e-04,-1.044696409e-03,1.937526912e-03,8.928305031e-04,-6.321212344e-05,3.059764017e-04,2.427642783e-04
-4.8,-1.902455062e-04,-1.540648518e-05,-2.056519914e-04,-6.374987736e-06,-1.447155858e-05,-2.084654632e-05,-2.133632765e-04,-6.542876175e-06,-2.199061526e-04,-2.450036707e-04,-2.705991274e-05,-2.720635834e-04,-2.093848951e-04,-5.109175624e-05,-2.604766514e-04,-2.590719851e-04,-3.770215061e-04,-6.360934913e-04,-3.035050032e-04,-8.925584928e-05,-3.927608525e-04,-2.420146712e-03,2.314963875e-03,-1.051828371e-04,-2.763245156e-04,-6.488320432e-07,-2.769733477e-04,7.193561934e-05,-3.101595721e-05,4.091966212e-05,-1.584138701e-04,-4.664001080e-06,-1.630778711e-04,3.159076953e-04,-5.817419868e-04,-2.658342915e-04,3.359472481e-03,-7.688535780e-04,2.590618903e-03,4.025981166e-04,-4.408542241e-04,-3.825610748e-05,8.472151368e-04,-2.163809626e-03,-1.316594489e-03,-7.664001923e-05,9.042856678e-05,1.378854755e-05,3.460702970e-04,-2.472721271e-05,3.213430843e-04,-4.505439909e-05,-9.716005438e-05,-1.422144535e-04,-3.601585858e-04,-4.077574390e-05,-4.009343297e-04,-1.287129802e-04,6.050609800e-05,-6.820688221e-05,-6.656313929e-06,-3.238745777e-05,-3.904377170e-05,1.101908429e-03,-1.003671164e-03,9.823726511e-05,-2.023617059e-04,1.056170584e-04,-9.674464747e-05,-3.395257241e-04,1.880442631e-04,-1.514814610e-04,-6.108973731e-04,-3.208808151e-05,-6.429854546e-04,-4.664049194e-04,2.317711691e-04,-2.346337503e-04,2.062877920e-03,-2.447037255e-03,-3.841593347e-04,5.495455455e-06,7.867505166e-05,8.417050711e-05,4.149488020e-04,-7.130037377e-04,-2.980549357e-04,-7.046095416e-04,1.610100753e-04,-5.435994663e-04,3.577726061e-04,-5.622015862e-04,-2.044289801e-04,-3.086434731e-04,3.204559007e-04,1.181242757e-05,-2.333115697e-03,1.588656768e-03,-7.444589287e-04,-9.201771426e-04,1.053964915e-03,1.337877721e-04,-1.086768781e-03,1.859381709e-03,7.726129285e-04,-3.347069289e-04,4.278269030e-04,9.311997408e-05
-4.7,-1.539781037e-04,-2.429312638e-05,-1.782712301e-04,3.317111331e-05,-1.945289559e-05,1.371821772e-05,-1.923416958e-04,-2.185053995e-07,-1.925602012e-04,-2.362703153e-04,-2.775926972e-05,-2.640295850e-04,-1.843131760e-04,-4.465305803e-05,-2.289662340e-04,-2.660270382e-04,-3.743804404e-04,-6.404074787e-04,-2.979726346e-04,-9.309935997e-05,-3.910719946e-04,-2.368013038e-03,2.217700757e-03,-1.503122807e-04,-2.589058853e-04,-3.195505395e-07,-2.592254358e-04,9.657850428e-05,-2.885062156e-05,6.772788271e-05,-1.458166689e-04,-1.360837541e-06,-1.471775064e-04,3.204240591e-04,-6.255907880e-04,-3.051667289e-04,3.390888655e-03,-8.633053635e-04,2.527583292e-03,3.780445507e-04,-4.418310794e-04,-6.378652865e-05,7.311791839e-04,-2.041817036e-03,-1.310637852e-03,-1.062547853e-04,8.129020429e-05,-2.496458106e-05,3.271245531e-04,-4.489556328e-05,2.822289898e-04,-6.676018583e-05,-1.057014395e-04,-1.724616253e-04,-4.631311043e-04,-2.719466351e-05,-4.903257678e-04,-1.237277383e-04,5.506058130e-05,-6.866715700e-05,7.062158789e-07,-3.313734763e-05,-3.243113176e-05,1.066814935e-03,-9.965661757e-04,7.024875943e-05,-1.829750423e-04,1.027787594e-04,-8.019628288e-05,-3.101691670e-04,1.840856837e-04,-1.260834833e-04,-5.882156629e-04,-8.091638390e-05,-6.691320468e-04,-5.021241621e-04,2.296676852e-04,-2.724564770e-04,1.829620669e-03,-2.471724756e-03,-6.421040873e-04,1.189874283e-04,-2.259663570e-05,9.639079265e-05,3.430667075e-04,-6.877858595e-04,-3.447191520e-04,-6.939694470e-04,1.159581390e-04,-5.780113080e-04,3.011943778e-04,-5.847128098e-04,-2.835184320e-04,-3.451375062e-04,2.829439875e-04,-6.219351871e-05,-2.478738467e-03,1.504521100e-03,-9.742173668e-04,-1.008170026e-03,1.036331638e-03,2.816161155e-05,-1.121572891e-03,1.765223247e-03,6.436503557e-04,-6.245819542e-04,5.528856817e-04,-7.169627250e-05
-4.6,-1.169748161e-04,-3.294634543e-05,-1.499211615e-04,7.314411717e-05,-2.458276391e-05,4.856135326e-05,-1.701980781e-04,6.226346620e-06,-1.639717315e-04,-2.262874243e-04,-2.830362604e-05,-2.545910503e-04,-1.580836516e-04,-3.796530035e-05,-1.960489520e-04,-2.712851581e-04,-3.705209538e-04,-6.418061119e-04,-2.907411427e-04,-9.655403621e-05,-3.872951789e-04,-2.300637334e-03,2.107464220e-03,-1.931731132e-04,-2.404846400e-04,4.968568273e-08,-2.404349543e-04,1.206841247e-04,-2.636790223e-05,9.431622243e-05,-1.325149035e-04,1.935506160e-06,-1.305793974e-04,3.202844670e-04,-6.642179813e-04,-3.439335143e-04,3.382593109e-03,-9.453617353e-04,2.437231373e-03,3.496885350e-04,-4.401609425e-04,-9.047240747e-05,6.129918588e-04,-1.909416059e-03,-1.296424200e-03,-1.339072692e-04,7.066346105e-05,-6.324380816e-05,3.042293301e-04,-6.385092159e-05,2.403784085e-04,-8.880637306e-05,-1.139846043e-04,-2.027909774e-04,-5.651733776e-04,-1.540310783e-05,-5.805764854e-04,-1.174228987e-04,4.909916079e-05,-6.832373791e-05,8.086717035e-06,-3.421549273e-05,-2.612877569e-05,1.025557276e-03,-9.844180024e-04,4.113927316e-05,-1.629791733e-04,9.931408112e-05,-6.366509218e-05,-2.784447871e-04,1.785712065e-04,-9.987358066e-05,-5.639978591e-04,-1.269980604e-04,-6.909959195e-04,-5.371713359e-04,2.274359034e-04,-3.097354325e-04,1.586884506e-03,-2.485105090e-03,-8.982205840e-04,2.328007081e-04,-1.235540267e-04,1.092466815e-04,2.688032450e-04,-6.611250996e-04,-3.923218546e-04,-6.799071640e-04,6.902832916e-05,-6.108788348e-04,2.345993991e-04,-6.007342783e-04,-3.661348793e-04,-3.787477395e-04,2.410555708e-04,-1.376921687e-04,-2.613019430e-03,1.412306625e-03,-1.200712805e-03,-1.094698907e-03,1.009556972e-03,-8.514193550e-05,-1.149718197e-03,1.656778572e-03,5.070603756e-04,-9.305821113e-04,6.807771707e-04,-2.498049406e-04
-4.5,-7.931683703e-05,-4.129580401e-05,-1.206126410e-04,1.133812972e-04,-2.989754982e-05,8.348374734e-05,-1.470595809e-04,1.279753484e-05,-1.342620460e-04,-2.150402118e-04,-2.866497361e-05,-2.437051854e-04,-1.308309357e-04,-3.101730361e-05,-1.618482393e-04,-2.745667758e-04,-3.654300097e-04,-6.399967855e-04,-2.817930562e-04,-9.946902717e-05,-3.812620833e-04,-2.219426479e-03,1.986355068e-03,-2.330714106e-04,-2.210478662e-04,5.083627202e-07,-2.205395035e-04,1.440661135e-04,-2.360084473e-05,1.204652688e-04,-1.186085016e-04,5.239775030e-06,-1.133687266e-04,3.153629937e-04,-6.972417983e-04,-3.818788046e-04,3.335447801e-03,-1.013963141e-03,2.321484659e-03,3.179004874e-04,-4.356506374e-04,-1.177501500e-04,4.938673849e-04,-1.768525861e-03,-1.274658476e-03,-1.591845358e-04,5.877251113e-05,-1.004120247e-04,2.776334254e-04,-8.140517573e-05,1.962282497e-04,-1.108754278e-04,-1.219603920e-04,-2.328358198e-04,-6.651993703e-04,-5.552922554e-06,-6.707522928e-04,-1.098121821e-04,4.274378247e-05,-6.706839961e-05,1.544492865e-05,-3.562467341e-05,-2.017974477e-05,9.785835515e-04,-9.673690995e-04,1.121445203e-05,-1.425617237e-04,9.524559530e-05,-4.731612843e-05,-2.446322595e-04,1.715842368e-04,-7.304802271e-05,-5.386979728e-04,-1.696808187e-04,-7.083787915e-04,-5.713103867e-04,2.249941332e-04,-3.463162535e-04,1.336695380e-03,-2.486185413e-03,-1.149490033e-03,3.454055700e-04,-2.230686525e-04,1.223369175e-04,1.927161780e-04,-6.330354797e-04,-4.403193017e-04,-6.626497333e-04,2.103178891e-05,-6.416179444e-04,1.594123123e-04,-6.104620267e-04,-4.510497145e-04,-4.090065843e-04,1.953265785e-04,-2.136800058e-04,-2.733990297e-03,1.312287279e-03,-1.421703018e-03,-1.178792011e-03,9.733236965e-04,-2.054683142e-04,-1.171794215e-03,1.535930097e-03,3.641358819e-04,-1.249710629e-03,8.108080993e-04,-4.389025296e-04
-4.4,-4.108571455e-05,-4.927423510e-05,-9.035994965e-05,1.537104925e-04,-3.543021940e-05,1.182802731e-04,-1.230666538e-04,1.950093131e-05,-1.035657225e-04,-2.025261254e-04,-2.881575327e-05,-2.313418786e-04,-1.027008297e-04,-2.379845046e-05,-1.264992802e-04,-2.755994967e-04,-3.590836354e-04,-6.346831321e-04,-2.711250472e-04,-1.016945001e-04,-3.728195473e-04,-2.125856171e-03,1.856385486e-03,-2.694706851e-04,-2.005794002e-04,1.107635937e-06,-1.994717643e-04,1.665437619e-04,-2.058337763e-05,1.459603842e-04,-1.042017302e-04,8.567433204e-06,-9.563429699e-05,3.056509038e-04,-7.243596443e-04,-4.187087405e-04,3.250916060e-03,-1.068205292e-03,2.182710768e-03,2.831298070e-04,-4.281406021e-04,-1.450107951e-04,3.750029728e-04,-1.621056710e-03,-1.246053737e-03,-1.816047344e-04,4.580674261e-05,-1.357979918e-04,2.476786958e-04,-9.739578407e-05,1.502829117e-04,-1.326468607e-04,-1.295638328e-04,-2.622106935e-04,-7.620933060e-04,2.279009720e-06,-7.598142962e-04,-1.009315835e-04,3.612480749e-05,-6.480677597e-05,2.273644191e-05,-3.735573363e-05,-1.461929172e-05,9.263369413e-04,-9.455437335e-04,-1.920679218e-05,-1.219119149e-04,9.059995293e-05,-3.131196200e-05,-2.090444647e-04,1.632233599e-04,-4.582110481e-05,-5.127336792e-04,-2.083835224e-04,-7.211172016e-04,-6.042828853e-04,2.222467445e-04,-3.820361409e-04,1.081264412e-03,-2.474095926e-03,-1.392831514e-03,4.552656623e-04,-3.200232509e-04,1.352424114e-04,1.154455081e-04,-6.035697683e-04,-4.881242602e-04,-6.424157153e-04,-2.720481164e-05,-6.696205269e-04,7.731740516e-05,-6.142050639e-04,-5.368876587e-04,-4.354548125e-04,1.463693103e-04,-2.890855022e-04,-2.839679911e-03,1.204769753e-03,-1.634910158e-03,-1.259439986e-03,9.274746313e-04,-3.319653543e-04,-1.188305726e-03,1.404647555e-03,2.163418287e-04,-1.578244211e-03,9.419485339e-04,-6.362956772e-04
-4.3,-2.361834856e-06,-5.681874248e-05,-5.918057734e-05,1.939550672e-04,-4.120901926e-05,1.527460480e-04,-9.836912227e-05,2.634232970e-05,-7.202679257e-05,-1.887540928e-04,-2.872960115e-05,-2.174836940e-04,-7.384650865e-05,-1.629903091e-05,-9.014553956e-05,-2.741249474e-04,-3.514459722e-04,-6.255709196e-04,-2.587441558e-04,-1.030865756e-04,-3.618307314e-04,-2.021446833e-03,1.719455966e-03,-3.019908667e-04,-1.790588251e-04,1.899372298e-06,-1.771594528e-04,1.879475236e-04,-1.734947564e-05,1.705980480e-04,-8.939973099e-05,1.193426073e-05,-7.746547026e-05,2.912637418e-04,-7.453488869e-04,-4.540851451e-04,3.131034108e-03,-1.107340268e-03,2.023693841e-03,2.458966134e-04,-4.175145399e-04,-1.716179266e-04,2.575726361e-04,-1.468869877e-03,-1.211297240e-03,-2.006290591e-04,3.192118889e-05,-1.687078702e-04,2.148044913e-04,-1.116900557e-04,1.031144356e-04,-1.538014902e-04,-1.367128630e-04,-2.905143532e-04,-8.547292350e-04,8.096511496e-06,-8.466327235e-04,-9.083638330e-05,2.937693195e-05,-6.145945136e-05,2.991610230e-05,-3.938750256e-05,-9.471400268e-06,8.692489818e-04,-9.190421096e-04,-4.979312773e-05,-1.012159716e-04,8.540774895e-05,-1.580822264e-05,-1.720204010e-04,1.535999366e-04,-1.842046432e-05,-4.864734985e-04,-2.426042765e-04,-7.290777750e-04,-6.358062914e-04,2.190887829e-04,-4.167175085e-04,8.229063382e-04,-2.448070058e-03,-1.625163720e-03,5.608635146e-04,-4.133179049e-04,1.475456097e-04,3.770891754e-05,-5.728246983e-04,-5.351157807e-04,-6.194046419e-04,-7.485724594e-05,-6.942618879e-04,-9.779745831e-06,-6.123708810e-04,-6.221506268e-04,-4.576384326e-04,9.486076780e-05,-3.627776648e-04,-2.928161856e-03,1.090110793e-03,-1.838051063e-03,-1.335603405e-03,8.720269297e-04,-4.635764752e-04,-1.199621417e-03,1.264920613e-03,6.529919521e-05,-1.911796220e-03,1.072850612e-03,-8.389456079e-04
-4.2,3.677553661e-05,-6.387182739e-05,-2.709629078e-05,2.339383571e-04,-4.725621008e-05,1.866821470e-04,-7.312273094e-05,3.332741540e-05,-3.979531554e-05,-1.737439769e-04,-2.838185487e-05,-2.021258318e-04,-4.442525315e-05,-8.510466896e-06,-5.293572004e-05,-2.699080328e-04,-3.424686433e-04,-6.123766761e-04,-2.446665697e-04,-1.035111574e-04,-3.481777271e-04,-1.907751397e-03,1.577353876e-03,-3.303975213e-04,-1.564621556e-04,2.935124659e-06,-1.535270309e-04,2.081229430e-04,-1.393249433e-05,1.941904486e-04,-7.430712398e-05,1.535625218e-05,-5.895087180e-05,2.724422775e-04,-7.600690847e-04,-4.876268071e-04,2.978390181e-03,-1.130802069e-03,1.847588113e-03,2.067792201e-04,-4.037085944e-04,-1.969293743e-04,1.427209509e-04,-1.313741544e-03,-1.171020593e-03,-2.156927190e-04,1.724391622e-05,-1.984488028e-04,1.795365919e-04,-1.241818629e-04,5.535472903e-05,-1.740264295e-04,-1.433086441e-04,-3.173350737e-04,-9.419939885e-04,1.198602640e-05,-9.300079621e-04,-7.960033257e-05,2.263656683e-05,-5.696376573e-05,3.693962671e-05,-4.168668773e-05,-4.747061027e-06,8.077352735e-04,-8.879408104e-04,-8.020553684e-05,-8.065370650e-05,7.970345083e-05,-9.502556710e-07,-1.339192528e-04,1.428358092e-04,8.916556323e-06,-4.602253130e-04,-2.719274637e-04,-7.321527767e-04,-6.655771322e-04,2.154107909e-04,-4.501663413e-04,5.639748625e-04,-2.407436651e-03,-1.843461789e-03,6.607299067e-04,-5.018821328e-04,1.588477739e-04,-3.971568066e-05,-5.409344723e-04,-5.806501530e-04,-5.937944409e-04,-1.211196727e-04,-7.149141136e-04,-9.980001446e-05,-6.054485561e-04,-7.052485706e-04,-4.751123779e-04,4.153091517e-05,-4.335814627e-04,-2.997602410e-03,9.687319837e-04,-2.028870426e-03,-1.406223322e-03,8.071813602e-04,-5.990419616e-04,-1.205941709e-03,1.118696721e-03,-8.724498820e-05,-2.245421588e-03,1.201904491e-03,-1.043517097e-03
-4.1,7.624621814e-05,-7.038215349e-05,5.864064649e-06,2.734871577e-04,-5.358703692e-05,2.199001208e-04,-4.748650690e-05,4.046167787e-05,-7.024829027e-06,-1.575268521e-04,-2.774999393e-05,-1.852768460e-04,-1.459617002e-05,-4.253628113e-07,-1.502153284e-05,-2.627482904e-04,-3.320909179e-04,-5.948392083e-04,-2.289197673e-04,-1.028462117e-04,-3.317659790e-04,-1.786350534e-03,1.431765423e-03,-3.545851110e-04,-1.327642957e-04,4.265129618e-06,-1.284991661e-04,2.269326557e-04,-1.036458277e-05,2.165680729e-04,-5.902881922e-05,1.884985983e-05,-4.017895940e-05,2.495440527e-04,-7.684639028e-04,-5.189198500e-04,2.796087844e-03,-1.138241344e-03,1.657846500e-03,1.663985292e-04,-3.867186555e-04,-2.203201263e-04,3.155589618e-05,-1.157333518e-03,-1.125777622e-03,-2.262518079e-04,1.888725902e-06,-2.243630820e-04,1.424657544e-04,-1.347853484e-04,7.680405967e-06,-1.930214845e-04,-1.492371793e-04,-3.422586639e-04,-1.022814588e-03,1.411569160e-05,-1.008698896e-03,-6.731739516e-05,1.604126324e-05,-5.127613191e-05,4.376358117e-05,-4.420799288e-05,-4.444117122e-07,7.421944983e-04,-8.522969839e-04,-1.101024856e-04,-6.039623499e-05,7.352542996e-05,1.312919497e-05,-9.511521290e-05,1.310604048e-04,3.594519189e-05,-4.342285823e-04,-2.960293353e-04,-7.302579177e-04,-6.932787873e-04,2.111030872e-04,-4.821757001e-04,3.068312958e-04,-2.351638573e-03,-2.044807278e-03,7.534729039e-04,-5.846913127e-04,1.687815912e-04,-1.160132011e-04,-5.080571190e-04,-6.240703201e-04,-5.657456905e-04,-1.652190416e-04,-7.309647321e-04,-1.905502477e-04,-5.939888436e-04,-7.845390913e-04,-4.874517596e-04,-1.284867607e-05,-5.003004357e-04,-3.046309325e-03,8.411334849e-04,-2.205175840e-03,-1.470228369e-03,7.333208504e-04,-7.369075189e-04,-1.207291605e-03,9.678316961e-04,-2.394599088e-04,-2.573754087e-03,1.327321204e-03,-1.246432882e-03
-4,1.159655943e-04,-7.630514157e-05,3.966045278e-05,3.124344337e-04,-6.020907803e-05,2.522253557e-04,-2.162071546e-05,4.775021176e-05,2.612949630e-05,-1.401461948e-04,-2.681423417e-05,-1.669604289e-04,1.548126484e-05,7.962581050e-06,2.344384589e-05,-2.524920324e-04,-3.202413840e-04,-5.727334164e-04,-2.115469756e-04,-1.009828830e-04,-3.125298586e-04,-1.658847703e-03,1.284292081e-03,-3.745556227e-04,-1.079426695e-04,5.937341810e-06,-1.020053277e-04,2.442573883e-04,-6.676352573e-06,2.375810357e-04,-4.367200279e-05,2.243238132e-05,-2.123962147e-05,2.230245369e-04,-7.705604333e-04,-5.475358964e-04,2.587655586e-03,-1.129539153e-03,1.458116433e-03,1.254034157e-04,-3.666066032e-04,-2.412031875e-04,-7.485831045e-05,-1.001174261e-03,-1.076032572e-03,-2.318344741e-04,-1.403049199e-05,-2.458649661e-04,1.042253137e-04,-1.434304668e-04,-3.920515308e-05,-2.105059607e-04,-1.543726371e-04,-3.648785978e-04,-1.096187857e-03,1.473089677e-05,-1.081456960e-03,-5.410519278e-05,9.731055997e-06,-4.437413678e-05,5.034477267e-05,-4.689469688e-05,3.450075787e-06,6.730142375e-04,-8.121560025e-04,-1.391417650e-04,-4.060415029e-05,6.691607926e-05,2.631192897e-05,-5.599209764e-05,1.184073243e-04,6.241522669e-05,-4.086518174e-04,-3.146813185e-04,-7.233331359e-04,-7.185918496e-04,2.060592803e-04,-5.125325693e-04,5.383678288e-05,-2.280280233e-03,-2.226443450e-03,8.378036360e-04,-6.607822708e-04,1.770213653e-04,-1.903535292e-04,-4.743592532e-04,-6.647127824e-04,-5.354096979e-04,-2.064278894e-04,-7.418375873e-04,-2.797936286e-04,-5.785817649e-04,-8.583753935e-04,-4.942703173e-04,-6.747530511e-05,-5.617456224e-04,-3.072783271e-03,7.079102551e-04,-2.364873016e-03,-1.526535949e-03,6.509968887e-04,-8.755390603e-04,-1.203540901e-03,8.140579281e-04,-3.894829733e-04,-2.891175342e-03,1.447232516e-03,-1.443942826e-03
-3.9,1.558408888e-04,-8.160347110e-05,7.423741766e-05,3.506217109e-04,-6.712185725e-05,2.834998536e-04,4.315157105e-06,5.519739378e-05,5.951255088e-05,-1.216595694e-04,-2.555845210e-05,-1.472180215e-04,4.564841891e-05,1.665868756e-05,6.230710647e-05,-2.390446804e-04,-3.068407523e-04,-5.458854327e-04,-1.926118443e-04,-9.782642689e-05,-2.904382712e-04,-1.526855942e-03,1.136463861e-03,-3.903920815e-04,-8.198103603e-05,7.996428038e-06,-7.398460799e-05,2.599972772e-04,-2.896970997e-06,2.571003062e-04,-2.834763951e-05,2.612220749e-05,-2.225432014e-06,1.934096834e-04,-7.664638627e-04,-5.730541792e-04,2.356890425e-03,-1.104785589e-03,1.252104836e-03,8.445998319e-05,-3.435054444e-04,-2.590454612e-04,-1.755114727e-04,-8.466498338e-04,-1.022161306e-03,-2.320831303e-04,-3.038779491e-05,-2.624709252e-04,6.547275329e-05,-1.500613678e-04,-8.458861449e-05,-2.262241498e-04,-1.585828814e-04,-3.848070312e-04,-1.161207281e-03,1.414464533e-05,-1.147062636e-03,-4.010826671e-05,3.850672890e-06,-3.625759382e-05,5.664040123e-05,-4.967980107e-05,6.960600167e-06,6.005845330e-04,-7.675637584e-04,-1.669792254e-04,-2.142522332e-05,5.992196580e-05,3.849674248e-05,-1.693737015e-05,1.050117052e-04,8.807433501e-05,-3.835947427e-04,-3.277499707e-04,-7.113447133e-04,-7.412049134e-04,2.001797323e-04,-5.410251811e-04,-1.926552845e-04,-2.193187044e-03,-2.385842329e-03,9.125597652e-04,-7.292641104e-04,1.832956549e-04,-2.619107334e-04,-4.400036283e-04,-7.019143616e-04,-5.029357861e-04,-2.440761347e-04,-7.470119208e-04,-3.653237419e-04,-5.598351506e-04,-9.251588926e-04,-4.952421871e-04,-1.215260284e-04,-6.167682155e-04,-3.075772317e-03,5.697725281e-04,-2.505999789e-03,-1.574052304e-03,5.609078482e-04,-1.013144456e-03,-1.194446844e-03,6.589711096e-04,-5.354757343e-04,-3.192013836e-03,1.559800948e-03,-1.632212888e-03
-3.8,1.957688143e-04,-8.624755223e-05,1.095212621e-04,3.879017106e-04,-7.431653889e-05,3.135851718e-04,3.016502075e-05,6.280639108e-05,9.297141183e-05,-1.021399706e-04,-2.397143904e-05,-1.261114097e-04,7.574908603e-05,2.566731618e-05,1.014164022e-04,-2.223830133e-04,-2.918043336e-04,-5.141873469e-04,-1.722014411e-04,-9.329781437e-05,-2.654992555e-04,-1.391970938e-03,9.897466173e-04,-4.022243212e-04,-5.487266048e-05,1.048264347e-05,-4.439001702e-05,2.740741300e-04,9.454845231e-07,2.750196145e-04,-1.317020460e-05,2.993877780e-05,1.676857320e-05,1.612627299e-04,-7.563460511e-04,-5.950833212e-04,2.107667126e-03,-1.064233529e-03,1.043433597e-03,4.424299577e-05,-3.176206133e-04,-2.733776175e-04,-2.694643248e-04,-6.950001292e-04,-9.644644540e-04,-2.267794569e-04,-4.703838002e-05,-2.738178369e-04,2.687398323e-05,-1.546365523e-04,-1.277625691e-04,-2.399481964e-04,-1.617368357e-04,-4.016850320e-04,-1.217082755e-03,1.272222088e-05,-1.204360534e-03,-2.549880867e-05,-1.449380558e-06,-2.694818923e-05,6.260977012e-05,-5.248773729e-05,1.012203284e-05,5.253142790e-04,-7.185823860e-04,-1.932681070e-04,-2.991231958e-06,5.259402172e-05,4.960278976e-05,2.166395126e-05,9.100956712e-05,1.126735184e-04,-3.590936182e-04,-3.351931506e-04,-6.942867688e-04,-7.608239228e-04,1.933756594e-04,-5.674482634e-04,-4.303229904e-04,-2.090453193e-03,-2.520776184e-03,9.767288803e-04,-7.893254934e-04,1.874033869e-04,-3.298810937e-04,-4.051410784e-04,-7.350221722e-04,-4.684740388e-04,-2.775625695e-04,-7.460366083e-04,-4.450323807e-04,-5.383583076e-04,-9.833906883e-04,-4.901203292e-04,-1.741718648e-04,-6.642921939e-04,-3.054324220e-03,4.275657851e-04,-2.626758435e-03,-1.611680760e-03,4.638752887e-04,-1.147805471e-03,-1.179708323e-03,5.040331544e-04,-6.756751687e-04,-3.470756930e-03,1.663329912e-03,-1.807427018e-03
-3.7,2.356355847e-04,-9.021600169e-05,1.454195830e-04,4.241415413e-04,-8.177574103e-05,3.423658003e-04,5.577957661e-05,7.057847414e-05,1.263580507e-04,-8.167593832e-05,-2.204822899e-05,-1.037241673e-04,1.056316238e-04,3.499166078e-05,1.406232846e-04,-2.025661169e-04,-2.750433758e-04,-4.776094927e-04,-1.504269181e-04,-8.733613731e-05,-2.377630555e-04,-1.255733721e-03,8.455475003e-04,-4.101862209e-04,-2.662272856e-05,1.343061353e-05,-1.319211503e-05,2.864342208e-04,4.823703445e-06,2.912579242e-04,1.744354801e-06,3.390227204e-05,3.564662685e-05,1.271480245e-04,-7.404288663e-04,-6.132808418e-04,1.843759758e-03,-1.008247801e-03,8.355119569e-04,5.425769202e-06,-2.892254357e-04,-2.837996665e-04,-3.558719064e-04,-5.473143950e-04,-9.031863014e-04,-2.158510549e-04,-6.381804565e-05,-2.796691006e-04,-1.091267436e-05,-1.571302087e-04,-1.680428830e-04,-2.514782995e-04,-1.637124059e-04,-4.151907055e-04,-1.263152525e-03,1.086199886e-05,-1.252290527e-03,-1.047317508e-05,-6.014757575e-06,-1.648793265e-05,6.821710412e-05,-5.523642761e-05,1.298067651e-05,4.476448673e-04,-6.653068784e-04,-2.176620111e-04,1.458541637e-05,4.498771105e-05,5.957312742e-05,5.943463439e-05,7.653889022e-05,1.359735246e-04,-3.351288424e-04,-3.370533365e-04,-6.721821788e-04,-7.771791458e-04,1.855735153e-04,-5.916056305e-04,-6.569167424e-04,-1.972465943e-03,-2.629382686e-03,1.029472078e-03,-8.402437629e-04,1.892283147e-04,-3.935016921e-04,-3.699055552e-04,-7.634072473e-04,-4.321738523e-04,-3.063650862e-04,-7.385389385e-04,-5.169659254e-04,-5.147511522e-04,-1.031717078e-03,-4.787473621e-04,-2.245969657e-04,-7.033443278e-04,-3.007828674e-03,2.822815834e-04,-2.725547090e-03,-1.638345478e-03,3.608228191e-04,-1.277522658e-03,-1.159019732e-03,3.505853095e-04,-8.084344225e-04,-3.722249436e-03,1.756355105e-03,-1.965894331e-03
-3.6,2.753189144e-04,-9.349605145e-05,1.818228630e-04,4.592260355e-04,-8.947368255e-05,3.697523530e-04,8.101985775e-05,7.851221295e-05,1.595320707e-04,-6.037015633e-05,-1.979113073e-05,-8.016128706e-05,1.351511905e-04,4.463333134e-05,1.797845219e-04,-1.797427260e-04,-2.564662596e-04,-4.362089857e-04,-1.274225844e-04,-7.990125966e-05,-2.073238440e-04,-1.119594778e-03,7.052246200e-04,-4.143701580e-04,2.749436618e-06,1.686815089e-05,1.961758750e-05,2.970505319e-04,8.711036271e-06,3.057615682e-04,1.628120354e-05,3.803319429e-05,5.431439783e-05,9.159541490e-05,-7.189662467e-04,-6.273708318e-04,1.568699642e-03,-9.372649176e-04,6.314347245e-04,-3.133337409e-05,-2.586510050e-04,-2.899843791e-04,-4.340114219e-04,-4.045236045e-04,-8.385350264e-04,-1.993642904e-04,-8.054868544e-05,-2.799129758e-04,-4.725347347e-05,-1.575349596e-04,-2.047884330e-04,-2.606416281e-04,-1.644036840e-04,-4.250453121e-04,-1.298889538e-03,8.974957642e-06,-1.289914580e-03,4.755899033e-06,-9.692904307e-06,-4.937005274e-06,7.343405892e-05,-5.783937546e-05,1.559468347e-05,3.680591036e-04,-6.078811370e-04,-2.398220334e-04,3.121409472e-05,3.716294790e-05,6.837704261e-05,9.600920831e-05,6.174107294e-05,1.577502812e-04,-3.116353038e-04,-3.334490291e-04,-6.450843328e-04,-7.900305717e-04,1.767185545e-04,-6.133120171e-04,-8.703132066e-04,-1.839908767e-03,-2.710221973e-03,1.070145002e-03,-8.813995657e-04,1.887454367e-04,-4.520686748e-04,-3.344110701e-04,-7.864797450e-04,-3.941815455e-04,-3.300479387e-04,-7.242294842e-04,-5.793712627e-04,-4.895954419e-04,-1.068966705e-03,-4.610596577e-04,-2.720211529e-04,-7.330808106e-04,-2.936045439e-03,1.350533856e-04,-2.800992053e-03,-1.653029297e-03,2.527583525e-04,-1.400270945e-03,-1.132118127e-03,1.998651484e-04,-9.322529781e-04,-3.941859712e-03,1.837697235e-03,-2.104162477e-03
-3.5,3.146907289e-04,-9.608373169e-05,2.186069972e-04,4.930602174e-04,-9.737679042e-05,3.956834270e-04,1.057599038e-04,8.660272374e-05,1.923626275e-04,-3.833701177e-05,-1.721020759e-05,-5.554721935e-05,1.641713806e-04,5.459184731e-05,2.187632279e-04,-1.541526726e-04,-2.359813930e-04,-3.901340655e-04,-1.033445622e-04,-7.097601229e-05,-1.743205744e-04,-9.848918057e-04,5.701034248e-04,-4.147883810e-04,3.320781120e-05,2.081525999e-05,5.402307119e-05,3.059232810e-04,1.258175330e-05,3.185050343e-04,3.032836598e-05,4.235205225e-05,7.268041823e-05,5.507009111e-05,-6.922302151e-04,-6.371601239e-04,1.285667542e-03,-8.517674577e-04,4.339000842e-04,-6.540755724e-05,-2.262715903e-04,-2.916791476e-04,-5.033126665e-04,-2.673927044e-04,-7.707053709e-04,-1.775107117e-04,-9.704834827e-05,-2.745590600e-04,-8.155501349e-05,-1.558666105e-04,-2.374216240e-04,-2.672915211e-04,-1.637272521e-04,-4.310187733e-04,-1.323905091e-03,7.464750164e-06,-1.316440341e-03,1.997004806e-05,-1.234177821e-05,7.628269847e-06,7.824065643e-05,-6.020767617e-05,1.803298026e-05,2.870833384e-04,-5.465107876e-04,-2.594274492e-04,4.682674410e-05,2.918353289e-05,7.601027700e-05,1.310363651e-04,4.676193721e-05,1.777983023e-04,-2.885162297e-04,-3.245639680e-04,-6.130801977e-04,-7.991734979e-04,1.667768505e-04,-6.323966474e-04,-1.068578731e-03,-1.693753106e-03,-2.762331837e-03,1.098310710e-03,-9.122940639e-04,1.860166464e-04,-5.049542633e-04,-2.987507450e-04,-8.037050082e-04,-3.546384113e-04,-3.482666873e-04,-7.029050987e-04,-6.307320930e-04,-4.634463955e-04,-1.094178489e-03,-4.370873462e-04,-3.157226164e-04,-7.528099626e-04,-2.839117758e-03,-1.286445504e-05,-2.851982213e-03,-1.654816736e-03,1.407574543e-04,-1.514059282e-03,-1.098823476e-03,5.302415177e-05,-1.045799325e-03,-4.125611572e-03,1.906474625e-03,-2.219136947e-03
