Time,S1D1HbO,S1D1HbR,S1D1HbT,S2D2HbO,S2D2HbR,S2D2HbT,S3D3HbO,S3D3HbR,S3D3HbT,S4D4HbO,S4D4HbR,S4D4HbT,S5D5HbO,S5D5HbR,S5D5HbT,S6D6HbO,S6D6HbR,S6D6HbT,S7D7HbO,S7D7HbR,S7D7HbT,S8D8HbO,S8D8HbR,S8D8HbT,S9D9HbO,S9D9HbR,S9D9HbT,S10D10HbO,S10D10HbR,S10D10HbT,S11D11HbO,S11D11HbR,S11D11HbT,S12D12HbO,S12D12HbR,S12D12HbT,S13D13HbO,S13D13HbR,S13D13HbT,S14D14HbO,S14D14HbR,S14D14HbT,S15D15HbO,S15D15HbR,S15D15HbT,S16D16HbO,S16D16HbR,S16D16HbT,S17D17HbO,S17D17HbR,S17D17HbT,S18D18HbO,S18D18HbR,S18D18HbT,S19D19HbO,S19D19HbR,S19D19HbT,S20D20HbO,S20D20HbR,S20D20HbT,S21D21HbO,S21D21HbR,S21D21HbT,S22D22HbO,S22D22HbR,S22D22HbT,S23D23HbO,S23D23HbR,S23D23HbT,S24D24HbO,S24D24HbR,S24D24HbT,S25D25HbO,S25D25HbR,S25D25HbT,S26D26HbO,S26D26HbR,S26D26HbT,S27D27HbO,S27D27HbR,S27D27HbT,S28D28HbO,S28D28HbR,S28D28HbT,S29D29HbO,S29D29HbR,S29D29HbT,S30D30HbO,S30D30HbR,S30D30HbT,S31D31HbO,S31D31HbR,S31D31HbT,S32D32HbO,S32D32HbR,S32D32HbT,S33D33HbO,S33D33HbR,S33D33HbT,S34D34HbO,S34D34HbR,S34D34HbT,S35D35HbO,S35D35HbR,S35D35HbT,S36D36HbO,S36D36HbR,S36D36HbT
0.0,0.0002303393577,-0.0003200649407,-8.972558293e-05,0.001656363846,-0.0001864473591,0.001469916487,-0.000439550074,-0.0005090884521,-0.0009486385262,0.0005191943728,-0.0003070500964,0.0002121442764,0.0002393512752,-0.0004265337478,-0.0001871824726,0.001007298439,-5.804335115e-05,0.0009492550883,0.0001469857458,-0.0004563322024,-0.0003093464565,0.0009958426645,-0.0005239231388,0.0004719195256,-0.0001355150092,-0.0002357770498,-0.0003712920589,0.0005479286824,-0.0002815671263,0.0002663615561,0.0007027752206,-0.0002252270071,0.0004775482135,0.001079034365,-0.0003329629475,0.0007460714176,0.0005813716497,-0.0001353052326,0.0004460664171,0.0005936235421,2.966499352e-05,0.0006232885356,0.001093195081,-0.0003433081318,0.0007498869495,0.0005924670022,-6.122148365e-05,0.0005312455185,-0.0004206548136,0.0006965060887,0.0002758512751,0.0005348064391,-0.0002208335385,0.0003139729006,0.0005667111681,-0.0006749426726,-0.0001082315045,0.0005975902646,-0.0002333048388,0.0003642854258,0.0001992595461,-0.0001469125915,5.234695463e-05,0.0008654424726,-0.000294751178,0.0005706912947,0.0009341241921,-0.0002106319938,0.0007234921983,-0.0003079072598,-0.0005087830392,-0.000816690299,0.0006088185086,-0.0001842422036,0.000424576305,0.0008912762881,-0.0003731642475,0.0005181120407,0.0009955997966,0.0002424971312,0.001238096928,0.000850421909,-0.0001188241112,0.0007315977978,0.0009442212395,7.428927825e-05,0.001018510518,0.001829356807,0.0001617723974,0.001991129204,0.0004646169176,0.000228998987,0.0006936159046,0.001572096176,0.0001478511061,0.001719947282,0.001002474863,5.07802227e-05,0.001053255086,0.001852436439,0.0009613270982,0.002813763538,0.0009512632199,0.0006746673052,0.001625930525,0.001733536504,0.000452838163,0.002186374667
0.1,0.0002166824984,-0.0003180081505,-0.0001013256521,0.001657861861,-0.0001894178863,0.001468443975,-0.0004864607537,-0.0005174318088,-0.001003892563,0.0005122660396,-0.0003104828399,0.0002017831997,0.0002211586372,-0.0004324852018,-0.0002113265646,0.000995051348,-6.68139914e-05,0.0009282373566,0.0001261634419,-0.0004620670018,-0.0003359035599,0.0009942294667,-0.0005374066305,0.0004568228362,-0.0001530971859,-0.0002384550385,-0.0003915522244,0.000538143798,-0.0002869964202,0.0002511473777,0.0007011112922,-0.0002284518816,0.0004726594106,0.00108437698,-0.0003379862394,0.0007463907405,0.0005747493824,-0.0001589865368,0.0004157628456,0.0005669972084,4.537674278e-05,0.0006123739512,0.001085852858,-0.0003495736652,0.0007362791926,0.0005719330585,-6.476960684e-05,0.0005071634517,-0.0004511046791,0.0006605469252,0.0002094422461,0.0005064539082,-0.0002163097865,0.0002901441216,0.0005567074723,-0.0006325720617,-7.586458945e-05,0.0005834113022,-0.000239204613,0.0003442066892,0.0001825724609,-0.0001491826611,3.338979981e-05,0.0008435444269,-0.0002993297939,0.000544214633,0.0009196624668,-0.0002152847526,0.0007043777142,-0.0002951685655,-0.0005008440945,-0.00079601266,0.0006073644482,-0.0001708590183,0.0004365054299,0.0009023412029,-0.0003683845442,0.0005339566587,0.001005953036,0.0002350037989,0.001240956834,0.0008684692913,-0.0001069816638,0.0007614876275,0.000965150809,7.315175109e-05,0.00103830256,0.001856161847,0.0001745658671,0.002030727714,0.0004428739166,0.0002277588889,0.0006706328055,0.001550581322,0.0001584979569,0.001709079279,0.001021885625,3.944266532e-05,0.001061328291,0.001839723201,0.001019153889,0.00285887709,0.0009249644968,0.0006537798625,0.001578744359,0.001697512794,0.0004615256847,0.002159038479
0.2,0.0002048443516,-0.0003150678183,-0.0001102234667,0.001661017848,-0.0001930254557,0.001467992393,-0.0005281588162,-0.0005240743549,-0.001052233171,0.000510109451,-0.0003134392426,0.0001966702085,0.0002070511037,-0.0004379479163,-0.0002308968127,0.0009828670202,-7.597069403e-05,0.0009068963261,0.000108205943,-0.0004669353969,-0.0003587294539,0.0009923192795,-0.0005497826849,0.0004425365945,-0.0001676821455,-0.0002408467854,-0.000408528931,0.0005303186109,-0.0002923772691,0.0002379413418,0.0007014160843,-0.000231561583,0.0004698545013,0.001092598533,-0.0003425187156,0.0007500798178,0.0005688007404,-0.0001828034805,0.0003859972599,0.0005410210767,6.131869887e-05,0.0006023397756,0.001077753465,-0.0003564808665,0.0007212725985,0.0005516878755,-6.895979348e-05,0.000482728082,-0.0004797586033,0.0006226352,0.0001428765967,0.0004779726661,-0.000211842499,0.0002661301671,0.0005440081429,-0.0005869590095,-4.295086661e-05,0.0005707455183,-0.0002449923736,0.0003257531447,0.0001685481216,-0.0001510574837,1.749063791e-05,0.000824073492,-0.00030393608,0.000520137412,0.0009066722078,-0.0002199802933,0.0006866919145,-0.0002777917621,-0.000492047716,-0.0007698394781,0.0006090423959,-0.000157660665,0.0004513817308,0.0009164784041,-0.0003634712596,0.0005530071444,0.001017077842,0.0002271125057,0.001244190348,0.0008903797312,-9.560713883e-05,0.0007947725923,0.0009868906239,7.18107891e-05,0.001058701413,0.001882448307,0.0001856073993,0.002068055706,0.0004211120404,0.0002252997006,0.000646411741,0.001524881094,0.000168006485,0.001692887579,0.001034924421,3.036976715e-05,0.001065294188,0.001819039181,0.001070010777,0.002889049959,0.0008920250477,0.000630125739,0.001522150787,0.001650768555,0.0004668886642,0.002117657219
0.3,0.0001947846016,-0.0003112821913,-0.0001164975897,0.00166597652,-0.0001972241571,0.001468752363,-0.0005646100232,-0.0005290744009,-0.001093684424,0.0005126511583,-0.0003159479698,0.0001967031885,0.0001970871025,-0.0004429718241,-0.0002458847216,0.0009708982849,-8.545077577e-05,0.0008854475091,9.319986347e-05,-0.0004709508103,-0.0003777509468,0.0009903636891,-0.0005611185404,0.0004292451487,-0.0001791978594,-0.0002429677605,-0.0004221656199,0.0005245290669,-0.0002977085614,0.0002268205055,0.000703736267,-0.0002345892115,0.0004691470555,0.001103935386,-0.0003466332174,0.0007573021685,0.0005639952209,-0.0002067859674,0.0003572092536,0.0005158275207,7.741216579e-05,0.0005932396865,0.001069046412,-0.0003639730054,0.0007050734069,0.0005319054704,-7.376346979e-05,0.0004581420006,-0.0005063745383,0.0005830259216,7.665138336e-05,0.000449628217,-0.0002074465069,0.0002421817101,0.0005289204651,-0.0005389045798,-9.984114692e-06,0.0005596811714,-0.0002506342031,0.0003090469682,0.0001572099378,-0.0001525397962,4.670141648e-06,0.0008071201223,-0.0003085403757,0.0004985797466,0.0008953122274,-0.0002247105033,0.000670601724,-0.0002561549312,-0.0004825149534,-0.0007386698846,0.0006138719119,-0.0001446748961,0.0004691970159,0.0009338501853,-0.0003585713003,0.0005752788851,0.001029177275,0.0002187406044,0.001247917879,0.0009160088587,-8.480001491e-05,0.0008312088438,0.001009293679,7.026668957e-05,0.001079560368,0.001908209968,0.000194836508,0.002103046476,0.0003995394585,0.0002216518823,0.0006211913408,0.001495474008,0.000176294384,0.001671768392,0.001041160977,2.403086522e-05,0.001065191842,0.0017910326,0.001113267112,0.002904299712,0.0008528504069,0.0006041010615,0.001456951468,0.001593826675,0.0004689412072,0.002062767882
0.4,0.0001864413163,-0.000306697414,-0.0001202560976,0.001672837055,-0.00020195883,0.001470878225,-0.0005958727511,-0.000532513054,-0.001128385805,0.0005197306702,-0.0003180445704,0.0002016860997,0.0001912522297,-0.0004476097907,-0.0002563575611,0.0009592799026,-9.518652575e-05,0.0008640933768,8.117742641e-05,-0.0004741341264,-0.0003929566999,0.0009886128911,-0.0005714974852,0.0004171154059,-0.0001876271446,-0.0002448357187,-0.0004324628633,0.0005208171069,-0.000302986323,0.000217830784,0.0007080776507,-0.0002375680467,0.000470509604,0.001118577914,-0.000350408639,0.0007681692753,0.0005607371406,-0.0002309224519,0.0003298146888,0.0004915285779,9.358280443e-05,0.0005851113824,0.00105987767,-0.0003719843831,0.0006878932864,0.000512735479,-7.91431601e-05,0.0004335923189,-0.0005307907119,0.0005419991074,1.120839551e-05,0.0004216845393,-0.0002031364765,0.0002185480628,0.0005118026323,-0.0004892406028,2.256202945e-05,0.0005502716256,-0.0002560935623,0.0002941780633,0.0001485432411,-0.0001536356562,-5.092415177e-06,0.0007927189671,-0.0003131138369,0.0004796051301,0.0008856937647,-0.0002294690499,0.0006562247148,-0.00023067659,-0.0004723663119,-0.0007030429019,0.0006218160225,-0.000131915293,0.0004899007296,0.0009545737565,-0.0003538289196,0.0006007448369,0.001042508069,0.0002097439764,0.001252252045,0.0009451827869,-7.465631162e-05,0.0008705264752,0.001032200476,6.851285419e-05,0.00110071333,0.001933423563,0.0002022154478,0.002135639011,0.0003783675329,0.0002168536654,0.0005952211984,0.001462874941,0.0001833029304,0.001646177871,0.001040264675,2.083565121e-05,0.001061100326,0.001756442852,0.001148385384,0.002904828236,0.000807938888,0.0005761230597,0.001384061948,0.001527352654,0.0004677430313,0.001995095685
0.5,0.0001797343836,-0.0003013664583,-0.0001216320747,0.001681652455,-0.000207167078,0.001474485377,-0.0006220924329,-0.0005344915308,-0.001156583964,0.0005311098778,-0.0003197698088,0.000211340069,0.0001894622085,-0.0004519166559,-0.0002624544474,0.0009481242256,-0.000105107279,0.0008430169466,7.211864948e-05,-0.0004765131612,-0.0004043945117,0.0009873084595,-0.0005810153596,0.0004062930999,-0.0001930070379,-0.0002464706574,-0.0004394776953,0.0005191903332,-0.000308203799,0.0002109865342,0.0007144060323,-0.0002405309634,0.000473875069,0.001136661979,-0.0003539281274,0.0007827338512,0.0005593557186,-0.0002551638808,0.0003041918379,0.00046821354,0.0001097608172,0.0005779743572,0.001050384614,-0.0003804418078,0.0006699428065,0.0004942996639,-8.505330901e-05,0.0004092463549,-0.0005529132137,0.0004998503492,-5.306286453e-05,0.0003943993704,-0.0001989282587,0.0001954711116,0.000493056898,-0.0004388114581,5.424543988e-05,0.0005425358665,-0.0002613328525,0.000281203014,0.0001424966818,-0.0001543542964,-1.185761453e-05,0.000780849411,-0.0003176291789,0.0004632202321,0.0008778805256,-0.0002342512652,0.0006436292603,-0.0002018095291,-0.0004617202206,-0.0006635297498,0.0006327843927,-0.0001193821839,0.0005134022089,0.0009787176818,-0.0003493826802,0.0006293350016,0.001057373769,0.0001999227315,0.0012572965,0.000977701238,-6.526683126e-05,0.0009124344067,0.001055442048,6.653636001e-05,0.001121978408,0.001958049725,0.000207729326,0.002165779051,0.0003578047668,0.0002109525683,0.0005687573352,0.001427623791,0.0001889979354,0.001616621727,0.001032013503,2.112278197e-05,0.001053136285,0.001716081621,0.00117493514,0.002891016761,0.0007578681516,0.0005466193409,0.001304487493,0.001452137104,0.000463401646,0.00191553875
0.6,0.000174568748,-0.0002953479547,-0.0001207792067,0.001692429561,-0.0002127810533,0.001479648508,-0.0006434945093,-0.0005351282406,-0.00117862275,0.0005464832691,-0.0003211679155,0.0002253153536,0.0001915673132,-0.0004559481802,-0.000264380867,0.0009375177159,-0.0001151414646,0.0008223762513,6.595452792e-05,-0.0004781221078,-0.0004121675798,0.0009866762952,-0.0005897769614,0.0003968993338,-0.0001954267008,-0.0002478947067,-0.0004433214075,0.0005196225648,-0.0003133516577,0.000206270907,0.0007226494026,-0.0002435098117,0.0004791395908,0.001158263476,-0.0003572780258,0.0008009854502,0.0005600990587,-0.0002794289248,0.0002806701339,0.0004459485416,0.0001258810379,0.0005718295794,0.001040691808,-0.0003892659018,0.0006514259061,0.0004766897783,-9.144118217e-05,0.0003852485961,-0.0005727080377,0.0004568859179,-0.0001158221197,0.0003680181624,-0.0001948394796,0.0001731786828,0.0004731200518,-0.0003884520332,8.46680186e-05,0.0005364600389,-0.0002663149298,0.0002701451091,0.0001389845614,-0.0001547079453,-1.572338387e-05,0.0007714377861,-0.0003220613953,0.0004493763908,0.0008718908904,-0.0002390538686,0.0006328370218,-0.0001700340449,-0.0004506916955,-0.0006207257404,0.0006466369809,-0.0001070640456,0.0005395729354,0.001006299786,-0.0003453622332,0.0006609375527,0.001074112769,0.0001890329508,0.00126314572,0.001013340979,-5.671492193e-05,0.0009566260569,0.001078844822,6.431878465e-05,0.001143163607,0.001982037096,0.0002113855148,0.002193422611,0.0003380517848,0.0002040060948,0.0005420578797,0.001390274833,0.0001933699679,0.0015836448,0.001016301003,2.515211526e-05,0.001041453118,0.001670814285,0.001192605432,0.002863419717,0.0007032799736,0.0005160191505,0.001219299124,0.00136907961,0.0004560716769,0.001825151287
0.7,0.0001708378998,-0.0002887050754,-0.0001178671756,0.001705130244,-0.0002187289724,0.001486401271,-0.0006603758591,-0.0005345558819,-0.001194931741,0.0005654889317,-0.0003222849773,0.0002432039544,0.0001973588423,-0.0004597600312,-0.0002624011889,0.0009275190767,-0.0001252185589,0.0008023005178,6.257168603e-05,-0.0004790011017,-0.0004164294156,0.0009869210166,-0.0005978929494,0.0003890280672,-0.0001950236119,-0.0002491319939,-0.0004441556058,0.0005220558407,-0.0003184182884,0.0002036375523,0.0007327020954,-0.0002465347492,0.0004861673462,0.001183398709,-0.0003605472887,0.0008228514205,0.0005631336752,-0.0003036098456,0.0002595238296,0.0004247796623,0.0001418829257,0.000566662588,0.001030908672,-0.0003983720276,0.000632536644,0.0004599677832,-9.824809889e-05,0.0003617196843,-0.0005901999727,0.0004134243378,-0.0001767756349,0.0003427674665,-0.0001908892673,0.0001518781992,0.000452449147,-0.0003389624226,0.0001134867244,0.0005320002204,-0.0002710042764,0.0002609959441,0.0001378905164,-0.0001547115301,-1.68210137e-05,0.0007643618819,-0.0003263883554,0.0004379735265,0.0008677027082,-0.0002438745986,0.0006238281096,-0.0001358499766,-0.0004393912459,-0.0005752412226,0.0006631883482,-9.493869143e-05,0.0005682496568,0.001037288358,-0.0003418850291,0.0006954033289,0.001093083721,0.000176802547,0.001269886268,0.001051862448,-4.907434229e-05,0.001002788106,0.001102238332,6.183684236e-05,0.001164075174,0.00200532968,0.0002132124536,0.002218542134,0.0003192981451,0.0001960815144,0.0005153796595,0.0013513877,0.0001964337268,0.001547821427,0.0009931417979,3.310059961e-05,0.001026242398,0.001621544746,0.00120121353,0.002822758276,0.0006448654779,0.0004847460696,0.001129611548,0.001279175096,0.0004459518372,0.001725126933
0.8,0.0001684280502,-0.000281504628,-0.0001130765779,0.00171967427,-0.0002249364128,0.001494737857,-0.0006730947677,-0.0005329186792,-0.001206013447,0.000587720459,-0.0003231676162,0.0002645528428,0.0002065779265,-0.0004634069113,-0.0002568289848,0.0009181593568,-0.0001352708259,0.0007828885309,6.181865015e-05,-0.0004791959038,-0.0004173772537,0.0009882223877,-0.000605477692,0.0003827446956,-0.0001919781452,-0.0002502085034,-0.0004421866486,0.0005264040416,-0.0003233901711,0.0002030138705,0.0007444310291,-0.0002496335014,0.0004947975277,0.001212031022,-0.0003638268489,0.0008482041733,0.0005685510887,-0.0003275795097,0.000240971579,0.0004047394459,0.000157710508,0.0005624499539,0.001021129498,-0.0004076709379,0.0006134585599,0.0004441686,-0.0001054109647,0.0003387576353,-0.0006054760457,0.0003698034791,-0.0002356725665,0.0003188488738,-0.0001870974369,0.0001317514369,0.0004315022683,-0.0002910810365,0.0001404212318,0.0005290865996,-0.0002753678614,0.0002537187382,0.0001390726201,-0.0001543823223,-1.530970218e-05,0.0007594579695,-0.0003305912913,0.0004288666782,0.0008652603454,-0.0002487118516,0.0006165484937,-9.976752591e-05,-0.0004279240676,-0.0005276915935,0.0006822136538,-8.297442919e-05,0.0005992392246,0.001071607744,-0.0003390533195,0.0007325544246,0.001114650195,0.000162949445,0.00127759964,0.001093020611,-4.240774531e-05,0.001050612865,0.001125464943,5.90628532e-05,0.001184527796,0.002027875799,0.000213258323,0.002241134122,0.0003017208398,0.0001872549542,0.000488975794,0.001311519435,0.0001982269109,0.001509746346,0.0009626737894,4.506260862e-05,0.001007736398,0.0015692049,0.001200708804,0.002769913704,0.0005833523334,0.0004532109823,0.001036563316,0.001183500367,0.0004332818921,0.001616782259
0.9,0.000167222918,-0.0002738163716,-0.0001065934536,0.001735943839,-0.0002313275524,0.001504616287,-0.0006820598039,-0.0005303697431,-0.001212429547,0.0006127394571,-0.0003238619975,0.0002888774595,0.0002189260852,-0.0004669418414,-0.0002480157562,0.0009094437556,-0.0001452347732,0.0007642089823,6.351320687e-05,-0.0004787575843,-0.0004152443774,0.0009907335459,-0.0006126480633,0.0003780854825,-0.000186507126,-0.0002511519464,-0.0004376590724,0.0005325576199,-0.0003282523561,0.0002043052638,0.0007576833239,-0.0002528306037,0.0005048527202,0.001244080962,-0.0003672084134,0.0008768725482,0.0005763806227,-0.0003511996874,0.0002251809353,0.0003858549478,0.0001733122322,0.00055916718,0.00101143535,-0.0004170697028,0.000594365647,0.0004293046095,-0.0001128639368,0.0003164406727,-0.0006186888161,0.0003263884776,-0.0002923003385,0.0002964344731,-0.0001834837325,0.0001129507406,0.0004107183726,-0.000245459601,0.0001652587716,0.0005276287659,-0.0002793759658,0.0002482528001,0.0001423693377,-0.0001537396762,-1.137033846e-05,0.0007565296531,-0.0003346552584,0.0004218743946,0.0008644827715,-0.0002535643735,0.000610918398,-6.229759459e-05,-0.0004163894956,-0.0004786870902,0.0007034570493,-7.113195087e-05,0.0006323250984,0.001109147497,-0.0003369519678,0.0007721955288,0.001139164636,0.0001472009732,0.001286365609,0.001136578156,-3.676624663e-05,0.001099811909,0.001148389073,5.596549163e-05,0.001204354565,0.002049636396,0.000211589666,0.002261226062,0.0002854836142,0.0001776101593,0.0004630937734,0.001271216369,0.0001988088918,0.001470025261,0.0009251554561,6.105383856e-05,0.0009862092946,0.001514746925,0.001191172489,0.002705919414,0.0005194937793,0.000421804721,0.0009412985004,0.0010831983,0.0004183408712,0.001501539171
1.0,0.000167108475,-0.0002657124126,-9.860393763e-05,0.001753789061,-0.0002378265338,0.001515962527,-0.0006877182083,-0.0005270684607,-0.001214786669,0.0006400878253,-0.0003244131616,0.0003156746637,0.0002340761669,-0.0004704155643,-0.0002363393974,0.0009013543487,-0.0001550523928,0.0007463019558,6.744982145e-05,-0.0004777421178,-0.0004102922963,0.0009945800856,-0.0006195223866,0.000375057699,-0.0001788572,-0.000251991616,-0.000430848816,0.00054038847,-0.0003329890842,0.0002073993858,0.0007722940209,-0.0002561467183,0.0005161473025,0.001279435729,-0.0003707826112,0.0009086531177,0.000586604011,-0.0003743295682,0.0002122744428,0.0003681547308,0.0001886405943,0.0005567953251,0.00100189689,-0.0004264736614,0.0005754232282,0.0004153702752,-0.000120539934,0.0002948303412,-0.0006300559023,0.0002835746148,-0.0003464812875,0.0002756641424,-0.0001800675203,9.559662208e-05,0.0003905017393,-0.0002026438192,0.0001878579201,0.000527521196,-0.0002830030941,0.0002445181018,0.0001476053411,-0.0001528049132,-5.199572112e-06,0.0007553572731,-0.0003385695307,0.0004167877424,0.0008652712272,-0.0002584309793,0.000606840248,-2.394259565e-05,-0.0004048806256,-0.0004288232213,0.0007266416445,-5.936720573e-05,0.0006672744388,0.001149772487,-0.0003356474871,0.0008141250003,0.001166950457,0.0001293128577,0.001296263315,0.001182316904,-3.219013873e-05,0.001150126765,0.001170903424,5.251110431e-05,0.001223414528,0.002070590708,0.0002082898889,0.002278880597,0.0002707360428,0.0001672371593,0.0004379732021,0.001231005077,0.0001982591802,0.001429264257,0.0008809594119,8.101557608e-05,0.0009619749879,0.001459135192,0.001172814839,0.002631950031,0.0004540579891,0.0003908907035,0.0008449486926,0.0009794589993,0.0004014456547,0.001380904654
1.1,0.0001679768892,-0.0002572665426,-8.928965339e-05,0.001773033444,-0.0002443590747,0.001528674369,-0.0006905442771,-0.0005231778271,-0.001213722104,0.0006692988713,-0.0003248646939,0.0003444341774,0.0002516823448,-0.0004738760325,-0.0002221936877,0.0008938529051,-0.0001646723088,0.0007291805963,7.340623422e-05,-0.0004762098975,-0.0004028036632,0.000999859123,-0.0006262186835,0.0003736404395,-0.0001692986586,-0.0002527581545,-0.0004220568132,0.0005497540741,-0.0003375844776,0.0002121695965,0.0007880927658,-0.0002595980769,0.0005284946889,0.001317955037,-0.0003746370382,0.0009433179986,0.0005991664446,-0.0003968329163,0.0002023335283,0.0003516728381,0.0002036514997,0.0005553243378,0.0009925772498,-0.0004357898074,0.0005567874424,0.0004023452814,-0.0001283717343,0.0002739735472,-0.0006398552316,0.0002417836361,-0.0003980715956,0.0002566444123,-0.000176868001,7.977641129e-05,0.0003712142408,-0.0001630622258,0.0002081520151,0.0005286478749,-0.0002862287768,0.0002424190981,0.0001545963319,-0.0001516012535,2.995078388e-06,0.000755706744,-0.0003423277585,0.0004133789855,0.0008675155025,-0.0002633102704,0.0006042052321,1.481165899e-05,-0.0003934840075,-0.0003786723485,0.0007514791827,-4.763470115e-05,0.0007038444815,0.001193331265,-0.0003351884293,0.0008581428358,0.001198281824,0.000109085944,0.001307367768,0.001230043774,-2.871014305e-05,0.001201333631,0.001192931054,4.866545381e-05,0.001241596508,0.002090738098,0.0002034577834,0.002294195881,0.0002576116189,0.0001562308088,0.0004138424277,0.001191382276,0.0001966755283,0.001388057804,0.0008305638413,0.0001048172348,0.000935381076,0.00140333565,0.001145970371,0.002549306021,0.0003878157896,0.0003607986983,0.0007486144879,0.0008734986437,0.0003829485375,0.001256447181
1.2,0.000169729265,-0.0002485535011,-7.882423611e-05,0.001793478832,-0.0002508543902,0.001542624442,-0.0006910279777,-0.0005188616783,-0.001209889656,0.0006999066709,-0.0003252587301,0.0003746479408,0.0002713884967,-0.000477367967,-0.0002059794703,0.0008868832957,-0.0001740508499,0.0007128324458,8.11488326e-05,-0.0004742251993,-0.0003930763667,0.00100663807,-0.0006328522159,0.0003737858542,-0.0001581200001,-0.0002534831486,-0.0004116031488,0.0005605005043,-0.0003420231521,0.0002184773522,0.0008049088745,-0.0002631960418,0.0005417128327,0.001359472652,-0.0003788546667,0.0009806179858,0.0006139813766,-0.0004185830435,0.0001953983331,0.0003364489045,0.0002183035091,0.0005547524135,0.000983534296,-0.0004449313799,0.0005386029161,0.0003901956144,-0.0001362927996,0.0002539028147,-0.0006484180247,0.000201457648,-0.0004469603768,0.0002394484706,-0.0001739050247,6.554344593e-05,0.0003531743838,-0.0001270243995,0.0002261499843,0.0005308855083,-0.0002890380372,0.0002418474711,0.0001631525644,-0.0001501536984,1.299886596e-05,0.0007573372308,-0.000345927803,0.0004114094277,0.0008710985267,-0.0002682003801,0.0006028981466,5.350278474e-05,-0.0003822793808,-0.000328776596,0.0007776783411,-3.589111085e-05,0.0007417872303,0.001239661173,-0.0003356069539,0.0009040542188,0.001233363192,8.637949715e-05,0.001319742689,0.001279590447,-2.634840419e-05,0.001253242042,0.001214423476,4.439559498e-05,0.001258819071,0.002110096035,0.0001972061258,0.002307302161,0.0002462247143,0.0001446889782,0.0003909136925,0.001152804177,0.0001941714282,0.001346975606,0.0007745417111,0.0001322578325,0.0009067995436,0.001348302933,0.00111109001,0.002459392943,0.0003215254357,0.0003318210779,0.0006533465136,0.0007665373836,0.0003632327637,0.001129770147
1.3,0.0001722771795,-0.0002396482436,-6.737106408e-05,0.001814909746,-0.000257247366,0.00155766238,-0.0006896639703,-0.0005142818448,-0.001203945815,0.0007314535816,-0.0003256362108,0.0004058173708,0.0002928349152,-0.0004809324714,-0.0001880975562,0.000880373405,-0.0001831529436,0.0006972204613,9.043676595e-05,-0.0004718555684,-0.0003814188025,0.001014953212,-0.0006395327799,0.0003754204322,-0.000145623188,-0.0002541985314,-0.0003998217194,0.0005724643288,-0.0003462906742,0.0002261736546,0.0008225747786,-0.0002669467774,0.0005556280012,0.001403794196,-0.0003835124164,0.00102028178,0.0006309296166,-0.0004394659338,0.0001914636828,0.000322524783,0.0002325571659,0.0005550819489,0.0009748217225,-0.0004538227839,0.0005209989386,0.0003788730696,-0.000144238201,0.0002346348686,-0.0006561217422,0.0001630549076,-0.0004930668346,0.0002241167911,-0.000171200531,5.291626016e-05,0.0003366590376,-9.472804649e-05,0.0002419309911,0.0005341054862,-0.0002914215626,0.0002426839236,0.0001730812717,-0.0001484888879,2.459238379e-05,0.0007600075312,-0.0003493713589,0.0004106361723,0.0008758995029,-0.0002730987969,0.000602800706,9.169740659e-05,-0.0003713394614,-0.0002796420548,0.0008049518174,-2.409996095e-05,0.0007808518565,0.001288590216,-0.0003369211901,0.0009516690255,0.001272312126,6.112102843e-05,0.001333433154,0.001330808535,-2.511908877e-05,0.001305689446,0.001235355828,3.967166889e-05,0.001275027497,0.002128695432,0.0001896601336,0.002318355566,0.0002366668498,0.0001327103023,0.0003693771521,0.001115676411,0.00019087266,0.001306549071,0.0007135469259,0.000163067826,0.000876614752,0.001294965827,0.00106872927,0.002363695098,0.0002559149929,0.0003042117316,0.0005601267245,0.000659777727,0.0003427054872,0.001002483214
1.4,0.0001755432233,-0.0002306252747,-5.508205136e-05,0.001837097309,-0.0002634807066,0.001573616602,-0.0006869411785,-0.0005095952935,-0.001196536472,0.0007634962018,-0.0003260372323,0.0004374589695,0.0003156637049,-0.0004846066729,-0.000168942968,0.0008742367865,-0.0001919527524,0.0006822840341,0.0001010250235,-0.000469171077,-0.0003681460535,0.001024808154,-0.0006463619433,0.0003784462105,-0.0001321193266,-0.0002549358756,-0.0003870552021,0.0005854738366,-0.000350373917,0.0002350999196,0.0008409283076,-0.0002708510658,0.0005700772418,0.001450692613,-0.0003886794325,0.001062013181,0.0006498549679,-0.0004593824547,0.0001904725132,0.0003099391964,0.0002463744793,0.0005563136757,0.0009664887147,-0.0004624037163,0.0005040849984,0.000368314062,-0.0001521457489,0.000216168313,-0.0006633838042,0.000127046755,-0.0005363370493,0.0002106576964,-0.0001687801543,4.187754211e-05,0.0003219047159,-6.627285314e-05,0.0002556318627,0.0005381751584,-0.0002933757967,0.0002447993618,0.0001841884759,-0.0001466349939,3.755348194e-05,0.0007634813397,-0.0003526635158,0.0004108178239,0.0008817961692,-0.0002780022621,0.0006037939071,0.0001289957681,-0.0003607297731,-0.000231734005,0.0008330222211,-1.223733907e-05,0.000820784882,0.001339936704,-0.0003391378486,0.001000798855,0.001315147793,3.331303975e-05,0.001348460833,0.001383563222,-2.502917379e-05,0.001358534048,0.001255720748,3.446840461e-05,0.001290189153,0.002146575103,0.0001809555306,0.002327530633,0.0002290030283,0.0001203918029,0.0003493948313,0.001080345678,0.0001869127558,0.001267258434,0.0006482967139,0.0001969128353,0.0008452095492,0.001244210123,0.001019534248,0.002263744371,0.0001916647894,0.0002781861609,0.0004698509503,0.0005543841966,0.000321788353,0.0008761725496
1.5,0.0001794608887,-0.0002215580138,-4.209712503e-05,0.001859803,-0.0002695067406,0.001590296259,-0.0006833328608,-0.0005049513388,-0.0011882842,0.0007956102944,-0.0003265013878,0.0004691089066,0.0003395235225,-0.0004884233865,-0.000148899864,0.000868374486,-0.0002004340759,0.0006679404102,0.000112666996,-0.0004662434718,-0.0003535764759,0.001036172232,-0.0006534301961,0.0003827420359,-0.0001179242859,-0.0002557257034,-0.0003736499893,0.0005993502602,-0.0003542614172,0.0002450888431,0.0008598145268,-0.0002749043024,0.0005849102243,0.001499903984,-0.000394415128,0.001105488856,0.0006705596187,-0.0004782506643,0.0001923089544,0.0002987226303,0.0002597185404,0.0005584411707,0.0009585786889,-0.0004706318623,0.0004879468266,0.0003584386556,-0.0001599572056,0.00019848145,-0.0006706553638,9.391121206e-05,-0.0005767441518,0.0001990474813,-0.0001666742707,3.237321062e-05,0.0003091077349,-4.16777271e-05,0.0002674300078,0.0005429590649,-0.0002949031183,0.0002480559466,0.0001962807394,-0.0001446215985,5.165914093e-05,0.0007675318099,-0.0003558122652,0.0004117195447,0.0008886669364,-0.0002829066964,0.00060576024,0.0001650358644,-0.0003505084886,-0.0001854726242,0.0008616263341,-2.969967836e-07,0.0008613293373,0.001393508213,-0.0003422545228,0.00105125369,0.001361785391,3.036750545e-06,0.001364822141,0.001437728236,-2.608004929e-05,0.001411648187,0.00127552291,2.876607532e-05,0.001304288985,0.002163777033,0.0001712362034,0.002335013237,0.0002232689902,0.000107826873,0.0003310958632,0.001047093731,0.000182427751,0.001229521482,0.00057955039,0.0002334013014,0.0008129516914,0.001196858208,0.0009642279588,0.002161086167,0.0001293929208,0.0002539210637,0.0003833139845,0.0004514648735,0.0003009061263,0.0007523709999
1.6,0.0001839743198,-0.0002125180989,-2.854377908e-05,0.001882782588,-0.0002752887544,0.001607493833,-0.0006792869195,-0.0005004890026,-0.001179775922,0.0008273952781,-0.0003270680854,0.0005003271927,0.000364074503,-0.0004924108497,-0.0001283363467,0.0008626774879,-0.0002085905874,0.0006540869005,0.00012511729,-0.0004631453102,-0.0003380280201,0.001048979256,-0.0006608140399,0.0003881652164,-0.0001033537652,-0.0002565968904,-0.0003599506556,0.0006139097359,-0.0003579437586,0.0002559659773,0.0008790879036,-0.0002790966608,0.0005999912428,0.001551127155,-0.0004007675132,0.001150359641,0.0006928027598,-0.0004960092785,0.0001967934813,0.00028889459,0.0002725532614,0.0005614478515,0.0009511282958,-0.0004784842437,0.0004726440521,0.0003491507912,-0.0001676196863,0.0001815311049,-0.0006784132466,6.412020027e-05,-0.0006142930463,0.0001892306886,-0.0001649181692,2.431251941e-05,0.0002984225339,-2.089658924e-05,0.0002775259447,0.0005483206687,-0.0002960120636,0.0002523086051,0.0002091673979,-0.0001424794281,6.668796975e-05,0.0007719460073,-0.0003588278806,0.0004131181267,0.0008963935808,-0.0002878071454,0.0006085864353,0.0001994976423,-0.0003407262615,-0.0001412286193,0.0008905182364,1.170644284e-05,0.0009022246793,0.001449101577,-0.0003462613467,0.00110284023,0.001412035517,-2.954684192e-05,0.001382488675,0.001493184312,-2.826997642e-05,0.001464914336,0.001294775926,2.255078365e-05,0.00131732671,0.002180343813,0.0001606516978,0.00234099551,0.0002194702246,9.510369146e-05,0.0003145739161,0.001016133946,0.0001775508385,0.001193684784,0.0005080869128,0.0002720969657,0.0007801838785,0.001153647492,0.0009035974458,0.002057244937,6.964553986e-05,0.0002315528937,0.0003011984336,0.0003520558618,0.0002804733279,0.0006325291897
1.7,0.000189038472,-0.0002035745845,-1.453611245e-05,0.001905790691,-0.0002808019365,0.001624988755,-0.0006752162668,-0.0004963345879,-0.001171550855,0.0008584787781,-0.000327776858,0.0005307019201,0.0003889940486,-0.0004965925902,-0.0001075985415,0.0008570300652,-0.0002164259181,0.0006406041471,0.0001381354078,-0.0004599491393,-0.0003218137314,0.001063126973,-0.0006685730028,0.0003945539706,-8.871755035e-05,-0.000257576166,-0.0003462937163,0.0006289664134,-0.0003614139474,0.000267552466,0.0008986152874,-0.0002834133648,0.0006152019226,0.001604029155,-0.0004077720754,0.00119625708,0.0007163043746,-0.0005126228067,0.0002036815679,0.0002804641094,0.0002848432347,0.000565307344,0.0009441674805,-0.0004859573528,0.0004582101277,0.0003403404741,-0.0001750875314,0.0001652529427,-0.0006871483401,3.812169912e-05,-0.000649026641,0.0001811218033,-0.0001635515869,1.757021641e-05,0.0002899566474,-3.827935151e-06,0.0002861287122,0.0005541248354,-0.0002967174278,0.0002574074077,0.0002226636039,-0.000140239921,8.242368288e-05,0.0007765297061,-0.0003617222248,0.0004148074813,0.0009048646782,-0.0002926978017,0.0006121668764,0.000232107435,-0.0003314260737,-9.931863871e-05,0.0009194729706,2.373576003e-05,0.0009432087306,0.001506505449,-0.0003511421662,0.001155363282,0.001465608242,-6.419769201e-05,0.00140141055,0.001549821496,-3.159676621e-05,0.001518224729,0.001313502155,1.581418527e-05,0.00132931634,0.0021963189,0.0001493547974,0.002345673697,0.0002175829456,8.230384206e-05,0.0002998867877,0.0009876106908,0.0001724073955,0.001160018086,0.0004346847774,0.0003125348283,0.0007472196057,0.0011152107,0.0008384807844,0.001953691484,1.289140764e-05,0.0002111762533,0.000224067661,0.0002571091058,0.0002608790472,0.000517988153
1.8,0.000194619874,-0.0001947930985,-1.732244868e-07,0.001928586016,-0.0002860340386,0.001642551977,-0.0006714895768,-0.0004925995361,-0.001164089113,0.0008885212866,-0.0003286676354,0.0005598536512,0.0004139834163,-0.0005009874537,-8.700403742e-05,0.000851313889,-0.0002239535558,0.0006273603332,0.0001514902077,-0.0004567266606,-0.000305236453,0.001078477206,-0.000676746607,0.0004017305989,-7.431328271e-05,-0.000258687691,-0.0003330009737,0.0006443364089,-0.0003646677477,0.0002796686613,0.0009182794836,-0.0002878350353,0.0006304444484,0.001658254641,-0.0004154509878,0.001242803653,0.0007407530849,-0.0005280869337,0.0002126661512,0.0002734323573,0.0002965536477,0.000569986005,0.0009377201026,-0.0004930658082,0.0004446542945,0.000331887902,-0.000182324554,0.000149563348,-0.0006973511498,1.632091814e-05,-0.0006810302316,0.0001746090375,-0.0001626179399,1.199109763e-05,0.0002837621864,9.68329923e-06,0.0002934454857,0.0005602407685,-0.0002970401958,0.0002632005727,0.0002365939829,-0.000137934749,9.865923383e-05,0.0007811123351,-0.0003645081722,0.0004166041629,0.0009139791631,-0.0002975721516,0.0006164070115,0.0002626421113,-0.0003226431541,-6.00010428e-05,0.0009482916917,3.572992337e-05,0.0009840216151,0.001565505895,-0.0003568757649,0.00120863013,0.001522123087,-0.0001005995054,0.001421523582,0.001607543314,-3.605978804e-05,0.001571483526,0.001331734148,8.552873173e-06,0.001340287021,0.002211749123,0.0001374991165,0.00234924824,0.0002175561834,6.95012573e-05,0.0002870574407,0.0009616011503,0.0001671108137,0.001128711964,0.0003601063235,0.0003542378868,0.0007143442103,0.001082059892,0.0007697533314,0.001851813223,-4.048155874e-05,0.0001928437826,0.0001523622239,0.0001674823214,0.000242471366,0.0004099536874
1.9,0.0002006975229,-0.0001862350499,1.446247302e-05,0.001950936702,-0.0002909857785,0.001659950923,-0.0006684232962,-0.0004893786459,-0.001157801942,0.000917220373,-0.0003297809117,0.0005874394613,0.0004387740744,-0.0005056097624,-6.683568802e-05,0.0008454122739,-0.0002311965383,0.0006142157356,0.0001649642948,-0.0004535477968,-0.0002885835021,0.001094856285,-0.000685351744,0.0004095045407,-6.042053615e-05,-0.0002599527,-0.0003203732362,0.0006598416917,-0.0003677039966,0.0002921376951,0.0009379824488,-0.000292338152,0.0006456442968,0.001713435037,-0.0004238124198,0.001289622617,0.0007658148941,-0.0005424313074,0.0002233835867,0.0002677947952,0.0003076501628,0.000575444958,0.0009318037818,-0.0004998393187,0.0004319644631,0.0003236685579,-0.0001893061519,0.000134362406,-0.0007094970434,-9.370251268e-07,-0.0007104340685,0.0001695595384,-0.0001621633747,7.396163767e-06,0.0002798258359,1.984863797e-05,0.0002996744739,0.0005665446538,-0.0002970073885,0.0002695372653,0.00025079616,-0.0001355954218,0.0001152007382,0.0007855511582,-0.0003671992754,0.0004183518829,0.0009236489044,-0.000302423221,0.0006212256833,0.0002909319695,-0.000314404998,-2.347302851e-05,0.0009768072155,4.760319477e-05,0.00102441041,0.001625893721,-0.0003634375637,0.001262456158,0.001581125062,-0.0001383660472,0.001442759015,0.001666269391,-4.166054446e-05,0.001624608846,0.001349515534,7.67704347e-07,0.001350283239,0.002226687481,0.0001252365971,0.002351924078,0.0002193137625,5.676190782e-05,0.0002760756703,0.0009381186711,0.0001617595151,0.001099878186,0.0002850864837,0.0003967319216,0.0006818184054,0.001054574414,0.0006983129501,0.001752887364,-9.016958179e-05,0.0001765684898,8.639890804e-05,8.392920397e-05,0.000225543365,0.000309472569
2.0,0.0002072630509,-0.0001779569226,2.930612826e-05,0.001972624794,-0.0002956709195,0.001676953874,-0.0006662758025,-0.0004867487205,-0.001153024523,0.000944313607,-0.0003311577712,0.0006131558358,0.0004631324284,-0.0005104695603,-4.733713184e-05,0.0008392137548,-0.000238186943,0.0006010268117,0.0001783573103,-0.0004504796951,-0.0002721223848,0.001112055642,-0.0006943812365,0.0004176744055,-4.729601538e-05,-0.0002613891854,-0.0003086852007,0.0006753129509,-0.0003705248913,0.0003047880596,0.0009576469696,-0.0002968956868,0.0006607512828,0.001769193631,-0.0004328499138,0.001336343718,0.0007911407455,-0.0005557183499,0.0002354223956,0.0002635407066,0.0003180987217,0.0005816394283,0.0009264281187,-0.00050631849,0.0004201096287,0.0003155578182,-0.0001960208783,0.0001195369399,-0.0007240315453,-1.338393768e-05,-0.0007374154829,0.000165824611,-0.0001622356295,3.588981524e-06,0.0002780603842,2.693870529e-05,0.0003049990895,0.0005729211884,-0.0002966518187,0.0002762693697,0.0002651232937,-0.0001332529569,0.0001318703368,0.0007897336703,-0.0003698095848,0.0004199240854,0.0009337994271,-0.0003072438438,0.0006265555834,0.0003168615756,-0.0003067314594,1.013011616e-05,0.001004887947,5.924487212e-05,0.001064132819,0.001687471004,-0.0003708017434,0.001316669261,0.001642103197,-0.0001770505758,0.001465052622,0.00172593343,-4.840138422e-05,0.001677532046,0.001366899612,-7.536667809e-06,0.001359362945,0.002241193956,0.0001127152604,0.002353909216,0.0002227554702,4.414433189e-05,0.0002668998021,0.0009171169231,0.0001564350847,0.001073552008,0.0002103240432,0.0004395578068,0.00064988185,0.001032991439,0.0006250646603,0.0016580561,-0.0001359560775,0.0001623277586,2.637168113e-05,7.089102296e-06,0.0002103218524,0.0002174109547
2.1,0.0002143195389,-0.0001700096628,4.430987604e-05,0.001993449013,-0.0003001159467,0.001693333067,-0.0006652440674,-0.0004847676475,-0.001150011715,0.0009695796417,-0.0003328397815,0.0006367398602,0.0004868620231,-0.0005155729111,-2.871088801e-05,0.0008326143898,-0.0002449651556,0.0005876492342,0.0001914875156,-0.0004475857651,-0.0002560982495,0.001129832862,-0.0007038041604,0.0004260287014,-3.517030079e-05,-0.0002630115747,-0.0002981818754,0.0006905909046,-0.0003731361564,0.0003174547482,0.0009772162142,-0.0003014778798,0.0006757383343,0.001825145224,-0.0004425417284,0.001382603496,0.0008163733444,-0.000568039256,0.0002483340884,0.0002606495021,0.0003278653014,0.0005885148035,0.0009215916637,-0.0005125507413,0.0004090409225,0.0003074337,-0.0002024712679,0.0001049624321,-0.0007413536203,-2.084585359e-05,-0.0007621994739,0.0001632436891,-0.0001628825691,3.611200478e-07,0.0002783003631,3.128199916e-05,0.0003095823623,0.0005792634813,-0.0002960115855,0.0002832518958,0.000279445085,-0.0001309375201,0.0001485075649,0.0007935776956,-0.0003723533402,0.0004212243554,0.0009443685552,-0.0003120269037,0.0006323416515,0.0003403682956,-0.0002996348665,4.073342912e-05,0.001032439012,7.051974139e-05,0.001102958753,0.001750054464,-0.0003789434143,0.00137111105,0.001704506401,-0.0002161560446,0.001488350356,0.001786475576,-5.628258718e-05,0.001730192989,0.001383945165,-1.635205139e-05,0.001367593114,0.002255333038,0.0001000776569,0.002355410695,0.0002277574575,3.170049681e-05,0.0002594579543,0.0008984945672,0.0001512010568,0.001049695624,0.0001364720358,0.0004822841729,0.0006187562087,0.001017398056,0.0005509053435,0.001568303399,-0.0001777135097,0.0001500677455,-2.764576424e-05,-6.252356601e-05,0.0001969594039,0.0001344358379
2.2,0.0002218789263,-0.0001624381884,5.944073791e-05,0.00201322562,-0.0003043593018,0.001708866319,-0.0006654626519,-0.0004834738549,-0.001148936507,0.0009928374257,-0.0003348687592,0.0006579686665,0.0005098031563,-0.0005209222121,-1.111905577e-05,0.0008255185835,-0.0002515788875,0.000573939696,0.0002041916283,-0.0004449247688,-0.0002407331405,0.001147913508,-0.0007135680531,0.0004343454548,-2.424609991e-05,-0.0002648303546,-0.0002890764545,0.0007055260288,-0.0003755469675,0.0003299790613,0.0009966512471,-0.0003060530642,0.0006905981828,0.001880891466,-0.0004528500988,0.001428041368,0.000841154304,-0.0005795087889,0.0002616455151,0.0002590846911,0.0003369157012,0.0005960003923,0.0009172787224,-0.0005185873435,0.0003986913789,0.000299177012,-0.000208673597,9.050341499e-05,-0.0007617969395,-2.325805113e-05,-0.0007850549906,0.000161646322,-0.0001641501165,-2.503794466e-06,0.0002803023561,3.325953476e-05,0.0003135618909,0.0005854713723,-0.000295129202,0.0002903421703,0.000293647271,-0.0001286780201,0.0001649692509,0.0007970293579,-0.0003748443272,0.0004221850307,0.0009553033753,-0.0003167655522,0.0006385378231,0.0003614388313,-0.0002931201319,6.831869945e-05,0.00105940061,8.126916447e-05,0.001140669775,0.001813474567,-0.0003878404433,0.001425634124,0.001767754727,-0.0002551456972,0.00151260903,0.001847830659,-6.529894173e-05,0.001782531717,0.001400709929,-2.566690011e-05,0.001375043029,0.00226916822,8.745995974e-05,0.00235662818,0.000234172477,1.947615305e-05,0.00025364863,0.0008821001896,0.000146102096,0.001028202286,6.412585821e-05,0.0005245226267,0.0005886484849,0.001007726692,0.0004767077009,0.001484434393,-0.0002154034571,0.0001397075532,-7.569590391e-05,-0.0001245290524,0.0001855302237,6.100117133e-05
2.3,0.0002299583747,-0.0001552810301,7.467734462e-05,0.002031787683,-0.0003084501752,0.001723337508,-0.0006670046747,-0.000482886075,-0.00114989075,0.001013943905,-0.0003372863733,0.0006766575314,0.0005318304516,-0.0005265164624,5.313989179e-06,0.0008178386117,-0.000258081916,0.0005597566957,0.0002163232733,-0.0004425499083,-0.000226226635,0.001165993766,-0.0007236026946,0.0004423910713,-1.469765217e-05,-0.0002668516605,-0.0002815493127,0.0007199771487,-0.0003777695946,0.0003422075541,0.00101592712,-0.0003105884823,0.0007053386381,0.001936014976,-0.0004637207361,0.00147229424,0.000865131457,-0.000590259423,0.000274872034,0.0002587871889,0.0003452155046,0.0006040026935,0.0009134568552,-0.0005244814523,0.0003889754029,0.000290669377,-0.0002146562996,7.601307735e-05,-0.0007856116494,-2.06739866e-05,-0.000806285636,0.000160852296,-0.0001660795489,-5.227252855e-06,0.0002837483933,3.329696488e-05,0.0003170453582,0.0005914487761,-0.0002940504672,0.0002973983089,0.0003076300854,-0.0001265017511,0.0001811283344,0.0008000596328,-0.0003772949463,0.0004227646865,0.0009665563594,-0.0003214533982,0.0006451029612,0.0003801044659,-0.0002871848459,9.291961995e-05,0.001085744255,9.13129521e-05,0.001177057207,0.001877570743,-0.0003974746839,0.001480096059,0.001831248508,-0.0002934562192,0.001537792289,0.001909915667,-7.543748753e-05,0.00183447818,0.001417242669,-3.546630182e-05,0.001381776367,0.002282754712,7.499147778e-05,0.00235774619,0.0002418306902,7.510141262e-06,0.0002493408315,0.0008677373053,0.0001411638075,0.001008901113,-6.187258899e-06,0.0005659421865,0.0005597549276,0.001003756412,0.0004033022953,0.001407058707,-0.0002490742938,0.0001311426067,-0.0001179316871,-0.0001786889437,0.000176029426,-2.659517755e-06
2.4,0.0002385761188,-0.0001485700161,9.000610272e-05,0.00204898347,-0.000312446864,0.001736536606,-0.0006698843331,-0.0004830033928,-0.001152887726,0.001032790785,-0.00034013354,0.0006926572447,0.0005528493126,-0.0005323514397,2.049787285e-05,0.0008094933649,-0.000264532585,0.0005449607799,0.000227750716,-0.000440507912,-0.000212757196,0.001183743818,-0.0007338247441,0.0004499190735,-6.670770221e-06,-0.0002690769328,-0.000275747703,0.0007338096863,-0.0003798188462,0.0003539908401,0.001035028517,-0.0003150510883,0.0007199774284,0.001990075998,-0.0004750830617,0.001514992936,0.0008879659652,-0.0006004352691,0.0002875306961,0.0002596699483,0.0003527303806,0.0006124003289,0.000910075512,-0.0005302864179,0.0003797890941,0.0002817906312,-0.0002204572972,6.133333398e-05,-0.0008129473767,-1.326843391e-05,-0.0008262158106,0.0001606709767,-0.0001687047013,-8.033724543e-06,0.0002882507885,3.18552122e-05,0.0003201060007,0.0005971009643,-0.0002928232766,0.0003042776877,0.0003213063995,-0.0001244341301,0.0001968722693,0.0008026604668,-0.0003797151731,0.0004229452937,0.0009780817139,-0.0003260846369,0.000651997077,0.0003964359043,-0.0002818193255,0.0001146165789,0.001111467971,0.0001004521614,0.001211920132,0.001942184526,-0.0004078325066,0.001534352019,0.001894378292,-0.0003305137139,0.001563864578,0.001972619951,-8.667758892e-05,0.001885942362,0.001433575332,-4.573152065e-05,0.001387843812,0.002296131831,6.279462918e-05,0.00235892646,0.0002505414678,-4.167189853e-06,0.000246374278,0.0008551693902,0.0001363937098,0.0009915631001,-7.401175202e-05,0.0006062763619,0.0005322646099,0.001005119081,0.0003314596119,0.001336578693,-0.0002788558585,0.0001242464643,-0.0001546093943,-0.000224907535,0.0001683747504,-5.653278456e-05
2.5,0.0002477475289,-0.0001423298855,0.0001054176434,0.002064674856,-0.0003164147343,0.001748260122,-0.0006740604207,-0.0004838056006,-0.001157866021,0.001049301062,-0.0003434496315,0.0007058514301,0.0005727923956,-0.0005384197994,3.437259623e-05,0.000800407062,-0.0002709921972,0.0005294148648,0.0002383547555,-0.0004388382391,-0.0002004834836,0.001200812112,-0.0007441423812,0.000456669731,-2.829677243e-07,-0.0002715027577,-0.0002717857254,0.0007468944614,-0.0003817114149,0.0003651830465,0.00105394605,-0.0003194083369,0.0007345377128,0.002042615074,-0.0004868516062,0.001555763468,0.0009093401223,-0.0006101871941,0.0002991529283,0.0002616158889,0.0003594268558,0.0006210427448,0.0009070662427,-0.0005360542386,0.0003710120041,0.0002724171396,-0.0002261208787,4.629626092e-05,-0.000843835595,-1.339270242e-06,-0.0008451748652,0.0001609012819,-0.0001720497416,-1.114845973e-05,0.0002933582396,2.941965908e-05,0.0003227778987,0.0006023326534,-0.0002914964521,0.0003108362013,0.0003346002296,-0.0001224984476,0.000212101782,0.000804841329,-0.0003821115432,0.0004227297857,0.000989833027,-0.0003306540653,0.0006591789617,0.0004105384478,-0.0002770066185,0.0001335318292,0.001136591952,0.0001084727215,0.001245064673,0.002007153282,-0.0004189045961,0.001588248686,0.001956536343,-0.0003657497168,0.001590786626,0.002035800387,-9.899293305e-05,0.001936807454,0.001449717036,-5.643918014e-05,0.001393277856,0.002309316914,5.098519817e-05,0.002360302112,0.0002600964724,-1.553591949e-05,0.000244560553,0.0008441251567,0.0001317837362,0.0009759088929,-0.000138958432,0.0006453200642,0.0005063616322,0.001011306953,0.0002618767484,0.001273183701,-0.0003049512399,0.0001188713013,-0.0001860799387,-0.0002632277191,0.0001624108472,-0.0001008168719
2.6,0.0002574822342,-0.0001365778487,0.0001209043855,0.002078736607,-0.0003204238824,0.001758312725,-0.0006794403502,-0.0004852539677,-0.001164694318,0.001063425972,-0.0003472715904,0.0007161543815,0.0005916170506,-0.0005447111724,4.690587811e-05,0.0007905086435,-0.000277523389,0.0005129852545,0.0002480275173,-0.0004375725534,-0.000189545036,0.001216831009,-0.0007544594373,0.0004623715719,4.376608194e-06,-0.0002741209501,-0.0002697443419,0.0007591075904,-0.0003834651734,0.000375642417,0.001072673874,-0.0003236289413,0.0007490449323,0.002093163735,-0.0004989288923,0.001594234842,0.0009289671048,-0.0006196706348,0.0003092964701,0.0002644801047,0.0003652736115,0.0006297537163,0.0009043448401,-0.0005418346472,0.000362510193,0.0002624218525,-0.0002316944806,3.072737189e-05,-0.0008781707445,1.468815412e-05,-0.0008634825904,0.0001613332387,-0.0001761276802,-1.479444148e-05,0.0002985645488,2.648695962e-05,0.0003250515084,0.0006070473554,-0.0002901185522,0.0003169288032,0.000347446028,-0.000120715523,0.000226730505,0.0008066264515,-0.00038448629,0.0004221401616,0.001001762871,-0.000335156951,0.0006666059197,0.0004225476571,-0.0002727225766,0.0001498250805,0.001161155859,0.0001151498018,0.001276305661,0.002072306987,-0.0004306850677,0.001641621919,0.002017129498,-0.0003986158097,0.001618513688,0.002099282075,-0.0001123539651,0.00198692811,0.001465651081,-6.756047187e-05,0.001398090609,0.002322302494,3.967219429e-05,0.002361974688,0.0002702743098,-2.658832199e-05,0.0002436859878,0.000834304706,0.0001273138854,0.0009616185914,-0.000200693556,0.0006829191189,0.0004822255629,0.00102168103,0.0001951712033,0.001216852234,-0.0003276263379,0.0001148486564,-0.0002127776815,-0.0002938231753,0.0001579173931,-0.0001359057823
2.7,0.0002677827986,-0.0001313232516,0.000136459547,0.002091056932,-0.0003245465987,0.001766510334,-0.0006858847734,-0.000487292586,-0.001173177359,0.001075142643,-0.0003516330247,0.0007235096186,0.0006093038357,-0.0005512123309,5.809150483e-05,0.000779732112,-0.0002841884371,0.0004955436749,0.0002566721859,-0.0004367345277,-0.0001800623418,0.001231424115,-0.0007646790815,0.000466745033,7.247101e-06,-0.000276918868,-0.000269671767,0.0007703312456,-0.0003850984506,0.000385232795,0.001091208179,-0.0003276836365,0.0007635245429,0.002141261651,-0.000511209789,0.001630051862,0.0009466022236,-0.0006290460746,0.000317556149,0.0002680953069,0.0003702431829,0.0006383384897,0.0009018151268,-0.0005476751348,0.000354139992,0.0002516762397,-0.0002372253977,1.445084195e-05,-0.0009156931497,3.42547013e-05,-0.0008814384483,0.0001617514239,-0.0001809394768,-1.918805288e-05,0.0003033226384,2.354752175e-05,0.0003268701601,0.0006111478261,-0.0002887367047,0.0003224111214,0.0003597886562,-0.0001191033084,0.0002406853478,0.0008080521547,-0.0003868368843,0.0004212152704,0.001013824139,-0.0003395887554,0.0006742353834,0.0004326248958,-0.0002689361815,0.0001636887143,0.001185217626,0.0001202529326,0.001305470559,0.002137468805,-0.0004431701064,0.001694298698,0.002075593165,-0.0004285987949,0.001646994371,0.00216286376,-0.0001267298976,0.002036133862,0.001481334706,-7.906060919e-05,0.001402274096,0.002335056828,2.895689105e-05,0.002364013719,0.0002808463733,-3.732988986e-05,0.0002435164834,0.00082538708,0.0001229560144,0.0009483430944,-0.000258926736,0.00071895667,0.000460029934,0.001035482932,0.0001318802491,0.001167363181,-0.0003471977835,0.0001119920554,-0.0002352057282,-0.0003169887097,0.0001546216159,-0.0001623670938
2.8,0.0002786446344,-0.0001265674542,0.0001520771802,0.002101538901,-0.0003288547287,0.001772684172,-0.0006932135058,-0.0004898503852,-0.001183063891,0.001084452147,-0.0003565632777,0.0007278888697,0.000625855177,-0.0005579074131,6.794776386e-05,0.0007680174739,-0.0002910474209,0.0004769700529,0.0002642029177,-0.0004363399389,-0.0001721370211,0.001244214829,-0.0007747073564,0.0004695074729,8.294912736e-06,-0.0002798799184,-0.0002715850056,0.000780454362,-0.0003866293519,0.0003938250101,0.001109545277,-0.0003315460513,0.0007779992259,0.002186475021,-0.0005235871329,0.001662887888,0.0009620530413,-0.0006384806503,0.000323572391,0.0002722779474,0.0003743136867,0.0006465916341,0.0008993734578,-0.000553621787,0.0003457516708,0.0002400535589,-0.0002427575988,-2.704039852e-06,-0.0009559793484,5.666471826e-05,-0.0008993146302,0.0001619399402,-0.0001864738169,-2.45338767e-05,0.0003070651466,2.106340974e-05,0.0003281285563,0.000614536923,-0.0002873956845,0.0003271412385,0.0003715834455,-0.0001176766103,0.0002539068352,0.0008091631504,-0.0003891562521,0.0004200068983,0.001025972055,-0.0003439447452,0.0006820273095,0.0004409518316,-0.0002656102375,0.0001753415941,0.001208852316,0.0001235517303,0.001332404046,0.002202457875,-0.0004563564459,0.001746101429,0.002131405121,-0.0004552380836,0.001676167037,0.002226325572,-0.0001420904899,0.002084235082,0.001496700168,-9.089847082e-05,0.001405801698,0.00234752575,1.893144721e-05,0.002366457197,0.0002915825565,-4.777907269e-05,0.0002438034838,0.0008170386275,0.0001186771005,0.000935715728,-0.0003134010237,0.0007533396856,0.0004399386619,0.001051852325,7.246317466e-05,0.0011243155,-0.0003640201219,0.0001101021013,-0.0002539180206,-0.000333129538,0.0001522140621,-0.0001809154759
2.9,0.0002900562758,-0.0001223038759,0.0001677523999,0.002110101677,-0.0003334170562,0.001776684621,-0.0007012133617,-0.0004928437408,-0.001194057103,0.001091377356,-0.0003620864558,0.0007292909003,0.0006412929401,-0.0005647781521,7.651478804e-05,0.0007553116455,-0.0002981563449,0.0004571553006,0.0002705439994,-0.0004363970025,-0.0001658530031,0.001254834873,-0.0007844565626,0.0004703783105,7.511080304e-06,-0.0002829842106,-0.0002754731303,0.0007893723706,-0.0003880751861,0.0004012971846,0.001127678135,-0.0003351937661,0.0007924843692,0.002228410707,-0.0005359583113,0.001692452395,0.0009751851733,-0.0006481492956,0.0003270358777,0.0002768327596,0.0003774701603,0.00065430292,0.0008969127811,-0.0005597205573,0.0003371922237,0.0002274321811,-0.0002483290156,-2.089683455e-05,-0.0009984451143,8.109340516e-05,-0.0009173517092,0.0001616880259,-0.0001927078639,-3.101983799e-05,0.0003092280011,1.944596166e-05,0.0003286739628,0.0006171180195,-0.0002861373992,0.0003309806203,0.0003827956453,-0.0001164470283,0.000266348617,0.0008100070737,-0.0003914337047,0.0004185733689,0.001038165589,-0.0003482195572,0.0006899460316,0.0004477233903,-0.0002627023741,0.0001850210162,0.001232149441,0.0001248218964,0.001356971338,0.002267091717,-0.0004702399573,0.00179685176,0.002184096504,-0.0004781434423,0.001705953062,0.002289435711,-0.0001584077976,0.002131027914,0.001511655788,-0.0001030263983,0.00140862939,0.002359633883,9.677664946e-06,0.002369311548,0.0003022555508,-5.796567924e-05,0.0002442898715,0.0008089209001,0.000114442039,0.0009233629391,-0.0003638876124,0.0007859882595,0.0004221006471,0.00106984918,1.730419273e-05,0.001087153372,-0.0003784737152,0.0001089737522,-0.000269499963,-0.0003427493747,0.0001503653087,-0.000192384066
3.0,0.0003019992158,-0.0001185180865,0.0001834811293,0.002116680718,-0.0003382968441,0.001778383873,-0.0007096478663,-0.0004961795028,-0.001205827369,0.001095960184,-0.0003682204612,0.0007277397229,0.0006556542578,-0.000571804068,8.385018973e-05,0.000741568818,-0.0003055654592,0.0004360033587,0.0002756278191,-0.0004369069363,-0.0001612791172,0.001262931602,-0.00079384819,0.0004690834115,4.907003263e-06,-0.0002862092854,-0.0002813022822,0.0007969855921,-0.0003894519875,0.0004075336046,0.00114559121,-0.0003386094913,0.0008069817182,0.002266723154,-0.0005482317309,0.001718491423,0.0009859217675,-0.0006582343632,0.0003276874043,0.00028155488,0.0003797053731,0.0006612602531,0.00089432519,-0.0005660184089,0.0003283067811,0.0002136976336,-0.000253969652,-4.027201835e-05,-0.001042363003,0.0001066065782,-0.0009357564244,0.0001607953478,-0.0001996092419,-3.881389413e-05,0.0003092718622,1.903856471e-05,0.0003283104269,0.0006187943582,-0.0002850006402,0.000333793718,0.0003933989272,-0.000115423045,0.0002779758823,0.0008106274037,-0.0003936562851,0.0004169711186,0.001050367541,-0.0003524067958,0.0006979607454,0.0004531393996,-0.0002601662026,0.000192973197,0.001255207835,0.0001238512284,0.001379059064,0.002331186656,-0.0004848145029,0.001846372154,0.002233257878,-0.00049700931,0.001736248568,0.002351953458,-0.0001756576533,0.002176295804,0.001526086311,-0.0001153902174,0.001410696094,0.002371284846,1.265875745e-06,0.002372550722,0.0003126434659,-6.792841567e-05,0.0002447150502,0.0008006975722,0.0001102160591,0.0009109136313,-0.0004101868748,0.0008168297882,0.0004066429134,0.001088478333,-3.328569589e-05,0.001055192637,-0.000390954318,0.0001084046958,-0.0002825496222,-0.0003464367266,0.0001487413337,-0.0001976953929
3.1,0.0003144470216,-0.0001151878916,0.00019925913,0.002121226694,-0.0003435496213,0.001777677073,-0.000718268256,-0.0004997582674,-0.001218026523,0.001098258185,-0.0003749761048,0.0007232820803,0.0006689857629,-0.0005789626318,9.002313108e-05,0.0007267500646,-0.0003133179453,0.0004134321192,0.0002793918207,-0.0004378647019,-0.0001584728812,0.001268173518,-0.0008028150726,0.0004653584456,5.089198285e-07,-0.0002895308339,-0.0002890219141,0.0008031965357,-0.0003907740631,0.0004124224726,0.001163254241,-0.0003417821705,0.0008214720703,0.002301114282,-0.0005603315192,0.001740782763,0.0009942363041,-0.0006689228263,0.0003253134778,0.0002862300334,0.0003810203138,0.0006672503472,0.000891502572,-0.000572563803,0.000318938769,0.0001987428604,-0.0002597007137,-6.09578533e-05,-0.001086892423,0.0001321904202,-0.0009547020031,0.0001590764711,-0.0002071390612,-4.80625902e-05,0.0003067007565,2.010530067e-05,0.0003268060572,0.0006194672882,-0.0002840208241,0.0003354464641,0.0004033731334,-0.000114610154,0.0002887629793,0.0008110557677,-0.0003958101549,0.0004152456128,0.001062543316,-0.000356498745,0.0007060445715,0.0004573957319,-0.0002579524858,0.000199443246,0.001278127866,0.0001204457014,0.001398573568,0.002394556241,-0.0005000711896,0.001894485051,0.00227853983,-0.0005116231758,0.001766916654,0.002413627738,-0.0001938205309,0.002219807207,0.001539852766,-0.000127929521,0.001411923245,0.002382361,-6.246188372e-06,0.002376114811,0.0003225312984,-7.77120942e-05,0.0002448192042,0.0007920408728,0.0001059664538,0.0008980073266,-0.0004521356849,0.0008457984612,0.0003936627763,0.001106713548,-7.906784432e-05,0.001027645704,-0.000401863913,0.0001082029151,-0.0002936609979,-0.000344848769,0.0001470159736,-0.0001978327954
3.2,0.0003273639874,-0.0001122834655,0.000215080522,0.002123703508,-0.0003492212861,0.001774482222,-0.0007268248989,-0.0005034776908,-0.00123030259,0.001098340783,-0.0003823563542,0.0007159844289,0.0006813369886,-0.0005862294038,9.510758479e-05,0.000710822251,-0.0003214489432,0.0003893733078,0.0002817749914,-0.000439259811,-0.0001574848196,0.001270254012,-0.0008113026711,0.0004589513412,-5.648229667e-06,-0.0002929233594,-0.0002985715891,0.0008079067787,-0.0003920535213,0.0004158532574,0.001180616059,-0.0003447078359,0.0008359082234,0.002331329406,-0.0005721997129,0.001759129693,0.001000140371,-0.0006804007578,0.0003197396128,0.000290634152,0.0003814246211,0.0006720587732,0.0008883361264,-0.0005794063883,0.0003089297381,0.0001824671506,-0.0002655346663,-8.306751564e-05,-0.001131118133,0.0001567879259,-0.0009743302068,0.0001563642901,-0.000215255089,-5.889079885e-05,0.0003010789995,2.282277865e-05,0.0003239017781,0.0006190339744,-0.0002832296509,0.0003358043235,0.0004127018698,-0.0001140110075,0.0002986908623,0.0008113049536,-0.0003978818586,0.000413423095,0.001074659051,-0.0003604862435,0.0007141728072,0.0004606759824,-0.0002560102503,0.0002046657321,0.00130100157,0.0001144359809,0.001415437551,0.002457008792,-0.0005159981305,0.001941010661,0.002319649538,-0.0005218679727,0.001797781565,0.002474191985,-0.0002128813693,0.002261310615,0.001552792804,-0.0001405782247,0.00141221458,0.002392723206,-1.281431794e-05,0.002379908888,0.0003317120051,-8.736492787e-05,0.0002443470772,0.0007826378824,0.0001016635577,0.0008843014401,-0.0004896183477,0.000872838537,0.0003832201893,0.001123519406,-0.000119874201,0.001003645205,-0.0004116018563,0.0001081920475,-0.0003034098088,-0.0003386928697,0.0001448802451,-0.0001938126246
3.3,0.0003407039264,-0.0001097676149,0.0002309363115,0.00212408606,-0.000355346614,0.001768739446,-0.0007350781186,-0.0005072356047,-0.001242313723,0.001096285635,-0.0003903557492,0.000705929886,0.0006927540819,-0.0005935781417,9.917594019e-05,0.0006937565944,-0.000329984824,0.0003637717703,0.0002827146563,-0.0004410770871,-0.0001583624308,0.001268894009,-0.0008192697742,0.0004496242343,-1.352673736e-05,-0.0002963608296,-0.000309887567,0.0008110143372,-0.0003932998302,0.0004177145071,0.001197599529,-0.0003473901639,0.0008502093653,0.002357153767,-0.0005837965045,0.001773357263,0.001003670236,-0.0006928461605,0.0003108240753,0.0002945343635,0.000380937042,0.0006754714055,0.0008847162119,-0.0005865960367,0.0002981201752,0.000164774818,-0.0002714758971,-0.000106701079,-0.001174091421,0.000179339168,-0.0009947522533,0.0001525123671,-0.0002239139915,-7.140162441e-05,0.0002920442692,2.727478336e-05,0.0003193190526,0.0006173855717,-0.0002826548131,0.0003347307586,0.0004213707109,-0.0001136256159,0.000307745095,0.0008113638711,-0.0003998594861,0.000411504385,0.001086680078,-0.0003643587089,0.0007223213689,0.0004631446718,-0.0002542877981,0.0002088568737,0.001323902152,0.0001056846396,0.001429586792,0.002518345727,-0.0005325805824,0.001985765144,0.002356346341,-0.0005277201177,0.001828626223,0.002533357551,-0.0002328278562,0.002300529695,0.001564722975,-0.0001532654513,0.001411457523,0.002402211524,-1.840840752e-05,0.002383803117,0.0003399880616,-9.693629776e-05,0.0002430517638,0.0007721964438,9.728156371e-05,0.0008694780075,-0.0005225768876,0.0008979083472,0.0003753314596,0.001137872099,-0.0001556038334,0.000982268266,-0.0004205561926,0.0001082150505,-0.0003123411421,-0.0003287070599,0.0001420499261,-0.0001866571338
3.4,0.0003544097866,-0.0001075961981,0.0002468135884,0.002122358603,-0.0003619482476,0.001760410355,-0.0007428073886,-0.000510932718,-0.001253740107,0.001092175712,-0.0003989600327,0.0006932156795,0.0007032751024,-0.0006009808923,0.0001022942101,0.0006755274369,-0.0003389426984,0.0003365847385,0.0002821444366,-0.0004432973618,-0.0001611529252,0.001263844447,-0.0008266890076,0.0004371554389,-2.309099082e-05,-0.0002998174028,-0.0003229083936,0.0008124124345,-0.0003945194862,0.0004178929483,0.001214098776,-0.0003498407344,0.0008642580413,0.002378413499,-0.0005950993217,0.001783314177,0.001004876375,-0.0007064219771,0.0002984543981,0.0002976931209,0.000379585841,0.0006772789619,0.0008805335295,-0.0005941813154,0.0002863522141,0.0001455750455,-0.0002775218535,-0.000131946808,-0.001214868624,0.0001988217386,-0.001016046885,0.0001473966747,-0.0002330722987,-8.567562404e-05,0.0002793145966,3.345219684e-05,0.0003127667934,0.0006144067417,-0.0002823197841,0.0003320869577,0.0004293666085,-0.0001134515427,0.0003159150657,0.0008111953664,-0.0004017336884,0.000409461678,0.001098570585,-0.0003681042355,0.0007304663498,0.0004649426829,-0.000252733548,0.0002122091349,0.00134687503,9.409368006e-05,0.00144096871,0.00257836227,-0.0005498010085,0.002028561261,0.002388439459,-0.0005292448532,0.001859194605,0.002590809725,-0.0002536472764,0.002337162449,0.001575444018,-0.0001659168148,0.001409527203,0.002410648255,-2.301291364e-05,0.002387635342,0.0003471742415,-0.000106475149,0.0002406990925,0.0007604504134,9.279976827e-05,0.0008532501817,-0.0005510175985,0.0009209823133,0.0003699647149,0.001148781891,-0.0001862192525,0.0009625626387,-0.0004290957894,0.0001081375575,-0.0003209582319,-0.0003156413782,0.000138273213,-0.0001773681652
3.5,0.0003684145939,-0.0001057187013,0.0002626958926,0.002118514306,-0.000369036216,0.00174947809,-0.0007498181331,-0.0005144748054,-0.001264292938,0.001086097533,-0.0004081460803,0.0006779514529,0.0007129277656,-0.0006084081287,0.0001045196369,0.000656111726,-0.0003483302695,0.0003077814565,0.0002799939262,-0.0004458981309,-0.0001659042046,0.001254888838,-0.0008335471596,0.0004213416782,-3.431071043e-05,-0.0003032682448,-0.0003375789553,0.0008119901079,-0.0003957158381,0.0004162742698,0.001229979426,-0.0003520789515,0.0008779004745,0.00239498219,-0.000606101117,0.001788881073,0.001003817737,-0.0007212707131,0.000282547024,0.0002998757331,0.0003774090562,0.0006772847892,0.0008756815867,-0.0006022074486,0.0002734741381,0.0001247839695,-0.0002836647877,-0.0001588808182,-0.001252545331,0.0002142875144,-0.001038257817,0.0001409177038,-0.0002426865712,-0.0001017688674,0.0002626915238,4.125975262e-05,0.0003039512764,0.0006099767794,-0.0002822435145,0.0003277332649,0.0004366785951,-0.0001134839618,0.0003231946334,0.0008107371227,-0.0004034983709,0.0004072387518,0.001110294609,-0.0003717097103,0.0007385848989,0.000466185062,-0.0002512966636,0.0002148883985,0.00136993235,7.961124693e-05,0.001449543597,0.002636851491,-0.0005676386449,0.002069212846,0.00241578847,-0.0005265890066,0.001889199463,0.002646210534,-0.0002753232662,0.002370887268,0.001584748954,-0.0001784561169,0.001406292837,0.002417843432,-2.662717025e-05,0.002391216262,0.000353101586,-0.000116028783,0.000237072803,0.000747164294,8.820417293e-05,0.0008353684669,-0.0005750136119,0.0009420509063,0.0003670372943,0.001155318264,-0.0002117435284,0.000943574736,-0.0004375637819,0.00010785115,-0.0003297126319,-0.0003002415448,0.0001333389567,-0.0001669025881
3.6,0.0003826437204,-0.0001040790518,0.0002785646686,0.002112555969,-0.0003766080096,0.00173594796,-0.0007559460053,-0.0005177743786,-0.001273720384,0.001078140441,-0.0004178822005,0.0006602582401,0.0007217294349,-0.0006158289766,0.0001059004583,0.000635489182,-0.000358146136,0.000277343046,0.0002761898428,-0.0004488541534,-0.0001726643106,0.001241845306,-0.000839845066,0.00040200024,-4.716268965e-05,-0.0003066903226,-0.0003538530123,0.0008096342212,-0.0003968890394,0.0004127451818,0.001245081607,-0.0003541315294,0.0008909500778,0.002406790355,-0.0006168080952,0.00178998226,0.001000559672,-0.000737511425,0.0002630482474,0.0003008592186,0.0003744544819,0.0006753137005,0.0008700596266,-0.0006107141215,0.000259345505,0.0001023288668,-0.0002898940366,-0.0001875651698,-0.001286287053,0.0002248933432,-0.00106139371,0.000133003276,-0.0002527133915,-0.0001197101155,0.000242063689,5.052844685e-05,0.0002925921359,0.0006039718604,-0.0002824399449,0.0003215319156,0.0004432992259,-0.0001137155587,0.0003295836672,0.00080990489,-0.0004051509151,0.0004047539749,0.001121817547,-0.0003751609651,0.0007466565816,0.0004669605957,-0.0002499275172,0.0002170330785,0.00139305128,6.223644991e-05,0.00145528773,0.002693611105,-0.0005860686278,0.002107542477,0.002438303741,-0.000519970052,0.001918333689,0.002699209421,-0.0002978341315,0.00240137529,0.001592432074,-0.0001908073038,0.00140162477,0.002423600844,-2.926514891e-05,0.002394335695,0.0003576214517,-0.0001256416501,0.0002319798016,0.0007321371166,8.348890142e-05,0.0008156260181,-0.0005947051411,0.0009611207427,0.0003664156016,0.001156635214,-0.0002322567015,0.0009243785125,-0.0004462725185,0.0001072757057,-0.0003389968128,-0.0002832355494,0.0001270843584,-0.000156151191
3.7,0.0003970178118,-0.000102616757,0.0002944010548,0.00210449696,-0.0003846491818,0.001719847779,-0.0007610591779,-0.0005207518485,-0.001281811026,0.001068396209,-0.0004281287962,0.0006402674125,0.0007296881394,-0.0006232114933,0.0001064766461,0.0006136425221,-0.0003683804953,0.0002452620268,0.0002706576363,-0.0004521379168,-0.0001814802805,0.001224567221,-0.0008455966878,0.0003789705335,-6.163169031e-05,-0.0003100630085,-0.0003716946988,0.0008052317707,-0.0003980360719,0.0004071956988,0.001259224513,-0.0003560315121,0.0009031930009,0.002413832397,-0.0006272371012,0.001786595295,0.0009951732382,-0.0007552389341,0.000239934304,0.0003004392034,0.000370779207,0.0006712184104,0.0008635749898,-0.0006197336474,0.0002438413423,7.815310835e-05,-0.0002961983847,-0.0002180452763,-0.001315355787,0.000229925591,-0.001085430196,0.0001236111344,-0.0002631093883,-0.0001394982539,0.0002174123879,6.103079604e-05,0.000278443184,0.0005962675326,-0.000282917523,0.0003133500096,0.0004492258276,-0.0001141364398,0.0003350893878,0.000808596583,-0.0004066919482,0.0004019046348,0.001133106882,-0.0003784430138,0.0007546638681,0.0004673321699,-0.0002485780687,0.0002187541012,0.001416174545,4.202194569e-05,0.001458196491,0.00274845084,-0.0006050611738,0.002143389666,0.002455943742,-0.0005096613613,0.001946282381,0.002749458376,-0.0003211530848,0.002428305292,0.001598296187,-0.0002028963321,0.001395399855,0.002427722405,-3.095446846e-05,0.002396767936,0.0003606079744,-0.0001353538548,0.0002252541196,0.0007152050594,7.865687654e-05,0.0007938619359,-0.0006102993733,0.0009782170365,0.0003679176632,0.001151992215,-0.0002478894572,0.0009041027581,-0.0004555003722,0.0001063603586,-0.0003491400136,-0.0002653232083,0.0001194005287,-0.0001459226796
3.8,0.000411455342,-0.0001012683293,0.0003101870127,0.002094361199,-0.0003931343508,0.001701226848,-0.0007650594372,-0.0005233361723,-0.001288395609,0.001056958162,-0.0004388392924,0.0006181188701,0.0007368032195,-0.0006305229029,0.0001062803166,0.0005905569884,-0.0003790160921,0.0002115408964,0.000263322473,-0.0004557199234,-0.0001923974504,0.001202941754,-0.0008508267909,0.0003521149629,-7.771112495e-05,-0.0003133683967,-0.0003910795216,0.0007986714499,-0.000399150795,0.0003995206549,0.001272211183,-0.000357816933,0.0009143942504,0.002416166419,-0.0006374128486,0.001778753571,0.0009877343045,-0.0007745241979,0.0002132101066,0.000298432559,0.0003664485681,0.0006648811271,0.0008561440526,-0.0006292897017,0.0002268543508,5.222023126e-05,-0.0003025679987,-0.0002503477674,-0.001339132091,0.0002288202435,-0.001110311847,0.0001127297939,-0.0002738311186,-0.0001611013247,0.0001888179453,7.249591616e-05,0.0002613138614,0.0005867406956,-0.0002836790131,0.0003030616825,0.0004544607892,-0.0001147342193,0.0003397265698,0.0008066958319,-0.0004081247897,0.0003985710422,0.001144131206,-0.0003815403757,0.0007625908304,0.0004673370366,-0.0002472021735,0.0002201348631,0.00143921121,1.907456167e-05,0.001458285771,0.002801197763,-0.0006245812434,0.00217661652,0.002468708541,-0.0004959753802,0.00197273316,0.002796626151,-0.0003452493429,0.002451376808,0.001602156371,-0.0002146525748,0.001387503797,0.002430009927,-3.173476746e-05,0.00239827516,0.0003619578993,-0.0001451994601,0.0002167584392,0.0006962424069,7.371942577e-05,0.0007699618327,-0.000622071714,0.0009933892526,0.0003713175386,0.001140767803,-0.0002588140759,0.0008819537271,-0.000465490737,0.0001050832091,-0.0003604075279,-0.000247168739,0.0001102350698,-0.0001369336692
3.9,0.0004258739777,-9.996883083e-05,0.0003259051468,0.002082181482,-0.0004020283948,0.001680153088,-0.0007678826722,-0.0005254650206,-0.001293347693,0.001043919368,-0.0004499612058,0.0005939581621,0.0007430648087,-0.0006377297244,0.0001053350843,0.0005662188586,-0.0003900292724,0.0001761895862,0.0002541090732,-0.0004595688656,-0.0002054597924,0.001176886316,-0.0008555668981,0.0003213194182,-9.540382909e-05,-0.0003165913266,-0.0004119951557,0.0007898440378,-0.000400224013,0.0003896200248,0.001283832584,-0.0003595293005,0.0009243032834,0.002413905283,-0.000647365028,0.001766540255,0.0009783224937,-0.0007954149434,0.0001829075502,0.0002946754457,0.0003615345909,0.0006562100365,0.000847691467,-0.000639396591,0.000208294876,2.451591338e-05,-0.0003089956629,-0.0002844797495,-0.001357135808,0.0002211806085,-0.001135955199,0.0001003765832,-0.0002848346119,-0.0001844580286,0.0001564653334,8.462162243e-05,0.0002410869559,0.0005752706631,-0.0002847216731,0.00029054899,0.0004590105922,-0.0001154942759,0.0003435163164,0.0008040741584,-0.0004094546971,0.0003946194613,0.001154857475,-0.0003844374105,0.0007704200641,0.0004669865446,-0.0002457557913,0.0002212307533,0.001462036781,-6.44577401e-06,0.001455591007,0.002851698024,-0.0006445887485,0.002207109276,0.002476630068,-0.0004792470729,0.001997382995,0.002840407592,-0.0003700889219,0.00247031867,0.001603840078,-0.0002260097236,0.001377830355,0.002430264494,-3.165557428e-05,0.00239860892,0.0003615879223,-0.000155205068,0.0002063828543,0.0006751608859,6.869480921e-05,0.0007438556951,-0.0006303690033,0.001006718553,0.0003763495498,0.00112246595,-0.0002652348762,0.000857231074,-0.000476453088,0.0001034499196,-0.0003730031684,-0.0002293961877,9.959168634e-05,-0.0001298045014
4.0,0.0004401905694,-9.865339217e-05,0.0003415371772,0.002067996271,-0.0004112876752,0.001656708596,-0.0007694989828,-0.0005270845793,-0.001296583562,0.00102936999,-0.000461437278,0.0005679327119,0.0007484521455,-0.0006447978015,0.000103654344,0.0005406131205,-0.0004013910578,0.0001392220628,0.0002429405046,-0.0004636517807,-0.0002207112762,0.001146343782,-0.0008598502315,0.0002864935501,-0.000114722911,-0.0003197191391,-0.0004344420501,0.0007786417729,-0.0004012435562,0.0003773982167,0.001293870679,-0.0003612120576,0.0009326586215,0.002407200393,-0.0006571252972,0.001750075096,0.0009670207093,-0.0008179366146,0.0001490840948,0.0002890179876,0.0003561142135,0.0006451322012,0.0008381481479,-0.0006500590877,0.0001880890602,-4.952639339e-06,-0.0003154772551,-0.0003204298944,-0.001369049004,0.0002067934639,-0.00116225554,8.659275069e-05,-0.00029607461,-0.0002094818593,0.0001206473772,9.70819346e-05,0.0002177293118,0.0005617392773,-0.0002860376538,0.0002757016235,0.0004628837583,-0.0001164000368,0.0003464837216,0.0008005917268,-0.0004106879829,0.000389903744,0.001165247191,-0.000387118586,0.0007781286053,0.0004662654268,-0.0002441970843,0.0002220683425,0.001484492913,-3.432905655e-05,0.001450163856,0.002899814946,-0.0006650390497,0.002234775896,0.002479760281,-0.0004598200083,0.002019940273,0.002880526802,-0.0003956348228,0.002484891979,0.001603184571,-0.0002369065158,0.001366278055,0.002428284486,-3.077402226e-05,0.002397510464,0.0003594302602,-0.0001653889349,0.0001940413253,0.0006519075976,6.360601137e-05,0.000715513609,-0.0006356132341,0.001018323428,0.000382710194,0.001096717494,-0.0002673804714,0.000829337023,-0.0004885658016,0.0001014913085,-0.0003870744931,-0.0002125866038,8.752678751e-05,-0.0001250598162
4.1,0.0004543202177,-9.72586737e-05,0.000357061544,0.00205184558,-0.0004208612183,0.001630984361,-0.0007699123184,-0.0005281491168,-0.001298061435,0.001013394288,-0.0004732066258,0.0005401876618,0.0007529313198,-0.0006516922864,0.0001012390334,0.0005137207575,-0.0004130681343,0.0001006526232,0.0002297364397,-0.0004679341845,-0.0002381977448,0.001111277677,-0.0008637070097,0.0002475706671,-0.0001356924009,-0.0003227412109,-0.0004584336118,0.0007649572739,-0.0004021943454,0.0003627629285,0.001302100793,-0.0003629090689,0.0009391917246,0.00239622248,-0.0006667246132,0.001729497867,0.0009539154296,-0.0008420938206,0.0001118216089,0.0002813177084,0.0003502676135,0.0006315853219,0.0008274487396,-0.0006612727652,0.0001661759744,-3.615947269e-05,-0.0003220115367,-0.0003581710094,-0.001374738113,0.0001856413037,-0.00118909681,7.143638673e-05,-0.0003075036475,-0.0002360672608,8.176422154e-05,0.0001095303105,0.0001912945321,0.0005460305488,-0.0002876145142,0.0002584160346,0.0004660882877,-0.0001174332074,0.0003486550803,0.0007960974319,-0.0004118311009,0.0003842663309,0.001175252611,-0.0003895686537,0.0007856839568,0.0004651312359,-0.0002424864241,0.0002226448119,0.001506387862,-6.432055786e-05,0.001442067304,0.002945424401,-0.0006858833018,0.0022595411,0.002478159449,-0.000438037319,0.00204012213,0.00291673548,-0.0004218470296,0.002494888451,0.001600033368,-0.0002472876192,0.001352745749,0.002423864033,-2.915295564e-05,0.002394711077,0.0003554270739,-0.0001757602611,0.0001796668128,0.000626461749,5.847840872e-05,0.0006849401577,-0.0006383028402,0.001028360078,0.0003900572379,0.001063278512,-0.0002654983716,0.0007977801401,-0.0005019801561,9.926001943e-05,-0.0004027201367,-0.0001972752513,7.414267814e-05,-0.0001231325731
4.2,0.0004681751747,-9.572427326e-05,0.0003724509015,0.002033766918,-0.0004306918284,0.00160307509,-0.0007691593565,-0.0005286203925,-0.001297779749,0.000996067895,-0.000485205838,0.000510862057,0.0007564534343,-0.0006583776089,9.807582541e-05,0.0004855161995,-0.0004250236518,6.049254768e-05,0.0002144116253,-0.0004723801061,-0.0002579684808,0.001071668016,-0.0008671609354,0.0002045070809,-0.0001583471958,-0.0003256483742,-0.0004839955699,0.0007486828223,-0.0004030584293,0.0003456243931,0.001308294095,-0.0003646631587,0.0009436309361,0.002381145072,-0.0006761918007,0.001704953271,0.0009390971076,-0.0008678716474,7.12254602e-05,0.0002714342142,0.0003440768514,0.0006155110656,0.0008155292738,-0.0006730245373,0.0001425047365,-6.906356069e-05,-0.0003285994796,-0.0003976630403,-0.001374266894,0.0001579062704,-0.001216360624,5.497450308e-05,-0.000319070983,-0.0002640964799,4.031935577e-05,0.0001215994502,0.000161918806,0.0005280307401,-0.0002894358751,0.0002385948649,0.0004686294239,-0.0001185739934,0.0003500554305,0.0007904296718,-0.0004128898417,0.0003775398301,0.001184814121,-0.0003917727521,0.0007930413684,0.0004635148547,-0.0002405863298,0.0002229285249,0.001527499217,-9.61282909e-05,0.001431370926,0.002988409069,-0.0007070682406,0.002281340828,0.002471887559,-0.0004142386065,0.002057648953,0.002948809519,-0.0004486826854,0.002500126833,0.001594233724,-0.0002571046703,0.001337129053,0.002416793727,-2.685965338e-05,0.002389934074,0.0003495244799,-0.0001863181809,0.0001632062989,0.0005988305882,5.333788871e-05,0.0006521684769,-0.0006390087256,0.001037016475,0.0003980077498,0.001022026538,-0.0002598513556,0.0007621751827,-0.0005168240898,9.682597753e-05,-0.0004199981122,-0.0001839481746,5.957774387e-05,-0.0001243704308
4.3,0.000481664287,-9.399396916e-05,0.0003876703179,0.002013792256,-0.0004407171192,0.001573075137,-0.0007673072157,-0.0005284669032,-0.001295774119,0.0009774560558,-0.0004973699469,0.0004800861089,0.0007589542981,-0.0006648174574,9.413684064e-05,0.0004559655785,-0.0004372178266,1.874775183e-05,0.0001968754197,-0.0004769520158,-0.0002800765961,0.001027507937,-0.000870226926,0.0001572810114,-0.0001827317508,-0.0003284323913,-0.0005111641421,0.0007297108787,-0.0004038150468,0.0003258958318,0.001312221242,-0.000366514741,0.0009457065006,0.002362135395,-0.0006855536713,0.001676581723,0.0009226597312,-0.0008952356059,2.742412532e-05,0.0002592272697,0.0003376249298,0.0005968521996,0.0008023257927,-0.0006852931382,0.0001170326545,-0.0001036118033,-0.000335243393,-0.0004388551963,-0.001367895179,0.0001239639075,-0.001243931271,3.727574932e-05,-0.0003307211737,-0.0002934454244,-3.087321767e-06,0.0001328987706,0.0001298114488,0.0005076297501,-0.000291482133,0.0002161476172,0.0004705085424,-0.0001198013684,0.0003507071741,0.0007834190991,-0.0004138687107,0.0003695503883,0.001193859723,-0.0003937164584,0.0008001432645,0.0004613229338,-0.0002384613514,0.0002228615824,0.001547580293,-0.0001294319637,0.001418148329,0.003028653924,-0.0007285354347,0.002300118489,0.002461001395,-0.0003887621828,0.002072239213,0.002976546952,-0.0004760962038,0.002500450749,0.001585636805,-0.0002663171872,0.001319319618,0.002406864931,-2.396506043e-05,0.002382899871,0.0003416673252,-0.0001970504462,0.000144616879,0.0005690454613,4.82095647e-05,0.0006172550261,-0.0006383631529,0.001044500884,0.0004061377311,0.0009729550867,-0.0002507153357,0.0007222397511,-0.0005332040747,9.42703894e-05,-0.0004389336853,-0.0001730392142,4.399582602e-05,-0.0001290433882
4.4,0.0004946934073,-9.201659612e-05,0.0004026768112,0.001991946856,-0.0004508705246,0.001541076332,-0.0007644496724,-0.0005276629709,-0.001292112643,0.0009576133171,-0.0005096332747,0.0004479800424,0.0007603564645,-0.0006709748187,8.938164582e-05,0.000425026324,-0.0004496084663,-2.458214231e-05,0.0001770330302,-0.0004816107399,-0.0003045777097,0.0009788014026,-0.0008729099653,0.0001058914374,-0.0002088973002,-0.0003310856176,-0.0005399829178,0.0007079363215,-0.0004044407944,0.0003034955272,0.001313657819,-0.0003685005626,0.0009451572566,0.002339353963,-0.000694835968,0.001644517995,0.0009046990047,-0.0009241295624,-1.943055765e-05,0.000244558933,0.0003309952374,0.0005755541704,0.0007877745652,-0.0006980495263,8.972503892e-05,-0.0001397402739,-0.0003419460005,-0.0004816862744,-0.001356065386,8.436885525e-05,-0.001271696531,1.840487192e-05,-0.0003423921671,-0.0003239872952,-4.777108751e-05,0.0001430129618,9.524187428e-05,0.0004847239785,-0.0002937309914,0.0001909929871,0.0004717234906,-0.0001210933223,0.0003506301684,0.0007748938216,-0.0004147704103,0.0003601234113,0.001202306689,-0.0003953858267,0.0008069208624,0.000458442466,-0.0002360779292,0.0002223645368,0.001566370484,-0.0001638927451,0.001402477739,0.003066045488,-0.0007502205298,0.002315824958,0.002445558097,-0.0003619504774,0.00208360762,0.002999769004,-0.0005040386804,0.002495730324,0.001574100737,-0.0002748930876,0.001299207649,0.002393877744,-2.05434638e-05,0.00237333428,0.000331795938,-0.0002079322785,0.0001238636595,0.000537158965,4.311675164e-05,0.0005802757166,-0.0006370415121,0.001051026503,0.0004139849904,0.0009161668553,-0.0002383784924,0.0006777883629,-0.0005512047093,9.167872889e-05,-0.0004595259804,-0.0001649287935,2.757728189e-05,-0.0001373515116
4.5,0.0005071667738,-8.974642838e-05,0.0004174203454,0.001968250208,-0.0004610824377,0.001507167771,-0.0007607020319,-0.0005261877543,-0.001286889786,0.0009365846914,-0.0005219302241,0.0004146544674,0.0007605734668,-0.000676812135,8.376133171e-05,0.0003926481544,-0.0004621515437,-6.950338928e-05,0.0001547883855,-0.0004863154757,-0.0003315270902,0.0009255622229,-0.0008752049759,5.035724696e-05,-0.0002368980262,-0.0003336008429,-0.0005704988692,0.0006832600223,-0.0004049099129,0.0002783501094,0.001312391219,-0.000370652509,0.0009417387097,0.002312959666,-0.0007040642008,0.001608895465,0.0008853092304,-0.0009544723916,-6.916316116e-05,0.0002272980844,0.000324271207,0.0005515692914,0.0007718138699,-0.0007112573983,6.055647165e-05,-0.0001773738621,-0.0003487095142,-0.0005260833763,-0.001339382077,3.983629697e-05,-0.00129954578,-1.580632115e-06,-0.0003540133531,-0.0003555939852,-9.298147963e-05,0.0001515062239,5.852474428e-05,0.0004592200057,-0.0002961576697,0.0001630623361,0.0004722699498,-0.0001224270017,0.0003498429481,0.0007646863837,-0.0004155952707,0.000349091113,0.001210064292,-0.0003967675047,0.000813296787,0.0004547467642,-0.0002334043005,0.0002213424638,0.001583607933,-0.0001991629296,0.001384445003,0.003100475421,-0.0007720530571,0.002328422364,0.002425623017,-0.0003341552568,0.002091467761,0.003018323662,-0.0005324561897,0.002485867472,0.001559494718,-0.0002828086715,0.001276686046,0.00237765056,-1.667251566e-05,0.002360978045,0.0003198452119,-0.0002189259426,0.0001009192693,0.0005032431903,3.80796943e-05,0.0005413228846,-0.0006357396142,0.001056794785,0.0004210551708,0.0008518663099,-0.0002231411441,0.0006287251659,-0.0005708873542,8.913371037e-05,-0.0004817536438,-0.0001599444938,1.051248533e-05,-0.0001494320085
4.6,0.0005189888526,-8.714311472e-05,0.0004318457379,0.001942718332,-0.0004712815345,0.001471436798,-0.0007561954974,-0.0005240243157,-0.001280219813,0.0009144076364,-0.0005341960579,0.0003802115785,0.0007595149407,-0.0006822915767,7.7223364e-05,0.0003587748669,-0.000474801829,-0.0001160269621,0.0001300477443,-0.0004910239264,-0.0003609761821,0.0008678142036,-0.0008770975841,-9.283380465e-06,-0.000266787052,-0.000335971164,-0.000602758216,0.0006555925894,-0.0004051946286,0.0002503979608,0.001308227746,-0.0003729963874,0.0009352313589,0.002283114465,-0.0007132639595,0.001569850505,0.000864578869,-0.0009861547205,-0.0001215758515,0.0002073242083,0.0003175359832,0.0005248601915,0.0007543864443,-0.0007248739453,2.951249895e-05,-0.0002164257851,-0.0003555346638,-0.0005719604489,-0.001318589257,-8.778063969e-06,-0.001327367321,-2.263195169e-05,-0.0003655044441,-0.0003881363957,-0.000137929941,0.0001579338,2.000385896e-05,0.000431038006,-0.0002987349252,0.0001323030808,0.0004721428634,-0.0001237787853,0.0003483640781,0.000752641139,-0.0004163405574,0.0003363005816,0.001217035929,-0.0003978490336,0.0008191868957,0.0004501015976,-0.0002304105103,0.0002196910873,0.001599041363,-0.0002348948185,0.001364146544,0.003131845959,-0.000793956969,0.00233788899,0.002401277602,-0.0003057399479,0.002095537654,0.00303208908,-0.0005612873622,0.002470801718,0.001541701639,-0.0002900480936,0.001251653545,0.002358027941,-1.243328302e-05,0.002345594658,0.0003057451319,-0.0002299812681,7.576386377e-05,0.0004673879102,3.311380798e-05,0.0005005017182,-0.0006351504665,0.001061980159,0.0004268296928,0.0007803522848,-0.0002053159806,0.0005750363042,-0.0005922898163,8.670941884e-05,-0.0005055803974,-0.0001583628058,-7.002722395e-06,-0.0001653655282
4.7,0.000530065894,-8.417131354e-05,0.0004458945804,0.001915366145,-0.0004813961242,0.001433970021,-0.0007510722104,-0.0005211588372,-0.001272231048,0.0008911138851,-0.0005463676158,0.0003447462693,0.0007570909275,-0.0006873753547,6.971557282e-05,0.0003233460637,-0.0004875134724,-0.0001641674087,0.000102722818,-0.0004956924732,-0.0003929696552,0.0008055919086,-0.0008785656715,-7.297376289e-05,-0.0002986130889,-0.0003381897431,-0.0006368028319,0.0006248570977,-0.0004052654847,0.000219591613,0.001300998624,-0.000375550688,0.0009254479361,0.00224998288,-0.0007224606569,0.001527522223,0.0008425843445,-0.001019036219,-0.0001764518742,0.0001845278947,0.0003108719747,0.0004953998694,0.0007354411307,-0.0007388506522,-3.409521528e-06,-0.0002567989383,-0.0003624194643,-0.0006192184026,-0.001294548283,-6.049958374e-05,-0.001355047867,-4.470952095e-05,-0.0003767756396,-0.0004214851605,-0.0001818234138,0.0001618581409,-1.99652729e-05,0.0004001140137,-0.0003014331624,9.868085125e-05,0.0004713370418,-0.0001251244454,0.0003462125964,0.0007386206593,-0.0004169997085,0.0003216209508,0.001223119493,-0.0003986193387,0.0008245001548,0.000444370429,-0.0002270684889,0.00021730194,0.001612438316,-0.0002707489101,0.001341689406,0.003160073383,-0.0008158516986,0.002344221685,0.002372623779,-0.0002770784957,0.002095545283,0.003040973893,-0.0005904614775,0.002450512416,0.001520617519,-0.0002966025918,0.001224014927,0.002334884362,-7.910006463e-06,0.002326974356,0.000289421266,-0.0002410369475,4.838431846e-05,0.0004296973551,2.822777388e-05,0.000457925129,-0.0006359435963,0.001066717777,0.0004307741809,0.000702010002,-0.0001852284127,0.0005167815894,-0.000615428313,8.446762209e-05,-0.0005309606909,-0.0001604116949,-2.477016725e-05,-0.0001851818621
4.8,0.0005403066183,-8.080016553e-05,0.0004595064528,0.00188620889,-0.0004913553082,0.001394853582,-0.0007454818213,-0.0005175800294,-0.001263061851,0.0008667304077,-0.0005583838566,0.0003083465511,0.0007532142135,-0.0006920259772,6.118823632e-05,0.0002862982327,-0.0005002404236,-0.0002139421908,7.273254158e-05,-0.0005002763202,-0.0004275437786,0.0007389415877,-0.0008795814218,-0.0001406398341,-0.0003324181934,-0.0003402494207,-0.0006726676142,0.0005909902321,-0.0004050916857,0.0001858985464,0.001290564037,-0.0003783254263,0.0009122386109,0.002213724716,-0.00073167869,0.001482046026,0.0008193818656,-0.001052942897,-0.0002335610315,0.0001588073817,0.000304360238,0.0004631676196,0.0007149325684,-0.000753133847,-3.82012786e-05,-0.0002983902681,-0.0003693574717,-0.0006677477397,-0.001268218041,-0.000114259118,-0.001382477159,-6.778411521e-05,-0.0003877286758,-0.000455512791,-0.000223898472,0.0001628653626,-6.103310938e-05,0.0003664006838,-0.0003042207817,6.217990209e-05,0.0004698465141,-0.0001264394732,0.0003434070409,0.0007225102605,-0.0004175615934,0.0003049486672,0.001228205825,-0.0003990692823,0.0008291365431,0.0004374182077,-0.0002233520734,0.0002140661343,0.001623588243,-0.0003064012496,0.001317186993,0.003185087393,-0.0008376535108,0.002347433882,0.002339783514,-0.0002485515205,0.002091231994,0.003044913156,-0.000619898209,0.002425014947,0.001496147594,-0.000302469898,0.001193677696,0.002308123096,-3.18935412e-06,0.002304933742,0.0002707940757,-0.000252022187,1.877188869e-05,0.0003902849537,2.342214359e-05,0.0004137070973,-0.0006387479303,0.001071094439,0.0004323465089,0.0006173006655,-0.0001632163721,0.0004540842933,-0.000640301811,8.245670047e-05,-0.0005578451106,-0.0001662734488,-4.259186125e-05,-0.00020886531
4.9,0.0005496218152,-7.700269444e-05,0.0004726191207,0.001855262377,-0.0005010898708,0.001354172506,-0.0007395798122,-0.0005132787719,-0.001252858584,0.0008412792845,-0.0005701861786,0.0002710931059,0.0007478004664,-0.000696206404,5.159406237e-05,0.0002475650752,-0.0005129366516,-0.0002653715763,4.00032727e-05,-0.0005047296367,-0.000464726364,0.0006679219139,-0.0008801133391,-0.0002121914252,-0.0003682366902,-0.0003421422341,-0.0007103789242,0.0005539419256,-0.0004046414997,0.0001493004259,0.001276815019,-0.0003813211926,0.0008954938265,0.002174481905,-0.0007409397945,0.001433542111,0.0007949980342,-0.001087664417,-0.000292666383,0.0001300620701,0.0002980797139,0.000428141784,0.000692818943,-0.0007676651127,-7.484616968e-05,-0.0003410978235,-0.0003763356776,-0.000717433501,-0.001240637463,-0.0001689202415,-0.001409557705,-9.183950687e-05,-0.0003982579018,-0.0004900974086,-0.0002634513231,0.0001605787805,-0.0001028725427,0.0003298666497,-0.0003070647182,2.280193158e-05,0.0004676626593,-0.0001276994803,0.000339963179,0.0007042202594,-0.0004180098516,0.0002862104078,0.001232175894,-0.0003991921042,0.0008329837896,0.0004291136824,-0.0002192368795,0.0002098768029,0.00163230031,-0.0003415488854,0.001290751424,0.003206826648,-0.0008592770195,0.002347549629,0.002302894101,-0.000220541172,0.002082352929,0.003043860454,-0.0006495090288,0.002394351425,0.001468200097,-0.0003076541014,0.001160545996,0.002277670816,1.64109893e-06,0.002279311915,0.0002497766078,-0.0002628582806,-1.308167275e-05,0.0003492664436,1.86887769e-05,0.0003679552205,-0.0006441369751,0.001075141182,0.0004310042068,0.0005267475104,-0.0001396285836,0.0003871189269,-0.0006668982564,8.071274822e-05,-0.0005861855082,-0.0001760870971,-6.027284914e-05,-0.0002363599462
5.0,0.0005579229895,-7.275521175e-05,0.0004851677778,0.001822542318,-0.0005105329384,0.001312009379,-0.000733527227,-0.0005082480158,-0.001241775243,0.0008147767058,-0.000581718555,0.0002330581508,0.0007407666419,-0.0006998801192,4.088652264e-05,0.0002070773126,-0.0005255561817,-0.0003184788691,4.467747957e-06,-0.0005090057544,-0.0005045380064,0.0005926045031,-0.0008801281437,-0.0002875236407,-0.0004060950125,-0.0003438588952,-0.0007499539077,0.0005136739539,-0.0004038826865,0.0001097912674,0.001259673477,-0.0003845284655,0.0008751450112,0.002132361926,-0.0007502602475,0.001382101679,0.0007694214805,-0.001122952799,-0.0003535313181,9.818486474e-05,0.0002921064527,0.0003902913175,0.000669058777,-0.0007823819447,-0.0001133231677,-0.000384828915,-0.0003833327186,-0.0007681616337,-0.001212907883,-0.0002233088352,-0.001436216718,-0.0001168766092,-0.0004082509435,-0.0005251275527,-0.0002998619284,0.0001546680447,-0.0001451938837,0.0002904949031,-0.0003099310288,-1.943612562e-05,0.0004647715329,-0.0001288805437,0.0003358909892,0.0006836861503,-0.0004183223735,0.0002653637768,0.00123489774,-0.0003989836354,0.0008359141041,0.0004193306493,-0.0002147000497,0.0002046305995,0.001638397696,-0.0003759130433,0.001262484653,0.003225232024,-0.0008806368314,0.002344595193,0.002262101224,-0.000193426745,0.002068674479,0.003037778059,-0.0006791993194,0.00235857874,0.001436679267,-0.0003121658208,0.001124513446,0.002243469641,6.495231124e-06,0.002249964872,0.0002262709319,-0.000273459928,-4.718899604e-05,0.0003067525338,1.401093513e-05,0.0003207634689,-0.0006526139259,0.001078824842,0.0004262109163,0.0004309193859,-0.0001148212267,0.0003160981593,-0.000695201754,7.926171367e-05,-0.0006159400403,-0.0001899505995,-7.762431424e-05,-0.0002675749137
5.1,0.0005651204659,-6.803677969e-05,0.0004970836862,0.001788063238,-0.0005196204299,0.001268442808,-0.000727491118,-0.0005024829127,-0.001229974031,0.0007872316177,-0.0005929275362,0.0001943040815,0.0007320286054,-0.0007030111733,2.90174321e-05,0.0001647623773,-0.0005380529596,-0.0003732905823,-3.393651544e-05,-0.0005130574,-0.0005469939154,0.0005130747656,-0.0008795931072,-0.0003665183416,-0.0004460119936,-0.0003453882874,-0.000791400281,0.0004701581788,-0.0004027828622,6.737531665e-05,0.001239091016,-0.0003879272056,0.0008511638107,0.00208742162,-0.000759647003,0.001327774617,0.0007425984491,-0.001158524115,-0.000415925666,6.305565073e-05,0.0002865130328,0.0003495686835,0.0006436078275,-0.0007972187525,-0.000153610925,-0.0004295074229,-0.0003903181089,-0.0008198255319,-0.00118617243,-0.0002762448678,-0.001462417298,-0.0001429178211,-0.0004175894326,-0.0005605072537,-0.0003326123248,0.0001448543021,-0.0001877580227,0.0002482808829,-0.0003127854435,-6.45045606e-05,0.0004611511139,-0.0001299594699,0.000331191644,0.0006608674083,-0.0004184710366,0.0002423963717,0.001236224432,-0.0003984422556,0.0008377821765,0.0004079488791,-0.0002097199927,0.0001982288864,0.001641711554,-0.0004092410998,0.001232470454,0.003240239513,-0.0009016493834,0.002338590129,0.002217552432,-0.0001675825212,0.002049969911,0.003026627943,-0.0007088704422,0.0023177575,0.00140147939,-0.0003160222899,0.001085457101,0.002205469572,1.129100795e-05,0.00221676058,0.000200164559,-0.0002837364609,-8.35719019e-05,0.0002628425411,9.363738276e-06,0.0002722062794,-0.0006645954314,0.00108203695,0.0004174415181,0.0003304141089,-8.915470202e-05,0.0002412594069,-0.0007251990719,7.81213698e-05,-0.0006470777022,-0.0002079242608,-9.446570294e-05,-0.0003023899637
5.2,0.0005711215707,-6.282872322e-05,0.0005082928475,0.001751837571,-0.0005282912799,0.001223546292,-0.0007216448878,-0.0004959810555,-0.001217625943,0.0007586447182,-0.0006037621503,0.0001548825678,0.0007214991718,-0.0007055642277,1.593494413e-05,0.0001205445223,-0.0005503805599,-0.0004298360375,-7.526846199e-05,-0.0005168369019,-0.0005921053639,0.0004294336652,-0.0008784791141,-0.0004490454489,-0.0004879989829,-0.0003467170789,-0.0008347160618,0.0004233753251,-0.0004013097614,2.206556371e-05,0.001215047463,-0.0003914867779,0.0008235606849,0.002039655888,-0.0007690933825,0.001270562505,0.0007144340033,-0.0011940634,-0.0004796293969,2.453836276e-05,0.0002813683148,0.0003059066776,0.0006164169371,-0.0008121079243,-0.0001956909872,-0.0004750786013,-0.0003972526717,-0.000872331273,-0.001161592604,-0.000326574237,-0.001488166841,-0.0001700097121,-0.0004261506614,-0.0005961603735,-0.0003613000105,0.0001309140685,-0.0002303859421,0.0002032311204,-0.0003155938481,-0.0001123627277,0.0004567693651,-0.0001309140357,0.0003258553294,0.0006357458995,-0.0004184218292,0.0002173240703,0.001235994296,-0.0003975685859,0.0008384257101,0.0003948555748,-0.000204276211,0.0001905793638,0.001642077126,-0.0004413081972,0.001200768929,0.003251774925,-0.000922235013,0.002329539912,0.002169393145,-0.0001433772987,0.002026015846,0.00301036647,-0.0007384217401,0.002271944729,0.001362481758,-0.0003192470331,0.001043234725,0.002163624377,1.595254971e-05,0.002179576927,0.0001713287541,-0.0002935934443,-0.0001222646902,0.0002176201142,4.71494129e-06,0.0002223350555,-0.0006803950031,0.001084581449,0.0004041864459,0.0002258431333,-6.299232973e-05,0.0001628508036,-0.0007568835873,7.730251463e-05,-0.0006795810727,-0.0002300365094,-0.0001106248963,-0.0003406614057
5.3,0.0005758296496,-5.711413996e-05,0.0005187155096,0.001713875597,-0.0005364874279,0.001177388169,-0.0007161677097,-0.0004887427047,-0.001204910414,0.0007290085511,-0.0006141737506,0.0001148348006,0.0007090878286,-0.0007075046371,1.583191452e-06,7.43459656e-05,-0.0005624918305,-0.0004881458649,-0.0001195833982,-0.0005202963692,-0.0006398797675,0.0003418002463,-0.0008767637169,-0.0005349634707,-0.0005320591538,-0.000347829591,-0.0008798887448,0.0003733152272,-0.0003994314703,-2.611624306e-05,0.001187549998,-0.0003951662871,0.0007923837105,0.001988995235,-0.0007785748972,0.001210420337,0.0006847985522,-0.001229231862,-0.0005444333097,-1.75163813e-05,0.0002767375473,0.000259221166,0.0005874316364,-0.0008269806364,-0.0002395489999,-0.0005215104966,-0.0004040897631,-0.0009256002597,-0.0011403236,-0.0003731973408,-0.001513520941,-0.000198222517,-0.0004338105395,-0.0006320330565,-0.0003856475203,0.0001126846832,-0.0002729628371,0.000155363124,-0.0003183225771,-0.0001629594531,0.0004515838858,-0.0001317232054,0.0003198606804,0.0006083248116,-0.0004181354101,0.0001901894015,0.001234034322,-0.0003963649127,0.0008376694095,0.0003799479885,-0.0001983492431,0.0001815987454,0.001639332998,-0.0004719179763,0.001167415022,0.003259752501,-0.0009423200458,0.002317432455,0.002117766755,-0.0001211735791,0.001996593175,0.002988944916,-0.000767752658,0.002221192258,0.001319556117,-0.0003218689898,0.0009976871272,0.002117892525,2.041127828e-05,0.002138303803,0.0001396205752,-0.0003029351597,-0.0001633145845,0.0001711515784,2.629813129e-08,0.0001711778765,-0.0007002082995,0.00108616547,0.0003859571703,0.0001178184206,-3.670045735e-05,8.111796322e-05,-0.0007902555597,7.68097571e-05,-0.0007134458026,-0.0002562911843,-0.0001259367192,-0.0003822279036
5.4,0.0005791445727,-5.087740657e-05,0.0005282671661,0.001674186766,-0.0005441536496,0.001130033116,-0.0007112424258,-0.0004807709383,-0.001192013364,0.0006983092075,-0.000624115904,7.419330353e-05,0.0006947029927,-0.0007087986264,-1.409563369e-05,2.608949783e-05,-0.0005743386321,-0.0005482491342,-0.0001669308811,-0.0005233879155,-0.0006903187966,0.0002503142795,-0.0008744330995,-0.00062411882,-0.0005781857132,-0.0003487079896,-0.0009268937028,0.0003199790131,-0.0003971167123,-7.713769923e-05,0.001156633419,-0.0003989153607,0.0007577180582,0.001935313843,-0.0007880454489,0.001147268394,0.000653537862,-0.001263675256,-0.0006101373939,-6.326280177e-05,0.0002726827098,0.000209419908,0.0005565939261,-0.0008417672687,-0.0002851733426,-0.0005687921122,-0.0004107767564,-0.0009795688686,-0.001123488951,-0.0004150936345,-0.001538582585,-0.0002276457943,-0.000440447628,-0.0006680934223,-0.000405508178,9.007159941e-05,-0.0003154365785,0.0001047066526,-0.0003209383378,-0.0002162316852,0.0004455434362,-0.0001323672283,0.0003131762079,0.0005786285416,-0.0004175680465,0.0001610604951,0.001230166693,-0.000394834399,0.0008353322938,0.000363137154,-0.0001919207147,0.0001712164393,0.001633323707,-0.0005009017157,0.001132421991,0.003264078737,-0.0009618384665,0.00230224027,0.002062819366,-0.0001013243359,0.00196149503,0.002962316693,-0.0007967648962,0.002165551797,0.001272566886,-0.0003239211822,0.0009486457034,0.002068242676,2.460631239e-05,0.002092848988,0.0001048891677,-0.0003116679984,-0.0002067788306,0.0001234868028,-4.744195307e-06,0.0001187426075,-0.0007241018818,0.001086397211,0.0003622953287,6.942131496e-06,-1.064721364e-05,-3.705082143e-06,-0.0008253191913,7.664294471e-05,-0.0007486762466,-0.0002866740768,-0.0001402408499,-0.0004269149267
5.5,0.0005809648466,-4.410377485e-05,0.0005368610718,0.001632782374,-0.0005512374288,0.001081544945,-0.0007070519399,-0.0004720717368,-0.001179123677,0.0006665294885,-0.0006335444131,3.29850754e-05,0.0006782565345,-0.0007094136111,-3.115707657e-05,-2.429762916e-05,-0.0005858717819,-0.0006101694111,-0.0002173508056,-0.0005260639702,-0.0007434147758,0.0001551385836,-0.0008714826244,-0.0007163440409,-0.0006263594147,-0.0003493327266,-0.0009756921413,0.0002633826917,-0.0003943351904,-0.0001309524986,0.00112236112,-0.0004026753015,0.000719685819,0.001878445643,-0.0007974341618,0.001081011482,0.0006204835308,-0.001297032105,-0.0006765485744,-0.000112847837,0.0002692628484,0.0001564150114,0.0005238456898,-0.0008563973654,-0.0003325516756,-0.0006169292735,-0.0004172565624,-0.001034185836,-0.001112154838,-0.0004513442232,-0.001563499061,-0.0002583807576,-0.0004459477912,-0.0007043285488,-0.0004208666734,6.305594874e-05,-0.0003578107246,5.13059007e-05,-0.0003234077822,-0.0002721018815,0.0004385908257,-0.0001328275875,0.0003057632381,0.0005467031981,-0.000416672855,0.000130030343,0.001224217041,-0.0003929802486,0.0008312367925,0.0003443519032,-0.0001849735315,0.0001593783717,0.00162390547,-0.0005281162839,0.001095789186,0.003264660651,-0.0009807328642,0.002283927786,0.002004707169,-8.416619894e-05,0.00192054097,0.00293044993,-0.000825364355,0.002105085575,0.001221382591,-0.000325439404,0.0008959431867,0.002014661607,2.84843013e-05,0.002043145908,6.698489045e-05,-0.0003197041094,-0.0002527192189,7.466181797e-05,-9.639230825e-06,6.502258715e-05,-0.0007520063855,0.001084792485,0.0003327860996,-0.0001062018182,1.480300209e-05,-9.139881614e-05,-0.0008620781958,7.680002755e-05,-0.0007852781682,-0.0003211573068,-0.0001533801395,-0.0004745374463
5.6,0.0005811907287,-3.677918568e-05,0.0005444115431,0.001589678816,-0.0005576890876,0.001031989728,-0.0007037749006,-0.0004626540269,-0.001166428928,0.0006336526447,-0.0006424174726,-8.764827897e-06,0.0006596690865,-0.0007093186347,-4.964954826e-05,-7.687937473e-05,-0.0005970411881,-0.0006739205629,-0.0002708688492,-0.0005282776263,-0.0007991464754,5.646095564e-05,-0.0008679165684,-0.0008114556127,-0.0006765462991,-0.000349683046,-0.001026229345,0.0002035607976,-0.0003910579385,-0.0001874971408,0.001084825604,-0.0004063804792,0.0006784451253,0.001818202035,-0.000806643183,0.001011558853,0.0005854612486,-0.001328940989,-0.0007434797406,-0.0001663991208,0.000266534106,0.0001001349852,0.0004891324814,-0.0008707991169,-0.0003816666356,-0.0006659394531,-0.000423469232,-0.001089408685,-0.001107305429,-0.0004811542433,-0.001588459672,-0.0002905309672,-0.0004502088545,-0.0007407398217,-0.0004318342994,3.170178549e-05,-0.0004001325139,-4.778257062e-06,-0.0003256970622,-0.0003304753193,0.0004306660698,-0.0001330869303,0.0002975791395,0.000512616794,-0.0004154013012,9.72154928e-05,0.001216022402,-0.00039080502,0.0008252173824,0.0003235420568,-0.0001774922708,0.000146049786,0.001610953623,-0.0005534419608,0.001057511662,0.003261415481,-0.0009989546458,0.002262460836,0.001943601721,-7.000918282e-05,0.001873592539,0.002893341853,-0.0008534626834,0.00203987917,0.001165886021,-0.0003264615728,0.0008394244478,0.001957162123,3.199862489e-05,0.001989160748,2.576874927e-05,-0.0003269644499,-0.0003011957006,2.470170384e-05,-1.469852462e-05,1.000317922e-05,-0.000783716119,0.00108078956,0.0002970734414,-0.0002210562716,3.929995368e-05,-0.0001817563179,-0.0009005313526,7.728069711e-05,-0.0008232506555,-0.0003597020119,-0.0001651997576,-0.0005249017695
5.7,0.0005797273988,-2.88903662e-05,0.0005508370326,0.001544900271,-0.0005634621838,0.0009814380874,-0.000701581784,-0.0004525296939,-0.001154111478,0.0005996655806,-0.0006506958817,-5.103030117e-05,0.0006388743615,-0.0007084848292,-6.961046762e-05,-0.000131707132,-0.0006077961065,-0.0007395032385,-0.0003274926534,-0.0005299829538,-0.0008574756072,-4.550431696e-05,-0.0008637478435,-0.0009092521605,-0.0007286964964,-0.0003497374126,-0.001078433909,0.0001405688063,-0.0003872576657,-0.0002466888594,0.0010441474,-0.0004099598705,0.0006341875297,0.00175438493,-0.0008155465955,0.0009388383344,0.0005482959424,-0.001359047381,-0.0008107514382,-0.000224016267,0.0002645492869,4.053301991e-05,0.0004524066537,-0.000884898601,-0.0004324919473,-0.0007158465573,-0.0004293537297,-0.001145200287,-0.001109820136,-0.00050387517,-0.001613695306,-0.0003241937619,-0.0004531444275,-0.0007773381893,-0.0004386411783,-3.836768263e-06,-0.0004424779465,-6.346681634e-05,-0.0003277717301,-0.0003912385465,0.0004217087762,-0.0001331291407,0.0002885796355,0.0004764582474,-0.0004137049016,6.275334586e-05,0.001205437194,-0.0003883101941,0.0008171270004,0.0003006800154,-0.0001694637612,0.0001312162542,0.001594369338,-0.0005767804868,0.001017588851,0.003254278197,-0.001016463583,0.002237814614,0.001879689006,-5.912422011e-05,0.001820564786,0.002851031091,-0.0008809783489,0.001970052742,0.001105982903,-0.0003270280595,0.0007789548435,0.001895789255,3.51077996e-05,0.001930897054,-1.887997786e-05,-0.0003333807495,-0.0003522607274,-2.637785073e-05,-1.995472686e-05,-4.63325776e-05,-0.0008188977426,0.001073771782,0.0002548740399,-0.0003370994457,6.252035843e-05,-0.0002745790873,-0.000940668169,7.808881645e-05,-0.0008625793526,-0.0004022601353,-0.0001755471008,-0.0005778072361
5.8,0.0005764874534,-2.042517446e-05,0.000556062279,0.001498479999,-0.000568513959,0.00092996604,-0.0007006321791,-0.0004417135795,-0.001142345759,0.0005645607975,-0.0006583432135,-9.378241596e-05,0.0006158213705,-0.0007068858055,-9.106443502e-05,-0.0001888170831,-0.0006180855172,-0.0008069026003,-0.0003872096004,-0.0005311352784,-0.0009183448788,-0.0001505156463,-0.000858997861,-0.001009513507,-0.0007827444385,-0.0003494738149,-0.001132218253,7.448372744e-05,-0.0003829091059,-0.0003084253784,0.001000471949,-0.0004133386818,0.0005871332668,0.001686792538,-0.000823990629,0.0008628019087,0.0005088135264,-0.001387010257,-0.0008781967306,-0.0002857668707,0.0002633570415,-2.240982925e-05,0.0004136293569,-0.0008986191749,-0.000484989818,-0.0007666763116,-0.0004348498635,-0.001201526175,-0.001120453344,-0.0005190255672,-0.001639478911,-0.000359454368,-0.0004546862629,-0.0008141406308,-0.0004416274888,-4.330977814e-05,-0.000484937267,-0.0001246625655,-0.0003295970381,-0.0004542596036,0.0004116592222,-0.0001329395568,0.0002787196654,0.0004383347634,-0.0004115369723,2.679779102e-05,0.00119233651,-0.000385495974,0.000806840536,0.0002757605132,-0.0001608777262,0.000114882787,0.001574083363,-0.0005980529302,0.0009760304324,0.003243204565,-0.001033226621,0.002209977943,0.001813161813,-5.173061265e-05,0.001761431201,0.002803605179,-0.0009078371805,0.001895767999,0.001041607935,-0.0003271828173,0.0007144251174,0.001830623891,3.777332495e-05,0.001868397216,-6.705884646e-05,-0.0003388962939,-0.0004059551403,-7.857086799e-05,-2.542932581e-05,-0.0001040001938,-0.0008571088199,0.001063097162,0.0002059883421,-0.000453851981,8.417941995e-05,-0.0003696725611,-0.0009824643789,7.923229673e-05,-0.0009032320822,-0.0004487745672,-0.0001842728748,-0.000633047442
5.9,0.0005713924292,-1.137310183e-05,0.0005600193273,0.001450460075,-0.0005728056407,0.000877654434,-0.0007010735248,-0.0004302235184,-0.001131297043,0.0005283369177,-0.0006653258887,-0.000136988971,0.0005904743357,-0.000704497948,-0.0001140236123,-0.0002482287586,-0.000627858659,-0.0008760874176,-0.0004499863646,-0.0005316914635,-0.0009816778281,-0.0002583046114,-0.0008536957915,-0.001112000403,-0.0008386104019,-0.0003488699398,-0.001187480342,5.40295498e-06,-0.0003779893563,-0.0003725864013,0.0009539646979,-0.0004164399652,0.0005375247328,0.001615219891,-0.000831795975,0.000783423916,0.0004668386602,-0.001412507099,-0.0009456684393,-0.0003516868966,0.0002630009557,-8.868594088e-05,0.000372771244,-0.0009118811096,-0.0005391098656,-0.0008184528612,-0.0004399001864,-0.001258353048,-0.001139818225,-0.0005263073341,-0.001666125559,-0.0003963830514,-0.0004547854245,-0.0008511684759,-0.0004412334832,-8.636954869e-05,-0.0005276030319,-0.0001882515585,-0.0003311383645,-0.000519389923,0.0004004581369,-0.0001325051966,0.0002679529403,0.0003983676465,-0.0004088541975,-1.0486551e-05,0.001176616883,-0.0003823612605,0.0007942556221,0.0002487987987,-0.0001517273617,9.707143691e-05,0.001550055803,-0.0006171971622,0.0009328586405,0.003228169512,-0.001049215892,0.00217895362,0.001744207951,-4.798580118e-05,0.00169622215,0.002751202091,-0.0009339723533,0.001817229737,0.0009727279934,-0.0003269749317,0.0006457530617,0.001761783263,3.995780636e-05,0.00180174107,-0.0001188397918,-0.0003434656713,-0.000462305463,-0.000131882529,-3.112931029e-05,-0.0001630118393,-0.0008978242272,0.001048132419,0.000150308192,-0.0005708815228,0.0001040392801,-0.0004668422427,-0.001025877958,8.072081136e-05,-0.0009451571465,-0.0004991765797,-0.0001912340569,-0.0006904106366
6.0,0.000564373431,-1.725851776e-06,0.0005626475792,0.001400889929,-0.0005763025573,0.0008245873717,-0.0007030410774,-0.0004180804479,-0.001121121525,0.0004909980579,-0.0006716131627,-0.0001806151047,0.0005628107776,-0.0007013006205,-0.0001384898429,-0.0003099445902,-0.0006370656809,-0.000947010271,-0.0005157699617,-0.0005316101821,-0.001047380144,-0.0003685782395,-0.0008478763834,-0.001216454623,-0.0008962030165,-0.000347903213,-0.00124410623,-6.655811743e-05,-0.0003724781403,-0.0004390362578,0.0009048050673,-0.0004191861226,0.0004856189447,0.001539458211,-0.000838763104,0.0007006951074,0.0004221891931,-0.001435235966,-0.001013046772,-0.0004217839782,0.0002635188649,-0.0001582651133,0.000329812139,-0.0009246013148,-0.0005947891758,-0.0008711970088,-0.000444451647,-0.001315648656,-0.001168375546,-0.0005256148737,-0.00169399042,-0.0004350342069,-0.0004534131569,-0.0008884473637,-0.0004379881769,-0.0001325736198,-0.0005705617967,-0.0002541058572,-0.0003323614902,-0.0005864673475,0.0003880456389,-0.0001318148994,0.0002562307396,0.0003566870483,-0.0004056178882,-4.893083989e-05,0.001158195282,-0.000378903775,0.0007792915069,0.0002198278917,-0.0001420098081,7.781808365e-05,0.001522272274,-0.0006341650831,0.0008881071905,0.003209162005,-0.001064406144,0.002144755862,0.001672996751,-4.797854307e-05,0.001625018208,0.002694006084,-0.0009593238552,0.001734682228,0.0008993430843,-0.0003264602418,0.0005728828424,0.001689418144,4.162425281e-05,0.001731042396,-0.000174268046,-0.0003470538899,-0.0005213219359,-0.0001863306258,-3.704513445e-05,-0.0002233757603,-0.0009404665775,0.001028287449,8.782087196e-05,-0.0006878049581,0.0001219145201,-0.0005658904379,-0.001070846622,8.25622231e-05,-0.0009882843993,-0.0005533815345,-0.0001962982461,-0.0007496797806
6.1,0.0005553711652,8.522086343e-06,0.0005638932516,0.001349824281,-0.0005789740846,0.0007708501965,-0.0007066585791,-0.0004053085533,-0.001111967132,0.0004525525697,-0.0006771770565,-0.0002246244868,0.0005328186788,-0.0006972762898,-0.000164457611,-0.0003739501374,-0.0006456582914,-0.001019608429,-0.0005844897168,-0.0005308521152,-0.001115341832,-0.0004810230734,-0.0008415764377,-0.001322599511,-0.0009554221658,-0.000346550752,-0.001301972918,-0.0001412689483,-0.0003663579381,-0.0005076268864,0.0008531801807,-0.0004215002545,0.0004316799262,0.001459296297,-0.0008446801492,0.0006146161479,0.0003746702177,-0.001454915589,-0.001080245372,-0.0004960415001,0.0002649425618,-0.0002310989383,0.0002847404853,-0.0009366932941,-0.0006519528087,-0.0009249256716,-0.0004484569435,-0.001373382615,-0.00120642645,-0.0005170362082,-0.001723462658,-0.0004754460455,-0.000450561902,-0.0009260079474,-0.0004324970907,-0.0001813931645,-0.0006138902552,-0.0003220868438,-0.0003332326827,-0.0006553195265,0.000374360089,-0.0001308594306,0.0002435006584,0.0003134265752,-0.000401794994,-8.836841877e-05,0.001137007416,-0.000375120324,0.0007618870925,0.0001888957819,-0.000131726535,5.716924693e-05,0.001490737867,-0.0006489199085,0.0008418179586,0.003186178498,-0.001078771994,0.002107406504,0.001599665636,-5.172494833e-05,0.001547940688,0.002632239568,-0.0009838373721,0.001648402196,0.0008214860523,-0.0003257026183,0.0004957834339,0.001613707686,4.273673857e-05,0.001656444424,-0.0002333612536,-0.0003496354111,-0.0005829966648,-0.0002419461157,-4.315009827e-05,-0.000285096214,-0.0009844370276,0.001003046802,1.860977397e-05,-0.0008042887466,0.0001376756072,-0.0006666131394,-0.001117286793,8.475814908e-05,-0.001032528644,-0.000611285175,-0.0001993478544,-0.0008106330294
6.2,0.000544335803,1.937298055e-05,0.0005637087835,0.001297321175,-0.0005807934186,0.000716527756,-0.0007120389374,-0.0003919353626,-0.0011039743,0.0004130117877,-0.0006819922683,-0.0002689804806,0.0005004938857,-0.0006924105703,-0.0001919166846,-0.000440214558,-0.0006535903269,-0.001093804885,-0.0006560593311,-0.0005293800728,-0.001185439404,-0.0005953104045,-0.0008348307957,-0.0014301412,-0.001016161544,-0.0003447893512,-0.001360950895,-0.0002185862485,-0.0003596140009,-0.0005782002494,0.0007992794773,-0.0004233073843,0.000375972093,0.001374525522,-0.0008493314908,0.0005251940307,0.0003240712748,-0.001471286215,-0.001147214941,-0.0005744209755,0.0002672978716,-0.0003071231039,0.0002375536015,-0.0009480677238,-0.0007105141222,-0.0009796513488,-0.0004518755991,-0.001431526948,-0.001254109201,-0.0005008461349,-0.001754955335,-0.0005176400162,-0.0004462461722,-0.0009638861884,-0.0004254273132,-0.0002322278079,-0.0006576551211,-0.0003920481493,-0.000333718726,-0.0007257668753,0.0003593377224,-0.0001296316128,0.0002297061096,0.0002687189198,-0.0003973589831,-0.0001286400634,0.001113006543,-0.0003710071711,0.0007419993723,0.0001560634645,-0.0001208836234,3.517984105e-05,0.001455471241,-0.0006614342653,0.000794036976,0.003159217421,-0.001092285383,0.002066932037,0.001524309506,-5.916736069e-05,0.001465142146,0.002566153694,-0.001007462321,0.001558691373,0.0007392224647,-0.0003247743362,0.0004144481285,0.001534854255,4.326176136e-05,0.001578116017,-0.0002961078747,-0.0003511934472,-0.0006473013219,-0.0002987719542,-4.940108475e-05,-0.000348173039,-0.001029144543,0.0009719966579,-5.714788532e-05,-0.0009200480476,0.0001512514052,-0.0007687966424,-0.001165093275,8.72992641e-05,-0.00107779401,-0.000672761635,-0.0002002831471,-0.0008730447821
6.3,0.0005312272016,3.082560648e-05,0.0005620528081,0.00124344094,-0.0005817372124,0.0006617037278,-0.0007192842081,-0.0003779917354,-0.001097275943,0.0003723894721,-0.0006860361146,-0.0003136466425,0.0004658389667,-0.0006866922358,-0.0002208532691,-0.0005086907789,-0.0006608182596,-0.001169509038,-0.0007303781002,-0.0005271591446,-0.001257537245,-0.0007111018633,-0.0008276685125,-0.001538770376,-0.00107831015,-0.0003425956393,-0.001420905789,-0.0002983550275,-0.0003522343276,-0.0006505893551,0.0007432913185,-0.0004245356046,0.000318755714,0.001284949715,-0.0008525051838,0.0004324445312,0.0002701690093,-0.001484113237,-0.001213944228,-0.0006568604294,0.0002706049618,-0.0003862554676,0.0001882594135,-0.0009586337891,-0.0007703743757,-0.001035380481,-0.0004546746361,-0.001490055117,-0.001311400426,-0.0004774938658,-0.001788894292,-0.0005616192331,-0.0004405029421,-0.001002122175,-0.0004174876554,-0.0002844261069,-0.0007019137623,-0.0004638372579,-0.0003337870363,-0.0007976242942,0.0003429137718,-0.0001281264191,0.0002147873527,0.0002226935804,-0.0003922906081,-0.0001695970277,0.001086163828,-0.0003665604585,0.0007196033699,0.0001214045381,-0.0001094919138,1.191262428e-05,0.001416501415,-0.0006716900194,0.0007448113957,0.003128277271,-0.001104913457,0.002023363814,0.001446976449,-7.017699079e-05,0.001376799458,0.0024960208,-0.001030148842,0.001465871958,0.0006526520924,-0.0003237551085,0.0003288969839,0.001453080951,4.316948865e-05,0.001496250439,-0.000362464181,-0.0003517196141,-0.0007141837951,-0.0003568594977,-5.574045163e-05,-0.0004125999493,-0.001074032323,0.000934846395,-0.0001391859275,-0.001034844875,0.000162631414,-0.0008722134613,-0.001214139124,9.016134656e-05,-0.001123977778,-0.0007376626443,-0.0001990240831,-0.0009366867274
6.4,0.0005160160102,4.28751915e-05,0.0005588912017,0.001188246774,-0.0005817852235,0.0006064615509,-0.0007284844038,-0.0003635117583,-0.001091996162,0.0003307024737,-0.000689288587,-0.0003585861133,0.0004288643625,-0.0006801132978,-0.0002512489353,-0.0005793149357,-0.0006673016977,-0.001246616633,-0.000807330629,-0.0005241569898,-0.001331487619,-0.000828054692,-0.000820109407,-0.001648164099,-0.001141752411,-0.0003399464619,-0.001481698873,-0.000380407859,-0.000344209662,-0.0007246175209,0.0006854021562,-0.000425117135,0.0002602850213,0.001190400385,-0.000853998417,0.0003364019681,0.0002127360657,-0.001493193589,-0.001280457523,-0.000743268119,0.0002748787841,-0.0004683893349,0.0001368795023,-0.0009683008802,-0.0008314213779,-0.001092110329,-0.0004568287042,-0.001548939033,-0.001378117984,-0.0004475900877,-0.001825708072,-0.0006073653691,-0.000433391568,-0.001040756937,-0.0004094049388,-0.000337307526,-0.0007467124648,-0.0005372952732,-0.0003334059429,-0.0008707012161,0.0003250253253,-0.0001263409057,0.0001986844196,0.0001754770901,-0.0003865785089,-0.0002111014188,0.001056470559,-0.0003617766616,0.0006946938973,8.500647916e-05,-9.756706321e-05,-1.256058405e-05,0.001373869052,-0.0006796800122,0.0006941890402,0.003093360122,-0.001116617062,0.001976743059,0.001367671591,-8.455981685e-05,0.001283111774,0.002422131132,-0.001051843973,0.001370287159,0.0005619124857,-0.0003227298568,0.0002391826288,0.001368632702,4.243476967e-05,0.001411067471,-0.0004323496077,-0.000351214134,-0.0007835637418,-0.0004162623245,-6.209873656e-05,-0.0004783610611,-0.001118599873,0.0008914438294,-0.000227156044,-0.001148484467,0.0001718667997,-0.0009766176672,-0.001264275768,9.330306139e-05,-0.001170972706,-0.0008058172804,-0.0001955110478,-0.001001328328
6.5,0.000498685809,5.551346646e-05,0.0005541992755,0.001131807001,-0.0005809201974,0.0005508868034,-0.0007397151951,-0.0003485326046,-0.0010882478,0.0002879725972,-0.0006917325787,-0.0004037599815,0.0003895916085,-0.0006726692124,-0.0002830776039,-0.0006520051054,-0.0006730038742,-0.00132500898,-0.0008867851795,-0.0005203442689,-0.001407129448,-0.000945826344,-0.0008121610442,-0.001757987388,-0.001206367393,-0.0003368194218,-0.001543186815,-0.0004645628817,-0.0003355335096,-0.0008000963913,0.0006257976768,-0.0004249892568,0.00020080842,0.001090754865,-0.0008536211449,0.0002371337205,0.0001515553609,-0.001498363336,-0.001346807975,-0.0008335137067,0.0002801295959,-0.0005533841109,8.345249457e-05,-0.0009769800548,-0.0008935275602,-0.00114982481,-0.0004583197044,-0.001608144514,-0.001453921448,-0.0004118955379,-0.001865816986,-0.0006548344069,-0.0004249933671,-0.001079827774,-0.000401899377,-0.000390181994,-0.000792081371,-0.0006122551774,-0.0003325452158,-0.0009448003933,0.0003056154406,-0.0001242739976,0.000181341443,0.0001271950546,-0.0003802196945,-0.0002530246398,0.001023941297,-0.0003566531301,0.0006672881666,4.697280216e-05,-8.512963543e-05,-3.815683327e-05,0.00132763216,-0.0006854110142,0.0006422211462,0.003054480138,-0.00112734999,0.001927130149,0.00128636805,-0.0001020633662,0.001184304683,0.002344794292,-0.001072487915,0.001272306377,0.0004671834674,-0.0003217858041,0.0001453976633,0.001281779242,4.103833329e-05,0.001322817575,-0.0005056413006,-0.000349686902,-0.0008553282026,-0.0004770282487,-6.839792278e-05,-0.0005454261715,-0.00116242086,0.0008417848032,-0.000320636057,-0.001260809054,0.0001790678409,-0.001081741213,-0.001315333922,9.666632177e-05,-0.0012186676,-0.0008770323623,-0.0001897042844,-0.001066736647
6.6,0.0004792357453,6.872876414e-05,0.0005479645095,0.001074198204,-0.0005791281584,0.0004950700458,-0.0007530352281,-0.0003330943911,-0.001086129619,0.0002442289055,-0.0006933542401,-0.0004491253346,0.0003480572438,-0.0006643591743,-0.0003163019305,-0.0007266598911,-0.0006778920798,-0.001404551971,-0.0009685915957,-0.0005156951372,-0.001484286733,-0.001064078401,-0.0008038164275,-0.001867894828,-0.001272028005,-0.0003331934403,-0.001605221445,-0.0005506217867,-0.0003262021632,-0.0008768239498,0.0005646644315,-0.0004240951315,0.0001405693,0.0009859523724,-0.0008511985935,0.0001347537789,8.643657174e-05,-0.001499504561,-0.001413067989,-0.0009274207302,0.0002863634675,-0.0006410572627,2.803682539e-05,-0.000984585134,-0.0009565483086,-0.001208490363,-0.0004591361146,-0.001667626478,-0.001538310603,-0.0003713075741,-0.001909618177,-0.0007039527279,-0.0004154109066,-0.001119363634,-0.0003956608197,-0.0004423671181,-0.0008380279379,-0.0006885396219,-0.0003311769387,-0.001019716561,0.0002846374711,-0.0001219263106,0.0001627111605,7.797449974e-05,-0.0003732200322,-0.0002952455324,0.0009886163178,-0.0003511887637,0.0006374275541,7.424793261e-06,-7.220531802e-05,-6.478052476e-05,0.001277873813,-0.0006889069174,0.0005889668952,0.003011673859,-0.001137058876,0.001874614983,0.001203021635,-0.0001223823623,0.001080639273,0.002264343416,-0.001092011793,0.001172331623,0.0003686903984,-0.0003210095851,4.768081324e-05,0.001192817062,3.89683772e-05,0.001231785439,-0.0005821695577,-0.0003471593612,-0.0009293289189,-0.0005391909782,-7.455514173e-05,-0.0006137461199,-0.001205158586,0.000786019346,-0.0004191392403,-0.001371689486,0.000184396303,-0.001187293183,-0.001367125994,0.0001001793844,-0.00126694661,-0.0009510935121,-0.000181582152,-0.001132675664
6.7,0.0004576827055,8.250614637e-05,0.0005401888518,0.001015507999,-0.0005763990966,0.0004391089024,-0.0007684840501,-0.0003172400422,-0.001085724092,0.0001995094247,-0.0006941433549,-0.0004946339302,0.0003043156726,-0.0006551863823,-0.0003508707096,-0.0008031576088,-0.0006819380257,-0.001485095635,-0.001052579953,-0.0005101877413,-0.001562767694,-0.001182480233,-0.0007950525878,-0.001977532821,-0.001338601008,-0.0003290492289,-0.001667650237,-0.0006383689731,-0.000316214765,-0.0009545837381,0.0005021905045,-0.0004223845534,7.980595106e-05,0.0008760037148,-0.0008465738119,2.942990293e-05,1.723061004e-05,-0.001496550271,-0.001479319661,-0.001024763438,0.000293582611,-0.0007311808269,-2.928770158e-05,-0.0009910336762,-0.001020321378,-0.001268053133,-0.0004592722363,-0.001727325369,-0.001630626111,-0.000326840967,-0.001957467078,-0.0007546153209,-0.0004047668863,-0.001159382207,-0.0003913262621,-0.000493206054,-0.0008845323161,-0.000765959396,-0.000329276717,-0.001095236113,0.0002620585293,-0.0001193001627,0.0001427583666,2.794514584e-05,-0.0003655947993,-0.0003376496534,0.0009505620178,-0.0003453847868,0.000605177231,-3.349825087e-05,-5.882522685e-05,-9.232347772e-05,0.00122470839,-0.0006902113617,0.0005344970286,0.002965008233,-0.001145683692,0.001819324541,0.001117585607,-0.000145163776,0.0009724218312,0.002181138066,-0.001110337722,0.001070800344,0.0002667044971,-0.0003204847775,-5.378028038e-05,0.00110206819,3.622242398e-05,0.001138290614,-0.0006617155238,-0.0003436666305,-0.001005382154,-0.0006027628369,-8.048664041e-05,-0.0006832494774,-0.001246579716,0.000724455786,-0.0005221239297,-0.001481016332,0.0001880539035,-0.001292962428,-0.001419450236,0.0001037616522,-0.001315688583,-0.00102776597,-0.0001711394562,-0.001198905427
