Time,S1D1HbO,S1D1HbR,S1D1HbT,S2D2HbO,S2D2HbR,S2D2HbT,S3D3HbO,S3D3HbR,S3D3HbT,S4D4HbO,S4D4HbR,S4D4HbT,S5D5HbO,S5D5HbR,S5D5HbT,S6D6HbO,S6D6HbR,S6D6HbT,S7D7HbO,S7D7HbR,S7D7HbT,S8D8HbO,S8D8HbR,S8D8HbT,S9D9HbO,S9D9HbR,S9D9HbT,S10D10HbO,S10D10HbR,S10D10HbT,S11D11HbO,S11D11HbR,S11D11HbT,S12D12HbO,S12D12HbR,S12D12HbT,S13D13HbO,S13D13HbR,S13D13HbT,S14D14HbO,S14D14HbR,S14D14HbT,S15D15HbO,S15D15HbR,S15D15HbT,S16D16HbO,S16D16HbR,S16D16HbT,S17D17HbO,S17D17HbR,S17D17HbT,S18D18HbO,S18D18HbR,S18D18HbT,S19D19HbO,S19D19HbR,S19D19HbT,S20D20HbO,S20D20HbR,S20D20HbT,S21D21HbO,S21D21HbR,S21D21HbT,S22D22HbO,S22D22HbR,S22D22HbT,S23D23HbO,S23D23HbR,S23D23HbT,S24D24HbO,S24D24HbR,S24D24HbT,S25D25HbO,S25D25HbR,S25D25HbT,S26D26HbO,S26D26HbR,S26D26HbT,S27D27HbO,S27D27HbR,S27D27HbT,S28D28HbO,S28D28HbR,S28D28HbT,S29D29HbO,S29D29HbR,S29D29HbT,S30D30HbO,S30D30HbR,S30D30HbT,S31D31HbO,S31D31HbR,S31D31HbT,S32D32HbO,S32D32HbR,S32D32HbT,S33D33HbO,S33D33HbR,S33D33HbT,S34D34HbO,S34D34HbR,S34D34HbT,S35D35HbO,S35D35HbR,S35D35HbT,S36D36HbO,S36D36HbR,S36D36HbT
0.0,-0.0007091970601,0.0004396198655,-0.0002695771946,0.0006918361391,0.0001771228222,0.0008689589613,-0.0001482815583,4.505295299e-05,-0.0001032286053,0.001161419254,-3.626114845e-05,0.001125158105,0.001365353025,-6.733846249e-05,0.001298014562,0.001010057231,1.132465489e-07,0.001010170478,0.001747224022,-1.185138205e-05,0.00173537264,0.001287345017,3.22226485e-05,0.001319567665,0.003454257476,-3.376601135e-05,0.003420491464,0.002214947055,-0.000102027134,0.002112919921,0.001615116233,-0.0001602149416,0.001454901292,0.0008881479311,8.750646169e-05,0.0009756543928,0.001780058421,-0.0001181840177,0.001661874403,0.001517506064,5.659435272e-05,0.001574100417,0.001435859922,-0.0001072672745,0.001328592647,0.001246022758,-6.481505338e-05,0.001181207704,0.001270037981,-1.922072407e-05,0.001250817257,0.000745290131,-0.0001341376544,0.0006111524767,0.001074339045,-3.708448364e-05,0.001037254561,0.0009336131675,-1.576386009e-05,0.0009178493074,0.0008125036524,-6.082178787e-05,0.0007516818645,0.00186210611,0.0001585177895,0.0020206239,0.0002765793382,-7.918486264e-05,0.0001973944756,-0.001222925766,-7.989215889e-05,-0.001302817925,0.001008595424,0.0002498585825,0.001258454006,0.001339844978,0.0003172515554,0.001657096533,0.0010159173,9.465606275e-05,0.001110573362,0.001671756186,-1.032311543e-05,0.001661433071,0.001221517502,-9.496849854e-05,0.001126549003,0.001298652069,-0.0003149188861,0.0009837331827,0.0009910094222,-3.555426418e-05,0.000955455158,0.0006198932434,-0.0001165784609,0.0005033147825,0.001107884404,2.21046381e-05,0.001129989042,0.001229949269,0.000210903094,0.001440852363,0.001100719904,-7.65839196e-05,0.001024135984,0.00101210753,3.391090678e-06,0.001015498621
0.1,-0.0007634765021,0.0004442257814,-0.0003192507207,0.000679283151,0.0001813668774,0.0008606500284,-0.0001735600302,4.726101826e-05,-0.0001262990119,0.001148700817,-3.913741828e-05,0.001109563399,0.001367497926,-7.168291933e-05,0.001295815007,0.0009983355442,-1.722931393e-06,0.0009966126128,0.001749885657,-1.281546537e-05,0.001737070191,0.001277438995,3.080544805e-05,0.001308244443,0.00349404363,-3.605366678e-05,0.003457989964,0.002205808975,-0.0001052905117,0.002100518463,0.001579332787,-0.0001675474636,0.001411785324,0.0008955013215,9.090022484e-05,0.0009864015463,0.001759308667,-8.820668204e-05,0.001671101985,0.001534282706,5.903012578e-05,0.001593312832,0.001443087492,-0.0001130367907,0.001330050702,0.001290253116,-6.687760429e-05,0.001223375512,0.001302120166,-2.215423268e-05,0.001279965934,0.0007707559313,-0.0001478679157,0.0006228880155,0.001096161811,-3.950708898e-05,0.001056654722,0.0009042237188,-1.855423512e-05,0.0008856694836,0.0007615338403,-6.578258884e-05,0.0006957512514,0.001845926066,0.0001534940314,0.001999420097,0.0002555167246,-8.155635041e-05,0.0001739603742,-0.001228117306,-7.632285191e-05,-0.001304440158,0.0009772937777,0.0002534315414,0.001230725319,0.001326914597,0.0003149027441,0.001641817341,0.001004482531,8.859859314e-05,0.001093081124,0.001662306309,-9.320179398e-06,0.001652986129,0.001229271893,-0.0001048981595,0.001124373733,0.001300048807,-0.0003281451123,0.000971903695,0.0009994203235,-4.129266416e-05,0.0009581276594,0.000619351213,-0.0001265364283,0.0004928147848,0.001089636952,2.221148128e-05,0.001111848434,0.001187388981,0.0002282637998,0.001415652781,0.001108912223,-8.80853189e-05,0.001020826904,0.001009857559,-6.442643074e-06,0.001003414916
0.2,-0.0008215002389,0.0004482109806,-0.0003732892583,0.0006603988067,0.0001848641952,0.0008452630019,-0.0002027001502,4.917061132e-05,-0.0001535295389,0.001129114519,-4.243166293e-05,0.001086682856,0.001364734038,-7.614276897e-05,0.001288591269,0.0009805008641,-3.614797856e-06,0.0009768860662,0.001746369524,-1.384669702e-05,0.001732522827,0.001262341958,2.930369393e-05,0.001291645652,0.003526057255,-3.840584806e-05,0.003487651407,0.002189803894,-0.0001084464845,0.00208135741,0.001537223981,-0.0001747651445,0.001362458837,0.0008984254816,9.476681185e-05,0.0009931922934,0.001730906145,-5.681506649e-05,0.001674091079,0.00154728654,6.12140519e-05,0.001608500592,0.001445911938,-0.0001187130837,0.001327198854,0.001330162131,-6.931055118e-05,0.00126085158,0.001330587451,-2.524648764e-05,0.001305340963,0.0007913398753,-0.0001618584492,0.000629481426,0.00111376825,-4.192300802e-05,0.001071845242,0.0008701583102,-2.144607586e-05,0.0008487122344,0.0007059668958,-7.090149997e-05,0.0006350653959,0.001826695337,0.0001478341365,0.001974529474,0.0002311629292,-8.393500198e-05,0.0001472279272,-0.00123426869,-7.263070889e-05,-0.001306899399,0.0009422774371,0.0002566166206,0.001198894058,0.001309303699,0.0003125786929,0.001621882392,0.0009885580681,8.297280955e-05,0.001071530878,0.00164669723,-7.458110167e-06,0.00163923912,0.001232722808,-0.0001149869656,0.001117735842,0.001295840185,-0.0003411149644,0.0009547252202,0.001004352169,-4.746525857e-05,0.0009568869108,0.0006149918157,-0.0001367460872,0.0004782457285,0.001066256467,2.249376216e-05,0.001088750229,0.001136962669,0.0002457169033,0.001382679572,0.001111877302,-9.998474545e-05,0.001011892557,0.001003146537,-1.679509297e-05,0.0009863514438
0.3,-0.0008830153503,0.000451627252,-0.0004313880982,0.0006351042784,0.0001875835446,0.000822687823,-0.0002355277193,5.077497061e-05,-0.0001847527487,0.001102738519,-4.614108934e-05,0.00105659743,0.001357056304,-8.070309455e-05,0.001276353209,0.0009565027856,-5.551975339e-06,0.0009509508103,0.00173658302,-1.494997553e-05,0.001721633045,0.001241857662,2.774216725e-05,0.001269599829,0.003550107287,-4.081206713e-05,0.00350929522,0.002166877751,-0.0001114787004,0.00205539905,0.001488933132,-0.0001818393145,0.001307093818,0.0008967275508,9.909405243e-05,0.0009958216032,0.001695021263,-2.437535497e-05,0.001670645908,0.001556281326,6.308894483e-05,0.001619370271,0.001444180591,-0.0001242933298,0.001319887261,0.001365315574,-7.211878526e-05,0.001293196789,0.001355084681,-2.850097401e-05,0.001326583707,0.0008067962994,-0.0001760432387,0.0006307530607,0.001126854069,-4.431381274e-05,0.001082540256,0.0008314115439,-2.443136005e-05,0.0008069801839,0.0006460447463,-7.616720077e-05,0.0005698775455,0.001804532448,0.0001415439878,0.001946076436,0.0002036406129,-8.631283015e-05,0.0001173277827,-0.001241373276,-6.882367735e-05,-0.001310196953,0.0009035973794,0.0002594067344,0.001163004114,0.001286829734,0.0003103277342,0.001597157468,0.0009681179501,7.770253984e-05,0.00104582049,0.001624838743,-4.716481999e-06,0.001620122261,0.001231702675,-0.0001251884986,0.001106514176,0.001285925509,-0.0003537773687,0.0009321481399,0.001005614477,-5.40958631e-05,0.0009515186143,0.0006066365542,-0.0001471468369,0.0004594897173,0.001037783372,2.296426346e-05,0.001060747636,0.001078664681,0.0002632755736,0.001341940254,0.001109282079,-0.0001121636642,0.0009971184153,0.0009918989033,-2.761961182e-05,0.0009642792915
0.4,-0.0009477186859,0.0004545370768,-0.000493181609,0.0006033766451,0.0001895004914,0.0007928771365,-0.0002718233087,5.207302124e-05,-0.0002197502875,0.00106971445,-5.02592846e-05,0.001019455166,0.001344505495,-8.534711127e-05,0.001259158384,0.0009263468084,-7.524276359e-06,0.000918822532,0.00172048838,-1.612856188e-05,0.001704359818,0.001215832292,2.614389894e-05,0.001241976191,0.003566057302,-4.32597047e-05,0.003522797597,0.002137028901,-0.0001143711333,0.002022657768,0.001434658974,-0.0001887405897,0.001245918384,0.0008902615563,0.0001038607603,0.0009941223166,0.001651907434,8.713837164e-06,0.001660621271,0.001561044964,6.460112036e-05,0.001625646084,0.001437780568,-0.0001297797524,0.001308000815,0.001395314515,-7.529721148e-05,0.001320017304,0.001375282702,-3.191907186e-05,0.00134336363,0.0008169285857,-0.0001903555492,0.0006265730365,0.001135144269,-4.665695369e-05,0.001088487315,0.0007880173419,-2.75005025e-05,0.0007605168394,0.0005820553654,-8.156623374e-05,0.0005004891317,0.001779568958,0.000134635134,0.001914204092,0.0001731028131,-8.868215615e-05,8.442065694e-05,-0.001249410687,-6.49148822e-05,-0.001314325569,0.0008613415239,0.0002617988014,0.001123140325,0.001259350484,0.0003081995697,0.001567550054,0.0009432041278,7.270001834e-05,0.001015904146,0.001596699389,-1.090085606e-06,0.001595609304,0.00122608213,-0.0001354577599,0.00109062437,0.001270256415,-0.0003660886445,0.0009041677705,0.001003042723,-6.120832822e-05,0.000941834395,0.0005941370375,-0.0001576766749,0.0004364603626,0.001004304667,2.362952171e-05,0.001027934189,0.001012580421,0.0002809508346,0.001293531256,0.001100839213,-0.0001245017649,0.0009763374486,0.0009760625336,-3.886331823e-05,0.0009371992154
0.5,-0.00101526112,0.0004570124892,-0.0005582486311,0.0005652489483,0.0001905978307,0.000755846779,-0.000311327629,5.306912804e-05,-0.000258258501,0.001030243508,-5.477636454e-05,0.0009754671431,0.001327164718,-9.005635001e-05,0.001237108368,0.0008900931035,-9.521861939e-06,0.0008805712416,0.001698099874,-1.738409957e-05,0.001680715774,0.00118415463,2.452984965e-05,0.00120868448,0.003573824311,-4.573400782e-05,0.003528090303,0.00210030676,-0.0001171080717,0.001983198688,0.001374653323,-0.0001954390681,0.001179214255,0.0008789282064,0.0001090367116,0.000987964918,0.001601887137,4.203115827e-05,0.001643918295,0.001561369175,6.570161e-05,0.001627070785,0.00142663562,-0.0001351784447,0.001291457175,0.001419795679,-7.883080515e-05,0.001340964874,0.001390877659,-3.549943552e-05,0.001355378224,0.0008215867429,-0.0002047284685,0.0006168582744,0.001138394578,-4.892636121e-05,0.001089468217,0.0007400478836,-3.064233084e-05,0.0007094055528,0.0005143288089,-8.7083111e-05,0.0004272456979,0.001751947452,0.0001271246991,0.001879072151,0.0001397317731,-9.103573859e-05,4.869603448e-05,-0.001258347817,-6.092296306e-05,-0.00131927078,0.000815629003,0.0002637934613,0.001079422464,0.001226760101,0.0003062442644,0.001533004365,0.000913922727,6.786752913e-05,0.0009817902562,0.001562305011,3.409234215e-06,0.001565714246,0.001215769858,-0.0001457519967,0.001070017862,0.001248834468,-0.0003780130818,0.0008708213862,0.0009964972663,-6.882513469e-05,0.0009276721316,0.0005773737713,-0.0001682729083,0.000409100863,0.0009659512131,2.448903133e-05,0.0009904402445,0.0009388932378,0.00029874505,0.001237638288,0.001086310944,-0.0001368815982,0.0009494293455,0.0009556035466,-5.046463437e-05,0.0009051389123
0.6,-0.001085252473,0.0004591336923,-0.0006261187807,0.0005208101305,0.0001908659056,0.0007116760361,-0.0003537468005,5.377269299e-05,-0.0002999741075,0.0009845828631,-5.967911894e-05,0.0009249037442,0.00130515662,-9.481081468e-05,0.001210345805,0.0008478556735,-1.153528219e-05,0.0008363203913,0.001669482581,-1.871661378e-05,0.001650765967,0.001146757033,2.291883951e-05,0.001169675872,0.003573379066,-4.821810472e-05,0.003525160962,0.002056811263,-0.0001196740954,0.001937137168,0.00130921918,-0.0002019045204,0.001107314659,0.0008626765953,0.0001145829462,0.0009772595415,0.001545339173,7.514383176e-05,0.001620483005,0.001557064338,6.63476492e-05,0.001623411987,0.001410704679,-0.0001404975553,0.001270207124,0.001438432254,-8.269454012e-05,0.001355737714,0.00140159151,-3.923740131e-05,0.001362354109,0.0008206637452,-0.0002190946529,0.0006015690924,0.001136392881,-5.109304808e-05,0.001085299833,0.0006876133651,-3.384396319e-05,0.0006537694019,0.0004432345862,-9.270028825e-05,0.000350534298,0.0017218216,0.0001190354523,0.001840857052,0.0001037392805,-9.336674284e-05,1.037253766e-05,-0.001268137901,-5.687196591e-05,-0.001325009867,0.0007666061109,0.0002653949612,0.001032001072,0.001188988469,0.0003045109053,0.001493499374,0.0008804391549,6.309960828e-05,0.0009435387632,0.001521739288,8.750705169e-06,0.001530489993,0.001200713907,-0.0001560309701,0.001044682937,0.001221710308,-0.0003895230562,0.0008321872514,0.0009858636742,-7.696514135e-05,0.0009088985329,0.000556256858,-0.0001788724323,0.0003773844257,0.0009228963003,2.553444345e-05,0.0009484307438,0.0008578909812,0.000316646187,0.001174537168,0.001065513085,-0.0001491922856,0.0009163207991,0.0009305037575,-6.235079972e-05,0.0008681529578
0.7,-0.001157266392,0.0004609874594,-0.0006962789325,0.000470205664,0.0001903028076,0.0006605084716,-0.0003987561914,5.419767231e-05,-0.0003445585191,0.0009330437342,-6.495110316e-05,0.0008680926311,0.001278642926,-9.958910278e-05,0.001179053823,0.0007998029661,-1.355529651e-05,0.0007862476696,0.001634754483,-2.012444957e-05,0.001614630033,0.001103618617,2.132772219e-05,0.001124946339,0.00356474915,-5.069300627e-05,0.003514056144,0.002006694563,-0.0001220540793,0.001884640484,0.001238710419,-0.0002081065553,0.001030603863,0.00084150904,0.0001204525317,0.0009619615717,0.001482692614,0.0001076179733,0.001590310588,0.001547969983,6.65043405e-05,0.001614474324,0.001389983703,-0.0001457450854,0.001244238618,0.001450936777,-8.685296216e-05,0.001364083815,0.001407175624,-4.312452214e-05,0.001364051101,0.000814092647,-0.0002333853378,0.0005807073091,0.001128961998,-5.312551431e-05,0.001075836484,0.0006308637187,-3.709073197e-05,0.0005937729867,0.0003691814694,-9.839809262e-05,0.0002707833767,0.001689359474,0.0001103959008,0.001799755375,6.536928246e-05,-9.566853827e-05,-3.02992558e-05,-0.001278716862,-5.279082075e-05,-0.001331507683,0.0007144461083,0.0002666117117,0.00098105782,0.001146006713,0.0003030463045,0.001449053017,0.0008429739746,5.828603837e-05,0.000901260013,0.001475146948,1.488368348e-05,0.001490030631,0.001180905118,-0.0001662566203,0.001014648498,0.001188985172,-0.0004005985661,0.0007883866058,0.0009710557226,-8.564089689e-05,0.0008854148257,0.0005307294229,-0.0001894115027,0.0003413179202,0.0008753567426,2.674902708e-05,0.0009021057697,0.000769971209,0.0003346242255,0.001104595434,0.00103832024,-0.0001613319301,0.0008769883102,0.0009007621037,-7.443570191e-05,0.0008263264018
0.8,-0.001230844818,0.000462665352,-0.0007681794664,0.0004136391713,0.0001889144905,0.0006025536618,-0.000446002287,5.436211775e-05,-0.0003916401693,0.0008759914237,-7.05726281e-05,0.0008054187956,0.001247826625,-0.0001043684828,0.001143458142,0.0007461599562,-1.557248243e-05,0.0007305874737,0.001594091559,-2.160412539e-05,0.001572487433,0.001054770604,1.977178016e-05,0.001074542384,0.003548024253,-5.313763039e-05,0.003494886623,0.00195016486,-0.0001242332645,0.001825931596,0.001163533078,-0.0002140147963,0.0009495182818,0.0008154882516,0.0001265917696,0.0009420800211,0.001414428417,0.0001390266955,0.001553455112,0.001533968445,6.614618497e-05,0.00160011463,0.001364510326,-0.0001509268076,0.001213583518,0.001457066735,-9.125963709e-05,0.001365807098,0.001407417793,-4.714832262e-05,0.001360269471,0.0008018460675,-0.0002475290125,0.000554317055,0.001115964565,-5.49899645e-05,0.001060974601,0.0005699919947,-4.036627718e-05,0.0005296257176,0.0002926191806,-0.0001041547544,0.0001884644262,0.00165474975,0.0001012402654,0.001755990015,2.490222915e-05,-9.793435193e-05,-7.303212278e-05,-0.001289997664,-4.871248537e-05,-0.00133871015,0.000659353323,0.0002674575778,0.0009268109008,0.001097838758,0.0003018940955,0.001399732853,0.0008018012397,5.331483072e-05,0.0008551160704,0.001422738551,2.173837898e-05,0.001444476929,0.001156381665,-0.0001763924267,0.000979989238,0.001150813412,-0.0004112260946,0.0007395873176,0.0009520203718,-9.485616891e-05,0.0008571642029,0.0005007729457,-0.0001998251502,0.0003009477954,0.0008235959675,2.81077486e-05,0.0008517037161,0.0006756444848,0.0003526300554,0.00102827454,0.001004672218,-0.0001732089496,0.0008314632686,0.0008663997692,-8.661887978e-05,0.0007797808894
0.9,-0.001305502431,0.0004642618032,-0.0008412406278,0.0003513743668,0.0001867148602,0.000538089227,-0.0004951036218,5.428779221e-05,-0.0004408158296,0.0008138459457,-7.652067751e-05,0.0007373252682,0.001212955165,-0.00010912498,0.001103830185,0.0006872103242,-1.757683564e-05,0.0006696334886,0.001547733091,-2.315014743e-05,0.001524582943,0.001000302155,1.826520624e-05,0.001018567361,0.00352336126,-5.552894021e-05,0.003467832319,0.001887490535,-0.000126197407,0.001761293128,0.001084146886,-0.0002195991213,0.000864547765,0.0007847437282,0.0001329415194,0.0009176852477,0.001341083084,0.0001689573162,0.0015100404,0.001514996807,6.525805776e-05,0.001580254865,0.001334368514,-0.0001560448709,0.001178323643,0.00145663148,-9.585697153e-05,0.001360774508,0.00140215096,-5.129251305e-05,0.001350858447,0.0007839379385,-0.0002614503378,0.0005224876007,0.001097309302,-5.665050622e-05,0.001040658796,0.0005052374871,-4.365275367e-05,0.0004615847334,0.0002140398267,-0.0001099466117,0.000104093215,0.001618208728,9.160831848e-05,0.001709817046,-1.734071982e-05,-0.0001001568339,-0.0001174975537,-0.001301864934,-4.467279295e-05,-0.001346537727,0.0006015691367,0.0002679532794,0.0008695224161,0.001044574506,0.0003010942646,0.001345668771,0.0007572486061,4.80742984e-05,0.0008053229045,0.001364793874,2.922823719e-05,0.001394022111,0.001127232412,-0.0001864029178,0.0009408294942,0.001107403181,-0.0004213967556,0.0006860064254,0.0009287422063,-0.0001046040329,0.0008241381734,0.000466412175,-0.0002100466454,0.0002563655296,0.0007679266244,2.957809839e-05,0.0007975047228,0.00057553447,0.0003705963743,0.0009461308443,0.0009645801077,-0.0001847430275,0.0007798370802,0.0008274666829,-9.878610951e-05,0.0007286805734
1.0,-0.001380731888,0.0004658721213,-0.0009148597664,0.0002837359909,0.000183725841,0.0004674618319,-0.0005456528704,5.39998043e-05,-0.0004916530661,0.0007470808964,-8.276888395e-05,0.0006643120125,0.001174321816,-0.0001138335729,0.001060488243,0.0006232966791,-1.955757027e-05,0.0006037391088,0.001495983522,-2.475487623e-05,0.001471228646,0.0009403643291,1.682145027e-05,0.0009571857793,0.003490986358,-5.784224063e-05,0.003433144117,0.001819002089,-0.0001279329494,0.001691069139,0.001001065051,-0.0002248299616,0.0007762350889,0.000749473693,0.0001394382816,0.0008889119746,0.00126324725,0.0001970194541,0.001460266704,0.001491052889,6.383529873e-05,0.001554888188,0.001299690181,-0.0001610975194,0.001138592661,0.001449497519,-0.0001005767581,0.001348920761,0.00139126054,-5.5537791e-05,0.001335722749,0.0007604255328,-0.0002750696482,0.0004853558846,0.001072956619,-5.806955975e-05,0.001014887059,0.0004368863723,-4.693102744e-05,0.0003899553449,0.00013397677,-0.0001157484555,1.822831446e-05,0.001579985582,8.154515275e-05,0.001661530735,-6.099580206e-05,-0.0001023276216,-0.0001633234237,-0.001314172248,-4.070903561e-05,-0.001354881284,0.0005413757259,0.0002681270174,0.0008095027433,0.0009863781699,0.0003006827629,0.001287060933,0.0007096958682,4.245430341e-05,0.0007521501716,0.001301660658,3.725323593e-05,0.001338913894,0.001093597157,-0.0001962536567,0.0008973435008,0.001059013252,-0.0004311040366,0.0006279092153,0.0009012448157,-0.0001148654581,0.0007863793575,0.0004277170409,-0.0002200073692,0.0002077096717,0.0007087099191,3.112137193e-05,0.0007398312911,0.0004703723321,0.0003884396842,0.0008588120163,0.000918129519,-0.0001958661877,0.0007222633313,0.00078404649,-0.0001108113274,0.0006732351626
1.1,-0.00145601027,0.0004675904847,-0.0009884197852,0.0002111085625,0.0001799773407,0.0003910859032,-0.0005972217244,5.352615281e-05,-0.0005436955715,0.0006762188941,-8.928770044e-05,0.0005869311936,0.001132263086,-0.0001184685647,0.001013794522,0.0005548172745,-2.150310261e-05,0.0005333141719,0.001439208593,-2.640851221e-05,0.00141280008,0.0008751703734,1.545334424e-05,0.0008906237177,0.003451192525,-6.005158044e-05,0.003391140945,0.001745090139,-0.0001294271167,0.001615663022,0.000914850855,-0.0002296786044,0.0006851722505,0.0007099404489,0.0001460150311,0.0008559554801,0.001181556527,0.0002228538532,0.001404410381,0.001462193587,6.188284141e-05,0.001524076429,0.001260652362,-0.0001660799958,0.001094572366,0.001435589732,-0.0001053415751,0.001330248157,0.001374687627,-5.986303691e-05,0.00131482459,0.0007314091945,-0.0002883028415,0.000443106353,0.001042921613,-5.920871958e-05,0.0009837128931,0.0003652686453,-5.018082914e-05,0.0003150878162,5.299962376e-05,-0.0001215339764,-6.853435263e-05,0.001540363973,7.110086632e-05,0.001611464839,-0.0001056585417,-0.0001044370154,-0.000210095557,-0.001326743396,-3.685839076e-05,-0.001363601787,0.0004790944154,0.0002680138763,0.0007471082917,0.000923487629,0.0003006907483,0.001224178377,0.0006595687634,3.634740126e-05,0.0006959161647,0.001233747051,4.570322503e-05,0.001279450276,0.001055662924,-0.0002059117654,0.0008497511587,0.001005945739,-0.0004403418479,0.0005656038915,0.0008695880522,-0.0001256083095,0.0007439797427,0.0003848001455,-0.00022963712,0.0001551630255,0.0006463503431,3.26939409e-05,0.000679044284,0.0003609835169,0.000406062432,0.000767045949,0.0008654788652,-0.0002065238205,0.0006589550447,0.0007362583432,-0.0001225595628,0.0006136987805
1.2,-0.001530806539,0.0004695080794,-0.001061298459,0.0001339323974,0.0001755070585,0.000309439456,-0.0006493689048,5.289712232e-05,-0.0005964717824,0.0006018233258,-9.604481071e-05,0.0005057785151,0.00108715168,-0.0001230041065,0.000964147573,0.0004822188106,-2.34010269e-05,0.0004588177837,0.001377825592,-2.809921196e-05,0.00134972638,0.000804991711,1.417308305e-05,0.000819164794,0.003404332218,-6.213017675e-05,0.003342202041,0.001666198975,-0.0001306678983,0.001535531076,0.0008261105979,-0.000234117461,0.0005919931368,0.0006664592656,0.0001526020657,0.0008190613313,0.00109667604,0.0002461404667,0.001342816507,0.001428526351,5.94135724e-05,0.001487939923,0.001217470161,-0.0001709862028,0.001046483958,0.00141488792,-0.0001100670472,0.001304820873,0.001352426956,-6.424655624e-05,0.001288180399,0.0006970281773,-0.0003010613201,0.0003959668572,0.001007273494,-6.003018245e-05,0.0009472433112,0.0002907514023,-5.338093806e-05,0.0002373704642,-2.829475959e-05,-0.0001272763295,-0.000155571089,0.001499659369,6.032999518e-05,0.001559989364,-0.0001508897892,-0.0001064738518,-0.000257363641,-0.001339377602,-3.315637573e-05,-0.001372533978,0.0004150777599,0.0002676543048,0.0006827320647,0.0008562045033,0.0003011432406,0.001157347744,0.0006073273731,2.965039254e-05,0.0006369777656,0.001161508173,5.4460692e-05,0.001215968865,0.00101365649,-0.0002153468001,0.0007983096902,0.0009485357295,-0.0004491035704,0.000499432159,0.0008338615683,-0.0001367868466,0.0006970747216,0.000337810028,-0.0002388646789,9.894534909e-05,0.0005812859784,3.424835086e-05,0.0006155343292,0.0002482665635,0.0004233550064,0.0006716215699,0.0008068521618,-0.000216675265,0.0005901768968,0.0006842551915,-0.0001338905189,0.0005503646726
1.3,-0.001604589655,0.0004717115987,-0.001132878056,5.26969589e-05,0.0001703601444,0.0002230571033,-0.000701650657,5.214456736e-05,-0.0006495060896,0.0005244871867,-0.0001030057235,0.0004214814632,0.00103938578,-0.0001274147746,0.0009119710051,0.000405986012,-2.523797826e-05,0.0003807480338,0.001312289077,-2.981331086e-05,0.001282475766,0.0007301502709,1.299212084e-05,0.0007431423917,0.003350806277,-6.405082221e-05,0.003286755454,0.001582816359,-0.0001316439839,0.001451172375,0.0007354833047,-0.0002381203243,0.0004973629804,0.0006193826952,0.0001591279339,0.0007785106291,0.001009281207,0.0002666047751,0.001275885982,0.00139019608,5.644624429e-05,0.001446642325,0.001170386405,-0.000175810363,0.000994576042,0.001387419633,-0.0001146648028,0.001272754831,0.001324520165,-6.866705231e-05,0.001255853113,0.0006574526847,-0.0003132519691,0.0003442007156,0.0009661314237,-6.049856671e-05,0.000905632857,0.0002137294323,-5.650949088e-05,0.0001572199415,-0.0001092945264,-0.0001329488314,-0.0002422433578,0.001458212493,4.929058105e-05,0.001507503074,-0.0001962252294,-0.0001084255908,-0.0003046508202,-0.001351857703,-2.963550544e-05,-0.001381493208,0.0003496962321,0.0002670923846,0.0006167886167,0.0007848771105,0.0003020573359,0.001086934446,0.0005534503046,2.226649579e-05,0.0005757168004,0.001085428561,6.340259011e-05,0.001148831151,0.0009678340921,-0.0002245316686,0.0007433024235,0.0008871392413,-0.0004573822841,0.0004297569572,0.0007941759042,-0.000148341804,0.0006458341002,0.0002869215055,-0.0002476185421,3.930296344e-05,0.0005139753006,3.573442176e-05,0.0005497097224,0.0001331649989,0.0004401982054,0.0005733632042,0.0007425274552,-0.0002262938504,0.0005162336047,0.0006282188237,-0.0001446621714,0.0004835566523
1.4,-0.001676837007,0.0004742822477,-0.00120255476,-3.206788565e-05,0.0001645887456,0.0001325208599,-0.0007536325715,5.130117461e-05,-0.0007023313969,0.0004448203059,-0.0001101344617,0.0003346858442,0.0009893761881,-0.0001316761153,0.0008577000728,0.0003266294422,-2.69994749e-05,0.0002996299673,0.001243074237,-3.153561297e-05,0.001211538624,0.0006510086173,1.192099809e-05,0.0006629296154,0.003291050769,-6.578627021e-05,0.003225264499,0.001495460988,-0.000132344736,0.001363116252,0.0006436282863,-0.0002416626486,0.0004019656377,0.0005690830845,0.0001655202975,0.0007346033821,0.0009200371833,0.0002840222856,0.001204059469,0.001347370566,5.300325188e-05,0.001400373818,0.001119659319,-0.0001805480439,0.0009391112748,0.001353250937,-0.0001190457641,0.001234205173,0.001291045906,-7.310413616e-05,0.00121794177,0.0006128735547,-0.0003247773908,0.0002880961639,0.000919657551,-6.05827625e-05,0.0008590747885,0.0001346145265,-5.95444039e-05,7.507012258e-05,-0.0001893868575,-0.000138525708,-0.0003279125655,0.001416380009,3.804306084e-05,0.00145442307,-0.000241186948,-0.0001102785618,-0.0003514655098,-0.001363959778,-2.632421066e-05,-0.001390283988,0.0002833215786,0.0002663744224,0.000549696001,0.0007098796919,0.0003034404032,0.001013320095,0.0004984166338,1.410815855e-05,0.0005125247923,0.001006003058,7.240120473e-05,0.001078404262,0.0009184698428,-0.0002334432759,0.0006850265669,0.0008221208913,-0.0004651717321,0.0003569491592,0.0007506527925,-0.0001602009731,0.0005904518194,0.0002323249872,-0.0002558279719,-2.35029847e-05,0.0004448820025,3.710044603e-05,0.0004819824485,1.663472558e-05,0.000456466758,0.0004731014836,0.00067282277,-0.0002353663128,0.0004374564572,0.0005683526975,-0.0001547339968,0.0004136187007
1.5,-0.001747042589,0.0004772951965,-0.001269747392,-0.0001198017711,0.0001582514675,3.844969641e-05,-0.0008049013314,5.039976916e-05,-0.0007545015623,0.0003634364729,-0.0001173942689,0.0002460422041,0.0009375331918,-0.0001357651142,0.0008017680777,0.0002446733086,-2.866987029e-05,0.0002160034383,0.001170660515,-3.324970001e-05,0.001137410815,0.0005679595198,1.096917586e-05,0.0005789286956,0.003225523938,-6.730957858e-05,0.003158214359,0.00140466945,-0.0001327601816,0.001271909268,0.0005512120231,-0.0002447218367,0.0003064901863,0.0005159360767,0.0001717067953,0.0006876428719,0.00082957902,0.0002982217769,0.001127800797,0.001300227862,4.910861509e-05,0.001349336478,0.001065550364,-0.0001851964194,0.0008803539447,0.001312477151,-0.0001231233913,0.001189353759,0.001252108988,-7.753841055e-05,0.001174570578,0.0005634915883,-0.0003355366275,0.0002279549608,0.0008680487297,-6.025762341e-05,0.0008077911063,5.382503378e-05,-6.246374573e-05,-8.638711946e-06,-0.0002679719708,-0.0001439827415,-0.0004119547123,0.001374524037,2.664935261e-05,0.00140117339,-0.0002852953389,-0.0001120183043,-0.0003973136432,-0.001375462542,-2.324597863e-05,-0.001398708521,0.0002163098236,0.0002655479371,0.0004818577607,0.0006315919495,0.0003052886773,0.0009368806267,0.0004426881194,5.100258645e-06,0.0004477883781,0.000923719064,8.132446262e-05,0.001005043527,0.000865844844,-0.0002420626878,0.0006237821563,0.000753842577,-0.0004724672421,0.0002813753349,0.0007034165026,-0.000172280096,0.0005311364066,0.0001742170151,-0.0002634246361,-8.9207621e-05,0.0003744599721,3.829435302e-05,0.0004127543252,-0.0001003892795,0.0004720337339,0.0003716444544,0.0005980816513,-0.0002438913438,0.0003541903075,0.0005048748112,-0.0001639702163,0.0003409045949
1.6,-0.001814724107,0.0004808192779,-0.001333904829,-0.0002099238055,0.000151412772,-5.851103356e-05,-0.0008550748378,4.947268959e-05,-0.0008056021482,0.0002809420798,-0.000124748267,0.0001561938128,0.0008842552593,-0.0001396605599,0.0007445946994,0.000160644984,-3.023241449e-05,0.0001304125695,0.001095518341,-3.493819194e-05,0.001060580149,0.0004814166215,1.014503346e-05,0.0004915616549,0.003154695616,-6.859437241e-05,0.003086101244,0.001310984721,-0.0001328809356,0.001178103786,0.0004588961029,-0.0002472774757,0.0002116186272,0.0004603078,0.0001776162868,0.0006379240868,0.0007384950387,0.0003090875903,0.001047582629,0.001248948791,4.478665972e-05,0.001293735451,0.001008315237,-0.0001897539626,0.0008185612742,0.001265215876,-0.0001268166688,0.001138399207,0.001207831024,-8.195132047e-05,0.001125879704,0.0005095084882,-0.0003454264831,0.0001640820051,0.0008115288311,-5.950559129e-05,0.0007520232398,-2.822276769e-05,-6.524591323e-05,-9.346868092e-05,-0.0003444750356,-0.0001492977288,-0.0004937727644,0.001333002523,1.517236247e-05,0.001348174885,-0.0003280795676,-0.000113629954,-0.0004417095215,-0.001386154796,-2.041873251e-05,-0.001406573529,0.0001489874569,0.0002646608439,0.0004136483008,0.0005503832083,0.0003075865182,0.0008579697265,0.0003866939877,-4.816393211e-06,0.0003818775945,0.0008390429827,9.003625302e-05,0.0009290792357,0.000810239236,-0.0002503747874,0.0005598644486,0.0006826549017,-0.0004792659309,0.0002033889708,0.000652588232,-0.0001844839732,0.0004681042588,0.0001127942578,-0.0002703448794,-0.0001575506215,0.0003031408328,3.926480268e-05,0.0003424056355,-0.0002170226413,0.0004867752976,0.0002697526563,0.0005186606591,-0.0002518773249,0.0002667833341,0.0004380132314,-0.000172243652,0.0002657695794
1.7,-0.001879428185,0.000484916761,-0.001394511424,-0.0003018414547,0.000144142327,-0.0001576991277,-0.0009038091096,4.855126542e-05,-0.0008552578442,0.0001979279261,-0.0001321599775,6.576794861e-05,0.0008299216748,-0.0001433432507,0.0006865784241,7.506780342e-05,-3.166931354e-05,4.339848988e-05,0.001018101684,-3.658287295e-05,0.0009815188115,0.0003918080223,9.456122824e-06,0.0004012641452,0.003079041251,-6.961501577e-05,0.003009426235,0.001214948163,-0.0001326980441,0.001082250119,0.0003673279179,-0.0002493114977,0.0001180164201,0.000402548307,0.0001831808199,0.0005857291269,0.0006473164751,0.0003165608911,0.0009638773662,0.001193716933,4.006186042e-05,0.001233778793,0.0009482007575,-0.0001942197124,0.0007539810451,0.001211604708,-0.0001300526824,0.001081552025,0.001158344942,-8.632485935e-05,0.001072020082,0.000451121273,-0.0003543433812,9.67778918e-05,0.0007503434613,-5.831830239e-05,0.0006920251589,-0.0001111200101,-6.786966201e-05,-0.0001789896721,-0.0004183541249,-0.0001544507771,-0.000572804902,0.001292162532,3.675851941e-06,0.001295838384,-0.0003690850427,-0.0001150986435,-0.0004841836862,-0.00139583933,-1.785453841e-05,-0.001413693869,8.164426859e-05,0.0002637607784,0.000345405047,0.0004666053896,0.0003103065158,0.0007769119054,0.0003308197333,-1.568082504e-05,0.0003151389083,0.0007524134095,9.839719308e-05,0.0008508106026,0.0007519290607,-0.0002583675372,0.0004935615235,0.0006088933306,-0.0004855659756,0.000123327355,0.0005982853521,-0.0001967078667,0.0004015774854,4.825244464e-05,-0.0002765323372,-0.0002282798926,0.0002313263179,3.996236769e-05,0.0002712886856,-0.0003324538189,0.0005005752677,0.0001681214489,0.000434921292,-0.000259339658,0.0001755816339,0.0003680057657,-0.000179440184,0.0001885655816
1.8,-0.001940733123,0.0004896432154,-0.001451089908,-0.0003949573725,0.0001365142777,-0.0002584430949,-0.0009508007726,4.766546831e-05,-0.0009031353043,0.0001149653267,-0.0001395936133,-2.462828662e-05,0.0007748905219,-0.0001467960067,0.0006280945151,-1.154197612e-05,-3.296168529e-05,-4.450366141e-05,0.0009388477515,-3.816464199e-05,0.0009006831095,0.0002995741944,8.90954932e-06,0.0003084837438,0.00299904133,-7.034674402e-05,0.002928694586,0.001117096082,-0.0001322028531,0.0009848932284,0.0002771351263,-0.0002508083255,2.632680078e-05,0.000342992494,0.0001883382719,0.0005313307659,0.0005565149555,0.0003206401799,0.0008771551354,0.00113472624,3.49598445e-05,0.001169686085,0.0008854484485,-0.000198592338,0.0006868561105,0.001151805111,-0.0001327685481,0.001019036563,0.001103794828,-9.064101387e-05,0.001013153814,0.0003885219041,-0.0003621858307,2.633607334e-05,0.0006847582362,-5.669793229e-05,0.0006280603039,-0.0001944666242,-7.03141413e-05,-0.0002647807655,-0.0004891034804,-0.0001594244769,-0.0006485279573,0.001252337581,-7.775504271e-06,0.001244562077,-0.000407877334,-0.0001164098813,-0.0005242872153,-0.001404332848,-1.555958322e-05,-0.001419892432,1.453493665e-05,0.0002628946898,0.0002774296264,0.0003805972383,0.0003134105412,0.0006940077794,0.0002754008158,-2.750667282e-05,0.000247894143,0.000664242428,0.0001062662419,0.0007705086699,0.0006911880804,-0.0002660309825,0.0004251570979,0.0005328797419,-0.0004913652541,4.151448779e-05,0.0005406258507,-0.0002088392844,0.0003317865663,-1.920985934e-05,-0.0002819405897,-0.0003011504491,0.0001593868306,4.034081702e-05,0.0001997276476,-0.0004459559582,0.0005133285878,6.737262967e-05,0.0003472278427,-0.0002662981629,8.092967987e-05,0.0002951037362,-0.000185463284,0.0001096404523
1.9,-0.001998249431,0.0004950475693,-0.001503201862,-0.0004886739124,0.000128606356,-0.0003600675564,-0.0009957853174,4.684378159e-05,-0.0009489415358,3.26060979e-05,-0.0001470141388,-0.0001144080409,0.0007195014748,-0.000150003552,0.0005694979228,-9.867475011e-05,-3.408941992e-05,-0.00013276417,0.0008581823103,-3.966337175e-05,0.0008185189385,0.0002051697965,8.512256358e-06,0.0002136820529,0.002915184698,-7.076583481e-05,0.002844418863,0.001017960077,-0.0001313869943,0.0008865730823,0.0001889234125,-0.0002517550821,-6.28316696e-05,0.0002819667603,0.0001930351373,0.0004750018976,0.0004665064765,0.0003213811118,0.0007878875883,0.00107219289,2.950893447e-05,0.001101701824,0.0008203025606,-0.0002028694084,0.0006174331521,0.001086011409,-0.0001349125793,0.0009510988294,0.001044340468,-9.488081707e-05,0.0009494596509,0.0003219026795,-0.0003688577913,-4.69551118e-05,0.0006150603734,-5.465793838e-05,0.0005604024351,-0.000277869783,-7.255896059e-05,-0.0003504287436,-0.0005562533201,-0.0001642039286,-0.0007204572486,0.001213848103,-1.91159686e-05,0.001194732134,-0.0004440435477,-0.0001175498821,-0.0005615934298,-0.001411463398,-1.353415966e-05,-0.001424997558,-5.21117208e-05,0.0002621086318,0.000209996911,0.00029269751,0.0003168516574,0.0006095491674,0.0002207211325,-4.027658565e-05,0.0001804445469,0.0005749234985,0.0001135035195,0.000688427018,0.000628292331,-0.0002733561733,0.0003549361577,0.0004549273657,-0.0004966599453,-4.173257961e-05,0.0004797359156,-0.000220760067,0.0002589758486,-8.938469353e-05,-0.0002865357242,-0.0003759204178,8.766530933e-05,4.035823022e-05,0.0001280235395,-0.0005568874688,0.0005249420114,-3.194545745e-05,0.0002559503001,-0.000272774973,-1.682467293e-05,0.0002195784235,-0.0001902380383,2.934038524e-05
2.0,-0.002051619135,0.0005011723438,-0.001550446791,-0.0005823960619,0.0001204987624,-0.0004618972995,-0.001038533036,4.6113231e-05,-0.0009924198046,-4.861582587e-05,-0.0001543872274,-0.0002030030533,0.0006640806405,-0.0001529524113,0.0005111282292,-0.0001858259833,-3.503108373e-05,-0.0002208570671,0.000776526485,-4.105784163e-05,0.0007354686434,0.0001090666524,8.271207631e-06,0.00011733786,0.002827972398,-7.084984997e-05,0.002757122548,0.000918068656,-0.0001302424457,0.0007878262103,0.0001032756727,-0.0002521418665,-0.0001488661938,0.0002197970136,0.0001972287299,0.0004170257435,0.0003776583051,0.0003188947863,0.0006965530914,0.001006365728,2.374141722e-05,0.001030107145,0.0007530180619,-0.0002070470279,0.000545971034,0.001014461138,-0.0001364449608,0.0008780161775,0.0009801636831,-9.902317588e-05,0.0008811405072,0.0002514654513,-0.000374272842,-0.0001228073907,0.000541561749,-5.222305324e-05,0.0004893386957,-0.0003609418079,-7.458419273e-05,-0.0004355260007,-0.0006193688141,-0.0001687766151,-0.0007881454292,0.001177002579,-3.027853142e-05,0.001146724047,-0.000477193216,-0.0001185058714,-0.0005956990873,-0.001417067943,-1.177247977e-05,-0.001428840423,-0.0001180804642,0.000261447373,0.0001433669088,0.0002032597848,0.00032057655,0.0005238363348,0.0001670142495,-5.393748796e-05,0.0001130767615,0.0004848413982,0.0001199741987,0.0006048155969,0.0005635241341,-0.0002803342822,0.0002831898519,0.0003753455897,-0.0005014436635,-0.0001260980738,0.0004157572561,-0.0002323486822,0.0001834085739,-0.0001620483496,-0.0002902987563,-0.0004523471059,1.648307631e-05,3.997780818e-05,5.646088449e-05,-0.0006646840565,0.0005353302943,-0.0001293537623,0.000161469014,-0.0002787930737,-0.0001173240597,0.0001417274935,-0.0001937141455,-5.198665197e-05
2.1,-0.002100515093,0.0005080539025,-0.001592461191,-0.0006755340862,0.000112272832,-0.0005632612542,-0.001078845175,4.549946369e-05,-0.001033345712,-0.0001281838504,-0.0001616792727,-0.0002898631231,0.0006089441106,-0.00015563093,0.0004533131806,-0.0002724959728,-3.576402875e-05,-0.0003082600015,0.0006943006544,-4.232585258e-05,0.0006519748019,1.175461431e-05,8.193664083e-06,1.99482784e-05,0.002737918875,-7.057791447e-05,0.00266734096,0.000817947419,-0.0001287615867,0.0006891858322,2.075045386e-05,-0.0002519620204,-0.0002312115665,0.0001568137002,0.0002008883335,0.0003577020337,0.0002902944336,0.0003133439968,0.0006036384304,0.0009375306545,1.769405076e-05,0.0009552247053,0.0006838645184,-0.0002111196679,0.0004727448505,0.0009374424682,-0.0001373383278,0.0008001041404,0.000911473109,-0.0001030439389,0.0008084291701,0.0001774308892,-0.0003783583238,-0.0002009274346,0.0004646008758,-4.942857997e-05,0.0004151722959,-0.0004432999298,-7.637027569e-05,-0.0005196702055,-0.0006780507039,-0.0001731322195,-0.0008511829234,0.001142096936,-4.119474491e-05,0.001100902191,-0.0005069605594,-0.0001192664077,-0.000626226967,-0.00142099216,-1.026241047e-05,-0.001431254571,-0.0001831599253,0.000260953579,7.779365364e-05,0.0001126612375,0.0003245279852,0.0004371892228,0.0001144646364,-6.839779025e-05,4.606684613e-05,0.0003943791679,0.0001255528424,0.0005199320103,0.0004971731693,-0.000286956215,0.0002102169543,0.0002944418628,-0.0005057074227,-0.0002112655598,0.0003488515623,-0.0002434828214,0.0001053687409,-0.0002369575105,-0.0002932278691,-0.0005301853796,-5.385625079e-05,3.916870764e-05,-1.468754315e-05,-0.0007688476381,0.0005444081522,-0.0002244394859,6.417747146e-05,-0.0002843750899,-0.0002201976185,6.187831604e-05,-0.0001958674791,-0.0001339891631
2.2,-0.002144641245,0.0005157226155,-0.001628918629,-0.0007675069612,0.0001040096022,-0.0006634973589,-0.001116552031,4.502681044e-05,-0.001071525221,-0.0002056008339,-0.0001688575081,-0.000374458342,0.0005543981539,-0.0001580294094,0.0003963687445,-0.0003581923467,-3.626474998e-05,-0.0003944570966,0.0006119231355,-4.344451851e-05,0.000568478617,-8.626154358e-05,8.287698646e-06,-7.797384493e-05,0.002645548963,-6.993098941e-05,0.002575617974,0.0007181161965,-0.0001269372447,0.0005911789518,-5.812176886e-05,-0.0002512123176,-0.0003093340865,9.33517648e-05,0.0002039952711,0.0002973470359,0.0002046964723,0.0003049380299,0.0005096345022,0.000866007336,1.140771345e-05,0.0008774150494,0.0006131243862,-0.0002150801873,0.0003980441988,0.00085529604,-0.0001375783097,0.0007177177303,0.0008385054005,-0.0001069155809,0.0007315898196,0.0001000445199,-0.0003810584774,-0.0002810139575,0.0003845419033,-4.631908699e-05,0.0003382228163,-0.0005245691147,-7.789788359e-05,-0.0006024669983,-0.0007319388513,-0.0001772625345,-0.0009092013859,0.001109411018,-5.179481083e-05,0.001057616208,-0.0005330090312,-0.0001198217383,-0.0006528307695,-0.001423093183,-8.985321621e-06,-0.001432078505,-0.0002471391091,0.0002606667815,1.352767238e-05,2.13018016e-05,0.0003286469009,0.0003499487025,6.320763833e-05,-8.352735962e-05,-2.03197213e-05,0.0003039190692,0.000130127618,0.0004340466871,0.0004295337812,-0.0002932128081,0.000136320973,0.0002125196058,-0.0005094403538,-0.000296920748,0.0002792011931,-0.0002540424204,2.51587727e-05,-0.0003138488669,-0.0002953403945,-0.0006091892614,-0.000123067123,3.790729289e-05,-8.515983016e-05,-0.0008689373612,0.0005520809166,-0.0003168564446,-3.551889453e-05,-0.0002895417662,-0.0003250606607,-1.961384521e-05,-0.000196700168,-0.0002163140132
2.3,-0.002183734114,0.0005242029805,-0.001659531134,-0.0008577471384,9.578846386e-05,-0.0007619586746,-0.001151513438,4.471832944e-05,-0.001106795109,-0.0002803940453,-0.000175890207,-0.0004562842522,0.0005007356376,-0.0001601402774,0.0003405953602,-0.0004424355111,-3.650938965e-05,-0.0004789449008,0.0005298036023,-4.439068524e-05,0.000485412917,-0.0001844693282,8.562912338e-06,-0.0001759064159,0.002551390791,-6.889212912e-05,0.002482498662,0.0006190828791,-0.0001247627825,0.0004943200967,-0.0001328448371,-0.0002498930794,-0.0003827379165,2.974547628e-05,0.0002065421353,0.0002362876116,0.0001210993991,0.0002939266834,0.0004150260825,0.0007921392244,4.926361798e-06,0.0007970655862,0.0005410866779,-0.0002189202622,0.0003221664157,0.0007684106621,-0.0001371637297,0.0006312469325,0.000761522422,-0.0001106075162,0.0006509149058,1.957819186e-05,-0.0003823360979,-0.000362757906,0.0003017699802,-4.294660696e-05,0.0002588233733,-0.0006043878738,-7.914783925e-05,-0.000683535713,-0.0007807187863,-0.0001811615096,-0.0009618802959,0.001079202176,-6.200804131e-05,0.001017194134,-0.0005550380947,-0.0001201641508,-0.0006752022455,-0.001423244892,-7.916159203e-06,-0.001431161051,-0.0003098109244,0.0002606225345,-4.918838997e-05,-7.040564749e-05,0.0003328739234,0.0002624682759,1.332844676e-05,-9.916055409e-05,-8.583210733e-05,0.0002138372826,0.0001336040772,0.0003474413598,0.0003608989181,-0.0002990953865,6.18035316e-05,0.0001298725547,-0.0005126309204,-0.0003827583656,0.0002070062989,-0.0002639129168,-5.690661794e-05,-0.0003924423455,-0.0002966742348,-0.0006891165803,-0.0001908867772,3.617863862e-05,-0.0001547081385,-0.0009645661116,0.00055823753,-0.0004063285816,-0.0001372083617,-0.0002943098661,-0.0004315182279,-0.0001023728897,-0.0001962395587,-0.0002986124484
2.4,-0.002217565404,0.0005335137678,-0.001684051636,-0.0009457066585,8.768607443e-05,-0.0008580205841,-0.001183621266,4.459583876e-05,-0.001139025427,-0.0003521222892,-0.0001827469148,-0.000534869204,0.0004482294179,-0.0001619582319,0.000286271186,-0.0005247664731,-3.64742448e-05,-0.0005612407179,0.0004483326393,-4.514143281e-05,0.0004031912065,-0.0002823587546,9.031097023e-06,-0.0002733276576,0.00245596573,-6.744671967e-05,0.00238851901,0.0005213346186,-0.0001222322402,0.0003991023784,-0.0002029652199,-0.0002480082343,-0.0004509734542,-3.368079822e-05,0.0002085315682,0.00017485077,3.968363837e-05,0.0002805935799,0.0003202772182,0.0007162792412,-1.704301249e-06,0.0007145749399,0.0004680379086,-0.0002226311911,0.0002454067175,0.0006772138835,-0.000136106185,0.0005411076985,0.0006808051002,-0.0001140867956,0.0005667183045,-6.367280413e-05,-0.0003821727831,-0.0004458455872,0.0002166834996,-3.936852848e-05,0.0001773149711,-0.0006824160776,-8.010110485e-05,-0.0007625171825,-0.0008241304211,-0.0001848253352,-0.001008955756,0.001051696848,-7.176357827e-05,0.0009799332701,-0.0005727914945,-0.0001202882771,-0.0006930797716,-0.00142134466,-7.023784133e-06,-0.001428368444,-0.0003709811926,0.0002608518976,-0.000110129295,-0.0001620510084,0.0003371501145,0.0001750991061,-3.513960758e-05,-0.0001151017396,-0.0001502413472,0.0001244943154,0.0001359081714,0.0002604024869,0.0002915519305,-0.0003045963374,-1.304440691e-05,4.677697244e-05,-0.0005152683675,-0.000468491395,0.0001324792251,-0.0002729883109,-0.0001405090858,-0.0004724475552,-0.0002972881296,-0.0007697356848,-0.0002570827531,3.397762576e-05,-0.0002231051273,-0.001055403822,0.000562748056,-0.0004926557664,-0.00024048272,-0.0002986895342,-0.0005391722542,-0.000186012689,-0.0001945365115,-0.0003805492005
2.5,-0.002245945138,0.0005436681851,-0.001702276952,-0.001030864159,7.977562261e-05,-0.0009510885365,-0.001212802981,4.467992532e-05,-0.001168123055,-0.0004203840272,-0.000189398687,-0.0006097827142,0.000397124146,-0.0001634803409,0.0002336438051,-0.0006047558851,-3.613618141e-05,-0.0006408920665,0.0003678696159,-4.567460182e-05,0.000322195014,-0.000379433779,9.706442222e-06,-0.0003697273368,0.002359777118,-6.558266975e-05,0.002294194449,0.0004253276987,-0.0001193404869,0.0003059872117,-0.0002680814037,-0.0002455652978,-0.0005136467015,-9.662382531e-05,0.0002099749712,0.0001133511459,-3.943382516e-05,0.0002652487576,0.0002258149325,0.0006387741252,-8.437934653e-06,0.0006303361905,0.0003942521978,-0.000226204684,0.0001680475138,0.0005821596846,-0.0001344290549,0.0004477306296,0.0005966453665,-0.0001173189419,0.0004793264246,-0.0001493959046,-0.0003805681277,-0.0005299640323,0.0001296845689,-3.564548002e-05,9.403908893e-05,-0.0007583433011,-8.073888983e-05,-0.000839082191,-0.0008619774948,-0.0001882524479,-0.001050229943,0.001027081422,-8.099119332e-05,0.000946090229,-0.0005860658648,-0.0001201913336,-0.0007062571984,-0.001417320214,-6.271553965e-06,-0.001423591768,-0.0004304801368,0.0002613811217,-0.0001690990151,-0.0002532443364,0.0003414167329,8.817239649e-05,-8.22170189e-05,-0.0001311323775,-0.0002133493964,3.622421568e-05,0.000136987928,0.0001732121437,0.0002217580162,-0.0003097095242,-8.7951508e-05,-3.651652115e-05,-0.0005173440514,-0.0005538605726,5.583775145e-05,-0.0002811737325,-0.0002253359811,-0.0005535724497,-0.0002972602421,-0.0008508326918,-0.0003214610649,3.130917651e-05,-0.0002901518884,-0.001141186778,0.0005654663108,-0.0005757204675,-0.0003449499225,-0.0003026815377,-0.0006476314601,-0.0002701493945,-0.0001916633251,-0.0004618127196
2.6,-0.002268724703,0.0005546740416,-0.001714050662,-0.001112731968,7.2126416e-05,-0.001040605552,-0.001239025041,4.498991828e-05,-0.001194035123,-0.0004848250457,-0.0001958183029,-0.0006806433486,0.0003476283447,-0.0001647060814,0.0001829222633,-0.0006820127553,-3.547293428e-05,-0.0007174856896,0.0002887314813,-4.5969262e-05,0.0002427622193,-0.0004752229247,1.060506458e-05,-0.0004646178602,0.00226329978,-6.329052062e-05,0.00220000926,0.0003314777743,-0.0001160833519,0.0002153944225,-0.0003278530275,-0.000242575239,-0.0005704282664,-0.0001588118303,0.0002108913128,5.20794825e-05,-0.0001162055736,0.0002482206893,0.0001320151157,0.000559950795,-1.522813035e-05,0.0005447226647,0.0003199824618,-0.0002296333061,9.034915568e-05,0.0004837161794,-0.0001321661623,0.0003515500171,0.0005093380766,-0.0001202688003,0.0003890692763,-0.0002372690697,-0.0003775382495,-0.0006148073193,4.116941729e-05,-3.183949136e-05,9.329925935e-06,-0.0008318960309,-8.104289283e-05,-0.0009129389237,-0.0008941359501,-0.0001914434639,-0.001085579414,0.001005493846,-8.962209463e-05,0.0009158717517,-0.0005947182626,-0.0001198733022,-0.0007145915647,-0.001411135221,-5.618067807e-06,-0.001416753289,-0.0004881730708,0.0002622314523,-0.0002259416185,-0.0003436306422,0.0003456141742,1.983531958e-06,-0.0001279785562,-0.0001470192591,-0.0002749978153,-5.067441861e-05,0.000136813278,8.613885939e-05,0.0001517573592,-0.0003144305081,-0.000162673149,-0.0001197895572,-0.0005188523141,-0.0006386418713,-2.270079035e-05,-0.0002883874659,-0.0003110882562,-0.0006355324129,-0.0002966850897,-0.0009322175025,-0.0003838729989,2.818776479e-05,-0.0003556852342,-0.001221730078,0.000566237005,-0.000655493073,-0.0004502468508,-0.0003062752049,-0.0007565220556,-0.000354413002,-0.0001877115133,-0.0005421245153
2.7,-0.002285799157,0.000566533949,-0.001719265208,-0.001190862298,6.480372818e-05,-0.00112605857,-0.001262294769,4.554383709e-05,-0.001216750931,-0.0005451441001,-0.0002019803918,-0.0007471244919,0.0002999088221,-0.0001656372655,0.0001342715566,-0.0007561910423,-3.446332343e-05,-0.0007906543657,0.0002111853111,-4.600604952e-05,0.0001651792615,-0.0005692872264,1.174405749e-05,-0.0005575431689,0.002166972511,-6.05634795e-05,0.002106409031,0.0002401524718,-0.0001124577953,0.0001276946765,-0.0003820081548,-0.0002390522569,-0.0006210604118,-0.0002200107209,0.0002113060447,-8.704676263e-06,-0.0001906530809,0.0002298476653,3.91945844e-05,0.0004801083306,-2.202846337e-05,0.0004580798672,0.0002454550443,-0.0002329105162,1.254452808e-05,0.0003823562347,-0.0001293601674,0.0002529960674,0.0004191750332,-0.0001229012809,0.0002962737523,-0.0003269681215,-0.0003731138968,-0.0007000820183,-4.847953778e-05,-2.801251473e-05,-7.649205251e-05,-0.0009028420958,-8.099561173e-05,-0.0009838377075,-0.0009205592693,-0.0001944011246,-0.001114960394,0.0009870177096,-9.758971551e-05,0.0008894279941,-0.0005986710822,-0.0001193370282,-0.0007180081104,-0.001402792192,-5.017981678e-06,-0.001407810173,-0.0005439672778,0.0002634192393,-0.0002805480385,-0.000432898367,0.000349680875,-8.321749198e-05,-0.0001725492692,-0.0001625234599,-0.0003350727291,-0.0001359432558,0.000135374287,-5.689688092e-07,8.176196252e-05,-0.0003187565285,-0.0002369945659,-0.0002028586525,-0.0005197908549,-0.0007226495074,-0.0001029225499,-0.0002945624424,-0.0003974849923,-0.0007180573245,-0.0002956693611,-0.001013726686,-0.0004442187178,2.46366504e-05,-0.0004195820674,-0.001296938738,0.0005649054435,-0.0007320332943,-0.0005560482998,-0.0003094479212,-0.000865496221,-0.0004384561776,-0.0001827895514,-0.0006212457291
2.8,-0.002297108168,0.0005792456274,-0.00171786254,-0.001264851554,5.786883504e-05,-0.001206982719,-0.001282659424,4.635834826e-05,-0.001236301076,-0.0006010950648,-0.0002078613887,-0.0008089564535,0.0002540893791,-0.0001662777998,8.781157925e-05,-0.0008269924439,-3.308741938e-05,-0.0008600798633,0.0001354472181,-4.576733791e-05,8.967988023e-05,-0.0006612238724,1.314049021e-05,-0.0006480833822,0.002071195534,-5.739741096e-05,0.002013798124,0.0001516682591,-0.0001084622188,4.320604033e-05,-0.0004303470572,-0.0002350135459,-0.0006653606031,-0.0002800236561,0.0002112501822,-6.877347385e-05,-0.0002628567547,0.0002104682627,-5.238849195e-05,0.0003995186937,-2.879216761e-05,0.0003707265261,0.0001708700819,-0.000236030319,-6.516023715e-05,0.0002785534154,-0.0001260606755,0.00015249274,0.0003264431183,-0.0001251818161,0.0002012613022,-0.0004181717428,-0.0003673382208,-0.0007855099636,-0.0001388984078,-2.422514565e-05,-0.0001631235534,-0.0009709909818,-8.058061275e-05,-0.001051571595,-0.0009412789808,-0.0001971302428,-0.001138409224,0.0009716805661,-0.0001048304596,0.0008668501066,-0.0005979130952,-0.0001185881806,-0.0007165012758,-0.001392331572,-4.422802298e-06,-0.001396754375,-0.0005978124032,0.0002649566913,-0.0003328557119,-0.0005207784333,0.000353553208,-0.0001672252253,-0.0002160939965,-0.0001774086813,-0.0003935026778,-0.0002193630612,0.0001326789918,-8.668406935e-05,1.195751478e-05,-0.0003226861974,-0.0003107286827,-0.0002855717992,-0.0005201608418,-0.0008057326409,-0.0001846160089,-0.0002996471357,-0.0004842631446,-0.0008008944146,-0.0002943271795,-0.001095221594,-0.0005024460681,2.068719121e-05,-0.0004817588769,-0.00136681257,0.0005613275998,-0.0008054849701,-0.0006620686403,-0.0003121665654,-0.0009742352057,-0.0005219587155,-0.0001770204372,-0.0006989791527
2.9,-0.002302635166,0.0005928022909,-0.001709832875,-0.001334342044,5.137909645e-05,-0.001282962947,-0.001300201898,4.744876475e-05,-0.001252753133,-0.0006524849133,-0.0002134392994,-0.0008659242127,0.000210254728,-0.0001666333044,4.362142361e-05,-0.0008941646465,-3.132666685e-05,-0.0009254913133,6.16885896e-05,-4.523727072e-05,1.645131887e-05,-0.0007506649399,1.481069996e-05,-0.00073585424,0.001976333534,-5.379081164e-05,0.001922542723,6.629242405e-05,-0.0001040969154,-3.78044913e-05,-0.0004727416259,-0.0002304790961,-0.000703220722,-0.0003386833373,0.0002107595258,-0.0001279238115,-0.0003329377365,0.0001904111095,-0.000142526627,0.0003184365818,-3.547155663e-05,0.0002829650252,9.64082028e-05,-0.0002389865514,-0.0001425783486,0.0001727840918,-0.0001223222008,5.046189102e-05,0.0002314275415,-0.0001270765227,0.0001043510188,-0.0005105631588,-0.0003602643033,-0.0008708274621,-0.0002297424106,-2.05353311e-05,-0.0002502777417,-0.001036189695,-7.978273027e-05,-0.001115972425,-0.0009563996701,-0.0001996375171,-0.001156037187,0.0009594573895,-0.0001112844324,0.0008481729571,-0.000592496419,-0.0001176350419,-0.0007101314609,-0.001379826996,-3.781590304e-06,-0.001383608586,-0.0006496930146,0.0002668532873,-0.0003828397273,-0.0006070330914,0.0003571669869,-0.0002498661045,-0.0002588010075,-0.0001914473554,-0.000450248363,-0.0003007458667,0.0001287519301,-0.0001719939366,-5.74901304e-05,-0.0003262189734,-0.0003837091038,-0.0003677992957,-0.0005199669949,-0.0008877662906,-0.0002675666889,-0.0003036058141,-0.000571172503,-0.0008838063983,-0.0002927751575,-0.001176581556,-0.0005585440873,1.637831648e-05,-0.0005421657709,-0.001431442409,0.0005553798515,-0.0008760625573,-0.0007680552764,-0.000314390485,-0.001082445761,-0.0006046270815,-0.0001705388316,-0.0007751659132
3.0,-0.002302404821,0.0006071929485,-0.001695211873,-0.00139902119,4.538787587e-05,-0.001353633314,-0.001315033714,4.882908577e-05,-0.001266204629,-0.0006991684502,-0.0002186933938,-0.000917861844,0.0001684584364,-0.0001667107093,1.74772706e-06,-0.0009574961672,-2.916396859e-05,-0.0009866601358,-9.952553722e-06,-4.440174619e-05,-5.435429992e-05,-0.000837272643,1.676998203e-05,-0.0008205026609,0.001882722421,-4.974477223e-05,0.001832977649,-1.575102971e-05,-9.936451893e-05,-0.0001151155486,-0.0005091310932,-0.000225471519,-0.0007346026123,-0.0003958395033,0.0002098737455,-0.0001859657578,-0.000401035961,0.0001699847835,-0.0002310511775,0.0002371142474,-4.201740033e-05,0.0001950968471,2.224105586e-05,-0.000241771917,-0.0002195308611,6.553361551e-05,-0.0001182021846,-5.266856905e-05,0.0001344192246,-0.0001285523487,5.866875919e-06,-0.0006038290128,-0.0003519525485,-0.0009557815612,-0.0003206828223,-1.699698703e-05,-0.0003376798094,-0.001098315597,-7.858826326e-05,-0.001176903861,-0.0009660898624,-0.000201931149,-0.001168021011,0.0009502780254,-0.0001168962497,0.0008333817758,-0.0005825306948,-0.0001164881767,-0.0006990188715,-0.001365378162,-3.041597542e-06,-0.001368419759,-0.0006996150327,0.0002691172319,-0.0004304978008,-0.000691438463,0.0003604604261,-0.0003309780369,-0.0003008630839,-0.0002044240827,-0.0005052871666,-0.0003799221756,0.0001236331161,-0.0002562890595,-0.0001264263517,-0.000329354598,-0.0004557809496,-0.0004494221639,-0.0005192176874,-0.0009686398512,-0.0003515496117,-0.0003064183202,-0.0006579679319,-0.0009665665373,-0.0002911276412,-0.001257694178,-0.0006125328475,1.175599252e-05,-0.000600776855,-0.001490999685,0.000546968727,-0.0009440309578,-0.0008737767229,-0.0003160751811,-0.001189851904,-0.0006861902503,-0.0001634878697,-0.00084967812
3.1,-0.002296479605,0.0006224024502,-0.001674077155,-0.001458619326,3.99442134e-05,-0.001418675112,-0.001327287278,5.05120208e-05,-0.001276775257,-0.0007410420791,-0.0002236040101,-0.0009646460892,0.0001287319473,-0.0001665179622,-3.77860149e-05,-0.001016810369,-2.658374003e-05,-0.001043394109,-7.935962782e-05,-4.324844195e-05,-0.0001226080698,-0.000920733971,1.903253431e-05,-0.0009017014367,0.001790676348,-4.526293351e-05,0.001745413414,-9.427434152e-05,-9.427029386e-05,-0.0001885446354,-0.0005395160722,-0.000220015865,-0.0007595319371,-0.0004513464192,0.0002086350865,-0.0002427113327,-0.0004672901954,0.0001494688818,-0.0003178213137,0.0001558145858,-4.837862142e-05,0.0001074359644,-5.145886099e-05,-0.0002443769702,-0.0002958358312,-4.269781794e-05,-0.0001137590351,-0.0001564568531,3.572348916e-05,-0.0001295775336,-9.38540444e-05,-0.0006976572969,-0.0003424679267,-0.001040125224,-0.0004114023843,-1.365854483e-05,-0.0004250609291,-0.001157268975,-7.69851977e-05,-0.001234254172,-0.0009705716741,-0.0002040203893,-0.001174592063,0.0009440359206,-0.0001216160001,0.0008224199205,-0.000568176573,-0.0001151600698,-0.0006833366428,-0.001349103659,-2.14892151e-06,-0.001351252581,-0.0007475907005,0.0002717561795,-0.000475834521,-0.0007737682313,0.0003633777539,-0.0004103904774,-0.0003424601826,-0.0002161375858,-0.0005585977683,-0.0004567273743,0.0001173763982,-0.0003393509761,-0.0001947002121,-0.0003320927276,-0.0005267929397,-0.0005303224655,-0.0005179249644,-0.00104824743,-0.0004363224873,-0.000308079718,-0.0007444022053,-0.001048953203,-0.0002894926949,-0.001338445897,-0.0006644527315,6.872426721e-06,-0.0006575803048,-0.001545724071,0.0005360403243,-0.001009683747,-0.000979010164,-0.0003171759561,-0.00129618612,-0.0007663943785,-0.0001560157981,-0.0009224101766
3.2,-0.002284956491,0.0006384112726,-0.001646545218,-0.001512907521,3.509239918e-05,-0.001477815122,-0.001337109382,5.250892534e-05,-0.001284600456,-0.0007780388764,-0.0002281525725,-0.001006191449,9.109173171e-05,-0.0001660638952,-7.49721635e-05,-0.001071961043,-2.35719766e-05,-0.00109553302,-0.0001464290608,-4.17669097e-05,-0.0001881959705,-0.001000757222,2.161140143e-05,-0.0009791458202,0.001700492022,-4.035145986e-05,0.001660140562,-0.0001691204724,-8.882222193e-05,-0.0002579426943,-0.0005639530055,-0.000214139437,-0.0007780924425,-0.000505054593,0.0002070867683,-0.0002979678247,-0.0005318246931,0.0001291074774,-0.0004027172157,7.481770145e-05,-5.450263653e-05,2.031506492e-05,-0.0001245126325,-0.0002467892752,-0.0003713019077,-0.0001513934998,-0.0001090499891,-0.0002604434889,-6.433318383e-05,-0.0001301224861,-0.00019445567,-0.0007917362543,-0.0003318771526,-0.001123613407,-0.0005015916455,-1.056144346e-05,-0.000512153089,-0.001212967741,-7.496340984e-05,-0.001287931151,-0.0009701119241,-0.0002059151992,-0.001176027123,0.0009405955457,-0.0001254003596,0.0008151951861,-0.0005496402383,-0.0001136648008,-0.0006633050391,-0.001331135618,-1.049171731e-06,-0.00133218479,-0.0007936270803,0.0002747770019,-0.0005188500784,-0.0008537847776,0.000365872542,-0.0004879122356,-0.0003837464649,-0.0002264030016,-0.0006101494665,-0.0005309921174,0.0001100469738,-0.0004209451437,-0.0002621601659,-0.0003344328628,-0.0005965930287,-0.000610378099,-0.0005161044281,-0.001126482527,-0.000521622081,-0.0003086000035,-0.0008302220846,-0.001130745908,-0.0002879692495,-0.001418715157,-0.000714355705,1.784892943e-06,-0.0007125708121,-0.001595913034,0.0005225882137,-0.00107332482,-0.001083532622,-0.0003176508159,-0.001401183437,-0.0008449990995,-0.000148272194,-0.0009932712934
3.3,-0.002267964563,0.0006551951839,-0.001612769379,-0.001561696441,3.087167054e-05,-0.00153082477,-0.001344657183,5.482961536e-05,-0.001289827568,-0.0008101261754,-0.0002323218095,-0.001042447985,5.554296452e-05,-0.0001653582298,-0.0001098152653,-0.001122830707,-2.011641421e-05,-0.001142947122,-0.0002110671681,-3.99487422e-05,-0.0002510159103,-0.001077071612,2.451828552e-05,-0.001052553327,0.001612449188,-3.501904883e-05,0.00157743014,-0.0002401604766,-8.303095127e-05,-0.0003231914279,-0.0005825502577,-0.0002078716343,-0.000790421892,-0.0005568083185,0.0002052712619,-0.0003515370565,-0.0005947446747,0.0001091059916,-0.0004856386831,-5.580043172e-06,-6.033645405e-05,-6.591649722e-05,-0.0001967344503,-0.0002489930455,-0.0004457274958,-0.0002600242239,-0.0001041287241,-0.000364152948,-0.0001654006118,-0.0001301608932,-0.000295561505,-0.0008857549656,-0.0003202463789,-0.001206001345,-0.0005909477621,-7.73862774e-06,-0.0005986863899,-0.001265345306,-7.251482464e-05,-0.001337860131,-0.0009650160356,-0.0002076260723,-0.001172642108,0.0009397971723,-0.0001282137392,0.000811583433,-0.0005271697559,-0.0001120177622,-0.0006391875181,-0.001311617002,3.119162852e-07,-0.001311305086,-0.0008377208384,0.0002781849278,-0.0005595359107,-0.0009312398484,0.0003679101319,-0.0005633297165,-0.0004248425049,-0.0002350557312,-0.0006598982362,-0.0006025397871,0.0001017189714,-0.0005008208157,-0.0003286537345,-0.0003363744916,-0.000665028226,-0.0006894622434,-0.0005137751034,-0.001203237347,-0.0006071647739,-0.0003080037724,-0.0009151685463,-0.001211723665,-0.0002866455283,-0.001498369194,-0.0007622997735,-3.445702173e-06,-0.0007657454757,-0.001641914436,0.000506658707,-0.001135255729,-0.001187117622,-0.0003174620708,-0.001504579693,-0.0009217773596,-0.0001404036001,-0.00106218096
3.4,-0.002245663754,0.0006727249066,-0.001572938847,-0.001604836469,2.731612044e-05,-0.001577520348,-0.001350096769,5.748206662e-05,-0.001292614702,-0.0008373057301,-0.0002360961167,-0.001073401847,2.207955941e-05,-0.0001644116773,-0.0001423321179,-0.001169331515,-1.620686112e-05,-0.001185538376,-0.0002731920289,-3.778781397e-05,-0.0003109798429,-0.001149430052,2.776331626e-05,-0.001121666736,0.001526807635,-2.927694502e-05,0.00149753069,-0.0003072938388,-7.690966916e-05,-0.0003842035079,-0.0005954661255,-0.0002012438257,-0.0007967099513,-0.0006064483767,0.0002032286353,-0.0004032197413,-0.0006561397572,8.963126947e-05,-0.0005665084878,-8.507281664e-05,-6.582842224e-05,-0.0001509012389,-0.0002679349432,-0.000250969596,-0.0005189045392,-0.0003680572829,-9.904295149e-05,-0.0004671002344,-0.0002671073881,-0.0001296707126,-0.0003967781006,-0.0009794051542,-0.0003076403054,-0.00128704546,-0.0006791759553,-5.213248393e-06,-0.0006843892037,-0.001314351353,-6.963356096e-05,-0.001383984914,-0.0009556247344,-0.0002091639302,-0.001164788665,0.0009414588894,-0.0001300292804,0.0008114296091,-0.0005010531803,-0.0001102353992,-0.0006112885795,-0.0012907012,1.987859624e-06,-0.00128871334,-0.0008798593511,0.000281982468,-0.000597876883,-0.001005883162,0.0003694688802,-0.0006364142818,-0.0004658321909,-0.000241957003,-0.0007077891939,-0.0006711913395,9.247392198e-05,-0.0005787174176,-0.0003940306254,-0.0003379173311,-0.0007319479565,-0.0007674461827,-0.0005109594259,-0.001278405609,-0.0006926509488,-0.0003063296396,-0.0009989805884,-0.001291665699,-0.0002855986561,-0.001577264355,-0.0008083468152,-8.756272933e-06,-0.0008171030881,-0.001684121131,0.0004883525401,-0.001195768591,-0.001289537022,-0.0003165767055,-0.001606113728,-0.0009965191166,-0.0001325490073,-0.001129068124
3.5,-0.002218244485,0.0006909658401,-0.001527278645,-0.001642218789,2.445474272e-05,-0.001617764047,-0.001353603613,6.047202421e-05,-0.001293131589,-0.0008596156867,-0.0002394620054,-0.001099077692,-9.318523132e-06,-0.0001632360873,-0.0001725546104,-0.001211407863,-1.183571318e-05,-0.001223243576,-0.0003327387147,-3.528055938e-05,-0.000368019274,-0.00121761426,3.135495065e-05,-0.00118625931,0.00144380199,-2.313887998e-05,0.00142066311,-0.0003704509468,-7.047391041e-05,-0.0004409248572,-0.0006029083099,-0.0001942892009,-0.0007971975108,-0.0006538181917,0.0002009952913,-0.0004528229004,-0.0007160918871,7.081356984e-05,-0.0006452783173,-0.0001633549831,-7.093035379e-05,-0.0002342853369,-0.0003379262538,-0.0002526986703,-0.0005906249241,-0.000474968338,-9.383245954e-05,-0.0005688007975,-0.0003690675761,-0.0001286347693,-0.0004977023454,-0.001072383435,-0.0002941231433,-0.001366506578,-0.0007659929182,-2.997855696e-06,-0.0007689907739,-0.001359954537,-6.631612944e-05,-0.001426270667,-0.0009423126345,-0.0002105400179,-0.001152852652,0.0009453766847,-0.0001308295935,0.0008145470912,-0.0004716177562,-0.0001083349638,-0.00057995272,-0.001268552746,4.030638353e-06,-0.001264522108,-0.000920026274,0.0002861683401,-0.0006338579339,-0.001077475507,0.0003705401653,-0.000706935342,-0.0005067632937,-0.0002470002837,-0.0007537635773,-0.0007367752437,8.240012584e-05,-0.0006543751178,-0.0004581478099,-0.0003390616614,-0.0007972094713,-0.0008442038006,-0.0005076832408,-0.001351887041,-0.0007777717175,-0.0003036293967,-0.001081401114,-0.001370353988,-0.0002848951825,-0.001655249171,-0.0008525631898,-1.408282797e-05,-0.0008666460177,-0.001722965699,0.0004678225358,-0.001255143163,-0.001390566202,-0.0003149660786,-0.001705532281,-0.001069037529,-0.0001248358459,-0.001193873375
3.6,-0.002185927712,0.0007098779179,-0.001476049794,-0.001673776793,2.231150595e-05,-0.001651465287,-0.001355363776,6.38025824e-05,-0.001291561193,-0.0008771330523,-0.0002424085659,-0.001119541618,-3.868907935e-05,-0.0001618445775,-0.0002005336568,-0.001249039313,-6.99858763e-06,-0.001256037901,-0.0003896654476,-3.242620302e-05,-0.0004220916506,-0.001281440633,3.530005102e-05,-0.001246140582,0.001363636105,-1.662088774e-05,0.001347015217,-0.0004295962642,-6.374131625e-05,-0.0004933375804,-0.00060513385,-0.0001870425555,-0.0007921764055,-0.0006987711971,0.0001986033865,-0.0005001678106,-0.0007746833971,5.274941061e-05,-0.0007219339865,-0.0002401302891,-7.559962734e-05,-0.0003157299165,-0.0004065267907,-0.0002541602732,-0.0006606870639,-0.0005802534347,-8.852798013e-05,-0.0006687814149,-0.0004708895241,-0.0001270409047,-0.0005979304287,-0.001164393374,-0.0002797609929,-0.001444154367,-0.0008511310045,-1.09431634e-06,-0.0008522253209,-0.001402145523,-6.256175726e-05,-0.001464707281,-0.0009254872303,-0.0002117658073,-0.001137253038,0.0009513240895,-0.0001306072778,0.0008207168117,-0.000439229061,-0.000106334294,-0.000545563355,-0.001245347691,6.489686164e-06,-0.001238858004,-0.0009582088109,0.0002907364541,-0.0006674723568,-0.001145802437,0.0003711274558,-0.0007746749816,-0.0005476506045,-0.0002501168962,-0.0007977675007,-0.0007991387324,7.159241192e-05,-0.0007275463205,-0.0005208744417,-0.0003398087959,-0.0008606832376,-0.0009196159264,-0.0005039754822,-0.001423591409,-0.0008622158321,-0.0002999670673,-0.001162182899,-0.001447576487,-0.0002845920747,-0.001732168562,-0.0008950217515,-1.936141853e-05,-0.00091438317,-0.001758914219,0.0004452683531,-0.001313645866,-0.001489990299,-0.0003126054845,-0.001802595783,-0.001139175241,-0.0001173770119,-0.001256552253
3.7,-0.002148964653,0.0007294156593,-0.001419548993,-0.001699486994,2.090544683e-05,-0.001678581547,-0.001355574467,6.747382939e-05,-0.001288100638,-0.0008899751057,-0.0002449278509,-0.001134902957,-6.609061142e-05,-0.0001602515585,-0.0002263421699,-0.001282242226,-1.694987041e-06,-0.001283937213,-0.0004439579203,-2.922686467e-05,-0.000473184785,-0.001340764909,3.960405236e-05,-0.001301160856,0.001286479142,-9.741024147e-06,0.001276738118,-0.0004847303539,-5.673140713e-05,-0.0005414617611,-0.0006024481283,-0.0001795400264,-0.0007819881546,-0.0007411767106,0.0001960809598,-0.0005450957508,-0.000832001066,3.550476742e-05,-0.0007964962986,-0.0003151173748,-7.980080012e-05,-0.0003949181749,-0.0004735636215,-0.0002553364405,-0.000728900062,-0.0006834385128,-8.315085967e-05,-0.0007665893725,-0.0005721841046,-0.0001248817923,-0.0006970658969,-0.00125514657,-0.000264624693,-0.001519771263,-0.000934341821,5.055093962e-07,-0.0009338363116,-0.001440938495,-5.837282965e-05,-0.001499311325,-0.0009055864759,-0.0002128529249,-0.001118439401,0.0009590531642,-0.0001293652195,0.0008296879447,-0.0004042886254,-0.0001042516113,-0.0005085402368,-0.00122127218,9.410787033e-06,-0.001211861393,-0.0009944035668,0.00029567506,-0.0006987285068,-0.001210684755,0.0003712451601,-0.0008394395948,-0.0005884801509,-0.0002512793058,-0.0008397594567,-0.0008581564504,6.015173584e-05,-0.0007980047145,-0.000582094275,-0.0003401616501,-0.0009222559252,-0.000993572484,-0.0004998673048,-0.001493439789,-0.0009456746165,-0.0002954179177,-0.001241092534,-0.001523129272,-0.0002847375759,-0.001807866848,-0.0009358032964,-2.452873225e-05,-0.0009603320287,-0.001792458546,0.0004209304108,-0.001371528135,-0.001587608998,-0.0003094738867,-0.001897082885,-0.001206808386,-0.0001102691125,-0.001317077499
3.8,-0.002107635324,0.0007495283954,-0.001358106928,-0.001719368635,2.025088358e-05,-0.001699117751,-0.001354442611,7.148263932e-05,-0.001282959971,-0.0008982981957,-0.0002470150936,-0.001145313289,-9.16023873e-05,-0.0001584725947,-0.000250074982,-0.001311068504,4.071093662e-06,-0.00130699741,-0.0004956290215,-2.568751687e-05,-0.0005213165384,-0.001395483637,4.427104092e-05,-0.001351212596,0.00121246545,-2.519053068e-06,0.001209946397,-0.0005358888445,-4.946543509e-05,-0.0005853542796,-0.0005952014008,-0.000171818816,-0.0007670202168,-0.0007809215664,0.0001934526704,-0.000587468896,-0.0008881327588,1.911814066e-05,-0.0008690146181,-0.0003880490225,-8.350633558e-05,-0.0004715553581,-0.0005388705786,-0.0002562125563,-0.0007950831349,-0.0007840840145,-7.771331724e-05,-0.0008617973317,-0.0006725696542,-0.0001221546186,-0.0007947242728,-0.001344361786,-0.0002487922536,-0.001593154039,-0.001015397751,1.818484219e-06,-0.001013579267,-0.001476369581,-5.375528703e-05,-0.001530124868,-0.0008830731472,-0.0002138130422,-0.001096886189,0.0009682983606,-0.0001271164974,0.0008411818632,-0.0003672286491,-0.0001021052928,-0.0004693339419,-0.001196518187,1.283506883e-05,-0.001183683119,-0.001028617807,0.0003009662612,-0.0007276515455,-0.001271981903,0.000370917987,-0.0009010639163,-0.0006292120951,-0.0002505016147,-0.0008797137098,-0.0009137336625,4.818449032e-05,-0.0008655491722,-0.0006417037126,-0.0003401252656,-0.0009818289782,-0.001065970504,-0.00049539074,-0.001561361244,-0.001027843398,-0.0002900671921,-0.001317910591,-0.001596815994,-0.0002853712895,-0.001882187284,-0.0009749951956,-2.952257757e-05,-0.001004517773,-0.001824105672,0.0003950841684,-0.001429021504,-0.001683237491,-0.0003055539335,-0.001988791424,-0.001271846673,-0.0001035914845,-0.001375438158
3.9,-0.00206224513,0.0007701605906,-0.001292084539,-0.001733481341,2.035781387e-05,-0.001713123527,-0.001352180309,7.582264432e-05,-0.001276357664,-0.0009022927869,-0.0002486687234,-0.00115096151,-0.0001153201331,-0.0001565241084,-0.0002718442415,-0.001335600416,1.029071866e-05,-0.001325309698,-0.0005447122574,-2.18158272e-05,-0.0005665280846,-0.001445531001,4.93035207e-05,-0.00139622748,0.001141699281,5.023869095e-06,0.00114672315,-0.0005831372099,-4.196630791e-05,-0.0006251035178,-0.0005837818043,-0.0001639169014,-0.0007476987057,-0.0008179058776,0.0001907410559,-0.0006271648217,-0.0009431551164,3.603076109e-06,-0.0009395520402,-0.0004586645353,-8.669629807e-05,-0.0005453608334,-0.0006022813252,-0.0002567781156,-0.0008590594408,-0.0008817829424,-7.221923701e-05,-0.0009540021794,-0.0007716716803,-0.0001188608225,-0.0008905325028,-0.001431761497,-0.0002323503462,-0.001664111843,-0.001094090194,2.868557475e-06,-0.001091221637,-0.001508491621,-4.871881447e-05,-0.001557210436,-0.0008584250859,-0.0002146576303,-0.001073082716,0.0009787839209,-0.0001238837684,0.0008549001525,-0.0003285032939,-9.991359708e-05,-0.000428416891,-0.001171276265,1.679824241e-05,-0.001154478023,-0.00106086379,0.0003065860309,-0.0007542777587,-0.001329585306,0.000370181078,-0.0009594042275,-0.0006697799445,-0.0002478377972,-0.0009176177417,-0.0009658033189,3.580201273e-05,-0.0009300013062,-0.0006996052832,-0.0003397071665,-0.00103931245,-0.001136707602,-0.00049057714,-0.001627284742,-0.001108419218,-0.0002840082877,-0.001392427506,-0.001668444173,-0.0002865232317,-0.001954967404,-0.001012685568,-3.428269693e-05,-0.001046968265,-0.00185436209,0.000368034568,-0.001486327522,-0.001776702193,-0.0003008322691,-0.002077534462,-0.001334229094,-9.740518155e-05,-0.001431634276
4.0,-0.002013119421,0.0007912521759,-0.001221867245,-0.001741920777,2.12324042e-05,-0.001720688372,-0.001348997225,8.048436466e-05,-0.00126851286,-0.000902174972,-0.000249890207,-0.001152065179,-0.0001373476365,-0.0001544230154,-0.0002917706519,-0.001355942036,1.69497799e-05,-0.001338992256,-0.0005912499104,-1.762194618e-05,-0.0006088718566,-0.001490871341,5.470181077e-05,-0.00143616953,0.001074263187,1.286550425e-05,0.001087128691,-0.0006265620186,-3.425851533e-05,-0.0006608205339,-0.0005686051546,-0.0001558726928,-0.0007244778474,-0.0008520340786,0.0001879681212,-0.0006640659574,-0.0009971147119,-1.104993802e-05,-0.00100816465,-0.0005266982109,-8.935723348e-05,-0.0006160554444,-0.0006636192674,-0.0002570270351,-0.0009206463026,-0.0009761530687,-6.666550908e-05,-0.001042818578,-0.0008691176467,-0.0001150059223,-0.000984123569,-0.00151706614,-0.0002153948686,-0.001732461008,-0.001170224391,3.685039709e-06,-0.001166539351,-0.001537366338,-4.327684732e-05,-0.001580643185,-0.0008321223225,-0.0002153975961,-0.001047519919,0.0009902339422,-0.000119698286,0.0008705356563,-0.000288577566,-9.769439075e-05,-0.0003862719567,-0.001145726696,2.133012983e-05,-0.001124396566,-0.001091146738,0.0003125046035,-0.0007786421347,-0.001383402597,0.0003690805152,-0.001014322082,-0.000710085611,-0.0002433785119,-0.0009534641229,-0.001014318841,2.312071602e-05,-0.0009911981247,-0.0007556987564,-0.0003389175138,-0.00109461627,-0.001205673246,-0.0004854556711,-0.001691128918,-0.001187096376,-0.0002773404429,-0.001464436819,-0.001737819618,-0.0002882122755,-0.002026031893,-0.001048953306,-3.875214733e-05,-0.001087705453,-0.001883713098,0.0003401099629,-0.001543603135,-0.001867832214,-0.0002953000261,-0.00216313224,-0.001393916258,-9.175163835e-05,-0.001485667896
4.1,-0.001960596976,0.0008127388689,-0.001147858107,-0.001744813184,2.287742321e-05,-0.001721935761,-0.001345091577,8.545543041e-05,-0.001259636147,-0.0008981765151,-0.0002506837956,-0.001148860311,-0.0001577867902,-0.0001521864086,-0.0003099731987,-0.001372209648,2.402891846e-05,-0.00134818073,-0.000635279999,-1.311831311e-05,-0.0006483983121,-0.001531489972,6.046330304e-05,-0.001471026669,0.00101022695,2.098281444e-05,0.001031209764,-0.0006662610636,-2.636801119e-05,-0.0006926290748,-0.0005501033603,-0.0001477246509,-0.0006978280112,-0.0008832053583,0.0001851568626,-0.0006980484957,-0.001050008796,-2.487208833e-05,-0.001074880884,-0.000591869512,-9.148079444e-05,-0.0006833503065,-0.0007226884155,-0.0002569577571,-0.0009796461726,-0.001066827005,-6.104370296e-05,-0.001127870708,-0.0009645298526,-0.0001105992945,-0.001075129147,-0.001599987542,-0.0001980309348,-0.001798018477,-0.001243612354,4.30098184e-06,-0.001239311372,-0.001563056311,-3.744653185e-05,-0.001600502843,-0.0008046337747,-0.0002160429661,-0.001020676741,0.00100238282,-0.0001145988416,0.000887783978,-0.0002479159365,-9.546494183e-05,-0.0003433808784,-0.001120031362,2.64543965e-05,-0.001093576965,-0.001119450776,0.0003186869185,-0.0008007638579,-0.001433338853,0.0003676733769,-0.001065665476,-0.0007499926794,-0.0002372471648,-0.0009872398442,-0.001059246081,1.026250822e-05,-0.001048983573,-0.0008098734384,-0.0003377690342,-0.001147642473,-0.001272741813,-0.0004800520305,-0.001752793843,-0.00126356248,-0.0002701664273,-0.001533728907,-0.001804741455,-0.0002904447716,-0.002095186226,-0.001083856705,-4.287902336e-05,-0.001126735728,-0.001912600567,0.0003116550296,-0.001600945538,-0.00195644973,-0.0002889531979,-0.002245402928,-0.001450881612,-8.665165135e-05,-0.001537533263
4.2,-0.001905023894,0.0008345525192,-0.001070471375,-0.001742310109,2.529257833e-05,-0.00171701753,-0.001340642283,9.072081558e-05,-0.001249921467,-0.00089053623,-0.0002510562728,-0.001141592503,-0.0001767294455,-0.0001498313573,-0.0003265608028,-0.001384523975,3.15034765e-05,-0.001353020498,-0.0006768267441,-8.319547679e-06,-0.0006851462918,-0.001567385619,6.658184084e-05,-0.001500803778,0.0009496537192,2.935217142e-05,0.0009790058907,-0.000702335209,-1.832205775e-05,-0.0007206572667,-0.0005287138008,-0.0001395109202,-0.000668224721,-0.000911308075,0.0001823323058,-0.0007289757692,-0.001101771729,-3.791509711e-05,-0.001139686826,-0.0006538797475,-9.306274673e-05,-0.0007469424943,-0.0007792690164,-0.0002565734083,-0.001035842425,-0.00115344473,-5.534167104e-05,-0.001208786401,-0.001057520357,-0.0001056538254,-0.001163174182,-0.001680223871,-0.000180372424,-0.001860596295,-0.001314066337,4.751721887e-06,-0.001309314615,-0.001585619267,-3.124872408e-05,-0.001616867991,-0.0007764064319,-0.0002166027552,-0.0009930091871,0.001014983511,-0.0001086307981,0.0009063527131,-0.0002069728239,-9.324179967e-05,-0.0003002146235,-0.001094328302,3.218836696e-05,-0.001062139935,-0.001145728411,0.0003250928875,-0.0008206355237,-0.001479282522,0.0003660267051,-0.001113255816,-0.0007893219045,-0.000229595527,-0.001018917432,-0.001100557422,-2.645179462e-06,-0.001103202601,-0.0008620044338,-0.0003362767163,-0.00119828115,-0.00133777047,-0.0004743875422,-0.001812158012,-0.00133749722,-0.0002625907296,-0.00160008795,-0.001868999865,-0.0002932139341,-0.002162213799,-0.001117424428,-4.661805538e-05,-0.001164042483,-0.001941404601,0.0002830226699,-0.001658381931,-0.00204236277,-0.000281792727,-0.002324155497,-0.001505104014,-8.210562301e-05,-0.001587209637
4.3,-0.001846748998,0.0008566215524,-0.0009901274453,-0.001734584277,2.847477429e-05,-0.001706109502,-0.001335804163,9.62630389e-05,-0.001239541124,-0.0008794945876,-0.0002510167658,-0.001130511353,-0.0001942533561,-0.0001473748407,-0.0003416281969,-0.001393005999,3.934346431e-05,-0.001353662535,-0.0007158972762,-3.242462531e-06,-0.0007191397388,-0.001598566539,7.304728224e-05,-0.001525519257,0.0008926016305,3.794947905e-05,0.0009305511096,-0.0007348838714,-1.014902367e-05,-0.0007450328951,-0.0005048714176,-0.000131269016,-0.0006361404336,-0.0009362205907,0.0001795219325,-0.0007566986583,-0.001152269779,-5.024994677e-05,-0.001202519726,-0.000712416957,-9.410268812e-05,-0.0008065196451,-0.0008331195962,-0.0002558820956,-0.001089001692,-0.001235651431,-4.95447855e-05,-0.001285196217,-0.001147690627,-0.0001001854878,-0.001247876115,-0.00175745814,-0.0001625408184,-0.001919998959,-0.001381394876,5.073577609e-06,-0.001376321299,-0.001605106037,-2.470805676e-05,-0.001629814094,-0.0007478588284,-0.0002170849948,-0.0009649438232,0.001027812021,-0.0001018452409,0.00092596678,-0.0001661862038,-9.104073635e-05,-0.0002572269401,-0.001068729892,3.854288945e-05,-0.001030187003,-0.001169896944,0.0003316774285,-0.000838219515,-0.001521100803,0.0003642153595,-0.001156885443,-0.0008278520971,-0.0002205991342,-0.001048451231,-0.001138229291,-1.546999793e-05,-0.001153699289,-0.0009119538165,-0.0003344574034,-0.00124641122,-0.001400602715,-0.0004684787596,-0.001869081475,-0.001408574833,-0.0002547183844,-0.001663293217,-0.001930377599,-0.0002965001251,-0.002226877724,-0.001149651438,-4.993187189e-05,-0.00119958331,-0.00197043378,0.0002545656488,-0.001715868131,-0.002125362508,-0.0002738246025,-0.00239918711,-0.001556563262,-7.809543613e-05,-0.001634658698
4.4,-0.001786121181,0.0008788715459,-0.0009072496351,-0.001721826912,3.241824585e-05,-0.001689408666,-0.001330706779,0.0001020623279,-0.001228644451,-0.0008652920135,-0.0002505766515,-0.001115868665,-0.0002104227905,-0.0001448338023,-0.0003552565928,-0.001397776805,4.751368904e-05,-0.001350263116,-0.0007524848676,2.093834984e-06,-0.0007503910326,-0.001625050793,7.984522569e-05,-0.001545205568,0.0008391208496,4.675024805e-05,0.0008858710977,-0.0007640047399,-1.878074503e-06,-0.0007658828144,-0.0004790042491,-0.00012303553,-0.0006020397792,-0.000957818422,0.0001767556656,-0.0007810627564,-0.001201303742,-6.196531044e-05,-0.001263269053,-0.0007671679033,-9.460436759e-05,-0.0008617722709,-0.0008839848804,-0.0002548972346,-0.001138882115,-0.001313101118,-4.363678717e-05,-0.001356737905,-0.001234636577,-9.421297071e-05,-0.001328849547,-0.001831361043,-0.0001446630223,-0.001976024065,-0.001445402409,5.302696584e-06,-0.001440099712,-0.001621562276,-1.785306732e-05,-0.001639415343,-0.0007193792168,-0.0002174968001,-0.0009368760168,0.001040667795,-9.429823247e-05,0.000946369563,-0.000125974643,-8.887673617e-05,-0.0002148513791,-0.001043324582,4.552226416e-05,-0.0009978023173,-0.001191842274,0.000338390299,-0.0008534519753,-0.001558645069,0.0003623191392,-0.00119632593,-0.0008653273122,-0.0002104528476,-0.00107578016,-0.001172243329,-2.807573861e-05,-0.001200319068,-0.0009595761051,-0.000332329496,-0.001291905601,-0.001461076613,-0.0004623375592,-0.001923414172,-0.001476470188,-0.0002466542104,-0.001723124398,-0.001988655382,-0.0003002717556,-0.002288927137,-0.001180500502,-5.279208766e-05,-0.001233292589,-0.001999925892,0.0002266290068,-0.001773296886,-0.002205225617,-0.0002650604183,-0.002470286035,-0.001605238921,-7.458767697e-05,-0.001679826598
4.5,-0.001723488612,0.000901225949,-0.0008222626627,-0.00170424637,3.711450442e-05,-0.001667131866,-0.001325456416,0.0001080967687,-0.001217359648,-0.0008481702989,-0.0002497495372,-0.001097919836,-0.0002252930918,-0.000142225284,-0.0003675183758,-0.001398960846,5.59741951e-05,-0.001342986651,-0.0007865773033,7.667845298e-06,-0.000778909458,-0.00164687008,8.695695176e-05,-0.001559913128,0.0007892471416,5.572968039e-05,0.000844976822,-0.0007897972159,6.461289636e-06,-0.0007833359262,-0.0004515322447,-0.0001148458054,-0.0005663780501,-0.000975985969,0.0001740656295,-0.0008019203396,-0.001248618241,-7.316547466e-05,-0.001321783716,-0.0008178344905,-9.457628019e-05,-0.0009124107706,-0.0009316077487,-0.0002536378224,-0.001185245571,-0.001385464758,-3.76004791e-05,-0.001423065237,-0.001317957922,-8.775753177e-05,-0.001405715454,-0.001901597621,-0.0001268683174,-0.002028465939,-0.00150589251,5.474124713e-06,-0.001500418385,-0.001635033221,-1.071628015e-05,-0.001645749501,-0.000691327749,-0.0002178444303,-0.0009091721793,0.00105337073,-8.605013832e-05,0.0009673205921,-8.673723705e-05,-8.676403978e-05,-0.0001735012768,-0.001018181355,5.312422015e-05,-0.0009650571347,-0.001211428808,0.0003451758766,-0.0008662529316,-0.001591764165,0.0003604196534,-0.001231344511,-0.0009014694627,-0.0001993665884,-0.001100836051,-0.001202591004,-4.03237635e-05,-0.001242914768,-0.001004726614,-0.0003299128596,-0.001334639473,-0.001519035933,-0.0004559715348,-0.001975007468,-0.001540867688,-0.0002385020947,-0.001779369782,-0.0020436205,-0.0003044864102,-0.00234810691,-0.001209908549,-5.518029586e-05,-0.001265088845,-0.002030057202,0.0001995436839,-0.001830513518,-0.00228172123,-0.0002555183373,-0.002537239567,-0.001651111841,-7.153777046e-05,-0.001722649612
4.6,-0.001659199341,0.000923606981,-0.0007355923599,-0.001682067771,4.255217811e-05,-0.001639515593,-0.001320140054,0.0001143424881,-0.001205797566,-0.0008283758984,-0.0002485512529,-0.001076927151,-0.0002389176364,-0.0001395665596,-0.000378484196,-0.001396691377,6.468100141e-05,-0.001332010376,-0.000818168012,1.345567651e-05,-0.0008047123355,-0.001664075918,9.435970175e-05,-0.001569716216,0.0007429937083,6.486278363e-05,0.0008078564919,-0.0008123682202,1.483978431e-05,-0.0007975284359,-0.0004228685068,-0.0001067335786,-0.0005296020854,-0.0009906300452,0.0001714857244,-0.0008191443208,-0.001293917255,-8.396701773e-05,-0.001377884273,-0.0008641511883,-9.403226511e-05,-0.0009581834534,-0.0009757428061,-0.0002521286402,-0.001227871446,-0.001452440565,-3.141860899e-05,-0.001483859174,-0.00139726968,-8.084323719e-05,-0.001478112917,-0.001967836245,-0.0001092852378,-0.002077121482,-0.00156267392,5.621102823e-06,-0.001557052818,-0.001645570293,-3.334109636e-06,-0.001648904402,-0.0006640411793,-0.0002181333943,-0.0008821745735,0.001065756104,-7.716497844e-05,0.0009885911252,-4.885534068e-05,-8.471623142e-05,-0.0001335715721,-0.0009933555311,6.133993752e-05,-0.0009320155936,-0.001228513238,0.0003519732166,-0.0008765400211,-0.001620321891,0.0003585974607,-0.00126172443,-0.0009359943318,-0.0001875606489,-0.001123554981,-0.001229280445,-5.207512926e-05,-0.001281355574,-0.001047270856,-0.0003272288472,-0.001374499703,-0.001574341885,-0.000449384514,-0.002023726399,-0.001601471673,-0.0002303640193,-0.001831835692,-0.002095077002,-0.0003090920009,-0.002404169003,-0.001237796466,-5.708866749e-05,-0.001294885134,-0.002060955565,0.000173620911,-0.001887334654,-0.002354621227,-0.0002452237742,-0.002599845001,-0.0016941675,-6.889448156e-05,-0.001763061982
4.7,-0.00159360254,0.000945936725,-0.0006476658151,-0.001655533204,4.871694325e-05,-0.00160681626,-0.00131482989,0.0001207739256,-0.001194055964,-0.0008061635491,-0.0002469997725,-0.001053163322,-0.0002513551935,-0.0001368751848,-0.0003882303783,-0.001391116355,7.358702311e-05,-0.001317529332,-0.0008472670447,1.943117554e-05,-0.0008278358691,-0.001676746392,0.0001020273154,-0.001574719077,0.0007003434153,7.412449548e-05,0.0007744679107,-0.0008318384497,2.322881307e-05,-0.0008086096367,-0.0003934215949,-9.873064473e-05,-0.0004921522397,-0.001001691834,0.0001690508592,-0.0008326409749,-0.001336884265,-9.449367356e-05,-0.001431377939,-0.0009058998676,-9.299190049e-05,-0.000998891768,-0.001016168948,-0.0002504003426,-0.001266569291,-0.00151376371,-2.507511541e-05,-0.001538838826,-0.001472213355,-7.349759589e-05,-0.00154571095,-0.002029757994,-9.203926724e-05,-0.002121797261,-0.001615567918,5.774529992e-06,-0.001609793388,-0.001653237888,4.253471623e-06,-0.001648984416,-0.0006378380997,-0.000218368629,-0.0008562067287,0.001077669132,-6.770972139e-05,0.001009959411,-1.269459933e-05,-8.274632182e-05,-9.544092115e-05,-0.0009688942524,7.015417608e-05,-0.0008987400764,-0.001242959255,0.0003587167004,-0.0008842425551,-0.001644214304,0.0003569299177,-0.001287284386,-0.0009686283217,-0.0001752600647,-0.001143888386,-0.001252343007,-6.319371672e-05,-0.001315536724,-0.001087092906,-0.0003243002817,-0.001411393188,-0.001626882785,-0.0004425771477,-0.002069459933,-0.00165801649,-0.0002223387057,-0.001880355195,-0.002142855356,-0.0003140279455,-0.002456883302,-0.001264080257,-5.851984589e-05,-0.001322600103,-0.002092712409,0.0001491465514,-0.001943565857,-0.002423711652,-0.0002342091632,-0.002657920815,-0.001734400219,-6.660393674e-05,-0.001801004155
4.8,-0.001527049335,0.0009681383548,-0.00055891098,-0.001624901806,5.559168133e-05,-0.001569310125,-0.001309586916,0.0001273642341,-0.001182222682,-0.0007817985249,-0.0002451149989,-0.001026913524,-0.0002626754901,-0.0001341689293,-0.0003968444194,-0.001382402901,8.264312978e-05,-0.001299759771,-0.0008739087313,2.556618993e-05,-0.0008483425414,-0.001684991188,0.0001099310045,-0.001575060184,0.0006612437627,8.34898088e-05,0.0007447335715,-0.0008483468598,3.160072655e-05,-0.0008167461332,-0.0003635971409,-9.086659252e-05,-0.0004544637334,-0.001009153886,0.0001667956959,-0.0008423581901,-0.001377202602,-0.0001048696964,-0.001482072299,-0.0009429185152,-9.148042412e-05,-0.001034398939,-0.001052698181,-0.0002484892575,-0.001301187438,-0.00156921295,-1.855654433e-05,-0.001587769494,-0.001542465568,-6.57523455e-05,-0.001608217914,-0.002087064931,-7.525160407e-05,-0.002162316535,-0.001664415282,5.962582462e-06,-0.0016584527,-0.001658118403,1.200352068e-05,-0.001646114882,-0.0006130224392,-0.0002185546759,-0.0008315771152,0.001088961051,-5.775340558e-05,0.001031207645,2.139437696e-05,-8.086677003e-05,-5.947239307e-05,-0.000944840102,7.954559234e-05,-0.0008652945097,-0.001254649586,0.0003653373927,-0.0008893121933,-0.001663381941,0.0003554898964,-0.001307892045,-0.0009991232827,-0.0001626881186,-0.001161811401,-0.001271836924,-7.354973084e-05,-0.001345386655,-0.001124100422,-0.0003211512625,-0.001445251684,-0.001676579001,-0.000435547507,-0.002112126508,-0.001710274011,-0.0002145199017,-0.001924793913,-0.002186819267,-0.0003192263143,-0.002506045582,-0.001288680753,-5.948617155e-05,-0.001348166925,-0.00212538978,0.000126375064,-0.001999014716,-0.002488802467,-0.0002225128465,-0.002711315314,-0.001771816615,-6.461233469e-05,-0.00183642895
4.9,-0.001459892197,0.0009901373733,-0.0004697548235,-0.001590448825,6.315684749e-05,-0.001527291978,-0.001304462141,0.0001340858148,-0.001170376327,-0.0007555559047,-0.0002429183716,-0.0009984742764,-0.0002729608593,-0.0001314655822,-0.0004044264415,-0.001370738402,9.17993746e-05,-0.001278939028,-0.0008981530032,3.183098868e-05,-0.0008663220145,-0.001688952479,0.0001180399241,-0.001570912555,0.0006256068251,9.293392122e-05,0.0007185407463,-0.0008620512514,3.992887311e-05,-0.0008221223782,-0.00033379694,-8.316859358e-05,-0.0004169655336,-0.00101303942,0.0001647530627,-0.000848286357,-0.001414570177,-0.000115212471,-0.001529782648,-0.0009751009133,-8.952784389e-05,-0.001064628757,-0.001085178252,-0.0002464366464,-0.001331614899,-0.001618612106,-1.185326319e-05,-0.00163046537,-0.001607742176,-5.76440258e-05,-0.001665386202,-0.002139486428,-5.903836968e-05,-0.002198524798,-0.001709080966,6.210561097e-06,-0.001702870405,-0.001660313576,1.987093664e-05,-0.001640442639,-0.0005898830987,-0.0002186957558,-0.0008085788545,0.001099488451,-4.736601998e-05,0.001052122431,5.307808467e-05,-7.908941312e-05,-2.601132845e-05,-0.0009212317182,8.948732072e-05,-0.0008317443975,-0.001263491596,0.0003717650758,-0.0008917265202,-0.001677812226,0.0003543453002,-0.001323466926,-0.001027266741,-0.0001500593838,-0.001177326124,-0.001287845941,-8.302213154e-05,-0.001370868073,-0.001158224558,-0.0003178067475,-0.001476031305,-0.001723381481,-0.0004282915852,-0.002151673066,-0.001758056624,-0.0002069943396,-0.001965050964,-0.002226867902,-0.0003246127794,-0.002551480681,-0.001311528884,-6.000841227e-05,-0.001371537297,-0.002159020258,0.0001055239194,-0.002053496338,-0.00254973288,-0.0002101776603,-0.00275991054,-0.001806436097,-6.286710891e-05,-0.001869303206
5.0,-0.001392482243,0.001011862756,-0.0003806194867,-0.001552462864,7.139093724e-05,-0.001481071927,-0.001299494565,0.0001409109877,-0.001158583578,-0.0007277159193,-0.0002404322933,-0.0009681482126,-0.0002823027931,-0.0001287826357,-0.0004110854288,-0.001356327212,0.0001010064238,-0.001255320788,-0.000920078999,3.81948786e-05,-0.0008818841204,-0.001688800338,0.0001263214008,-0.001562478937,0.0005933150671,0.000102432424,0.0006957474911,-0.0008731239055,4.818753416e-05,-0.0008249363713,-0.0003044144027,-7.566119971e-05,-0.0003800756024,-0.00101340325,0.0001629524956,-0.0008504507547,-0.001448704571,-0.0001256253401,-0.001574329911,-0.001002386917,-8.716710762e-05,-0.001089554025,-0.001113488405,-0.0002442873089,-0.001357775714,-0.001661825452,-4.960302162e-06,-0.001666785754,-0.001667796753,-4.921410177e-05,-0.001717010854,-0.002186783248,-4.350931089e-05,-0.002230292559,-0.001749455095,6.541005082e-06,-0.00174291409,-0.001659941238,2.780929855e-05,-0.001632131939,-0.0005686888166,-0.0002187957552,-0.0007874845718,0.001109116584,-3.661723237e-05,0.001072499352,8.204525925e-05,-7.742530997e-05,4.619949285e-06,-0.0008981013723,9.994788606e-05,-0.0007981534863,-0.001269414398,0.0003779308041,-0.0008914835934,-0.001687529953,0.0003535593032,-0.00133397065,-0.00105288548,-0.0001375726641,-0.001190458144,-0.001300471685,-9.14994232e-05,-0.001391971108,-0.001189414788,-0.0003142920434,-0.001503706832,-0.001767264439,-0.0004208037267,-0.002188068165,-0.001801215147,-0.0001998394588,-0.002001054606,-0.002262933352,-0.0003301073249,-0.002593040677,-0.001332564918,-6.011405796e-05,-0.001392678976,-0.002193599703,8.677006201e-05,-0.002106829641,-0.002606370644,-0.0001972497637,-0.002803620408,-0.001838287006,-6.131704775e-05,-0.001899604054
5.1,-0.001325164585,0.001033247956,-0.0002919166281,-0.001511241231,8.027090295e-05,-0.001430970328,-0.001294706354,0.0001478127765,-0.001146893577,-0.0006985561159,-0.0002376794449,-0.0009362355608,-0.0002907943874,-0.0001261368966,-0.000416931284,-0.001339383864,0.0001102170931,-0.00122916677,-0.0009397730452,4.462695532e-05,-0.0008951460899,-0.001684723878,0.0001347409283,-0.00154998295,0.0005642313566,0.0001119614871,0.0006761928437,-0.0008817433138,5.635180705e-05,-0.0008253915067,-0.0002758269069,-6.836615402e-05,-0.000344193061,-0.001010317427,0.0001614193548,-0.0008488980719,-0.0014793387,-0.000136192264,-0.001615530964,-0.001024747404,-8.443168696e-05,-0.001109179091,-0.001137530687,-0.0002420877306,-0.001379618418,-0.001698748559,2.122076405e-06,-0.001696626482,-0.001722414456,-4.050865501e-05,-0.001762923111,-0.002228749574,-2.876558784e-05,-0.002257515161,-0.001785450356,6.974033664e-06,-0.001778476323,-0.001657128543,3.577148906e-05,-0.001621357054,-0.0005496796669,-0.0002188582325,-0.0007685378993,0.001117725414,-2.557515856e-05,0.001092150256,0.0001080138503,-7.588453142e-05,3.212931883e-05,-0.0008754708757,0.0001108924067,-0.000764578469,-0.001272359268,0.0003837696545,-0.0008885896138,-0.001692579305,0.0003531911271,-0.001339388178,-0.00107584322,-0.0001254042157,-0.001201247436,-0.001309820844,-9.887995054e-05,-0.001408700794,-0.00121763107,-0.0003106324452,-0.001528263515,-0.001808215449,-0.0004130770846,-0.002221292534,-0.001839633341,-0.0001931212582,-0.002032754599,-0.002294975193,-0.0003356249851,-0.002630600178,-0.001351732976,-5.983530041e-05,-0.001411568277,-0.002229075575,7.024923419e-05,-0.002158826341,-0.002658606233,-0.0001837778564,-0.002842384089,-0.001867399379,-5.991217388e-05,-0.001927311553
5.2,-0.001258272685,0.001054231788,-0.0002040408972,-0.001467084381,8.977244075e-05,-0.00137731194,-0.001290097198,0.0001547657262,-0.001135331472,-0.0006683427806,-0.0002346821251,-0.0009030249057,-0.0002985217346,-0.0001235441242,-0.0004220658588,-0.001320125356,0.0001193877032,-0.001200737653,-0.0009573159514,5.10968066e-05,-0.0009062191448,-0.00167692143,0.0001432620949,-0.001533659335,0.000538209511,0.0001214979674,0.0006597074784,-0.0008880848723,6.439745493e-05,-0.0008236874173,-0.0002483871724,-6.130226339e-05,-0.0003096894357,-0.001003857519,0.0001601746724,-0.0008436828463,-0.001506211669,-0.0001469758369,-0.001653187505,-0.001042170697,-8.135326005e-05,-0.001123523957,-0.001157221467,-0.0002398842053,-0.001397105672,-0.001729298637,9.387951872e-06,-0.001719910685,-0.001771404451,-3.157784433e-05,-0.001802982295,-0.002265213731,-1.489718017e-05,-0.002280110911,-0.001816997621,7.527845975e-06,-0.001809469775,-0.00165200448,4.371011526e-05,-0.001608294365,-0.0005330583739,-0.0002188865141,-0.000751944888,0.001125215762,-1.430531567e-05,0.001110910446,0.0001307376989,-7.44759332e-05,5.626176575e-05,-0.0008533478831,0.0001222838826,-0.0007310640005,-0.001272268789,0.000389223248,-0.0008830455407,-0.001693005315,0.0003532968115,-0.001339708503,-0.001096035944,-0.0001137020279,-0.001209737972,-0.00131599117,-0.0001050732859,-0.001421064456,-0.001242836965,-0.0003068531282,-0.001549690093,-0.001846227074,-0.0004051042067,-0.002251331281,-0.001873222047,-0.0001868928247,-0.002060114872,-0.002322974871,-0.0003410770665,-0.002664051938,-0.001368974466,-5.920706943e-05,-0.001428181535,-0.002265335505,5.605743216e-05,-0.002209278073,-0.0027063449,-0.0001698126008,-0.002876157501,-0.001893797494,-5.860380174e-05,-0.001952401296
5.3,-0.001192122919,0.001074759184,-0.0001173637343,-0.001420290999,9.987022726e-05,-0.001320420772,-0.001285640276,0.0001617466305,-0.001123893646,-0.0006373242986,-0.0002314617497,-0.0008687860483,-0.0003055575293,-0.0001210187969,-0.0004265763262,-0.001298765017,0.0001284789171,-0.0011702861,-0.0009727742156,5.757498314e-05,-0.0009151992325,-0.001665592896,0.0001518465564,-0.00151374634,0.0005151020475,0.00013101942,0.0006461214675,-0.0008923135046,7.230077743e-05,-0.0008200127271,-0.0002224160688,-5.448534758e-05,-0.0002769014164,-0.0009940945109,0.0001592355514,-0.0008348589595,-0.001529061365,-0.0001580183207,-0.001687079686,-0.001054655579,-7.79600394e-05,-0.001132615618,-0.001172487017,-0.0002377212994,-0.001410208316,-0.00175340837,1.682537969e-05,-0.00173658299,-0.001814594424,-2.247530816e-05,-0.001837069732,-0.002296038881,-1.980730533e-06,-0.002298019611,-0.00184404236,8.219253163e-06,-0.001835823106,-0.001644694425,5.157796913e-05,-0.001593116455,-0.0005189844416,-0.0002188838371,-0.0007378682787,0.001131513152,-2.869781614e-06,0.00112864337,0.0001500110526,-7.320694662e-05,7.680410599e-05,-0.0008317242574,0.0001340843483,-0.0006976399091,-0.001269080106,0.0003942416493,-0.0008748384569,-0.001688842071,0.0003539293073,-0.001334912763,-0.001113388463,-0.0001025820941,-0.001215970557,-0.00131906116,-0.00011000314,-0.0014290643,-0.001264996311,-0.0003029792467,-0.001567975558,-0.001881292573,-0.0003968779848,-0.002278170558,-0.001901915463,-0.000181193886,-0.002083109349,-0.002346931925,-0.0003463730883,-0.002693305013,-0.001384223947,-5.826550385e-05,-0.001442489451,-0.002302200728,4.425320379e-05,-0.002257947524,-0.002749499774,-0.0001554061382,-0.002904905913,-0.001917495489,-5.73445999e-05,-0.001974840089
5.4,-0.001127010208,0.001094781792,-3.222841559e-05,-0.001371154948,0.0001105382482,-0.0012606167,-0.001281281366,0.0001687350823,-0.001112546284,-0.0006057279987,-0.0002280385718,-0.0008337665705,-0.0003119587314,-0.0001185740515,-0.0004305327829,-0.00127550926,0.0001374559447,-0.001138053315,-0.0009861971996,6.40331769e-05,-0.0009221640227,-0.001650935798,0.0001604541466,-0.001490481652,0.0004947636488,0.0001405040642,0.000635267713,-0.0008945799143,8.003860201e-05,-0.0008145413123,-0.000198198406,-4.79282269e-05,-0.0002461266329,-0.0009810938956,0.0001586157817,-0.0008224781138,-0.001547624453,-0.0001693430448,-0.001716967498,-0.001062211999,-7.427593028e-05,-0.001136487929,-0.001183264447,-0.0002356407574,-0.001418905204,-0.001771024996,2.441596419e-05,-0.001746609032,-0.001851829266,-1.325754486e-05,-0.001865086811,-0.002321125128,9.921939359e-06,-0.002311203188,-0.001866543603,9.064068875e-06,-0.001857479534,-0.001635318087,5.932868092e-05,-0.001575989406,-0.0005075725201,-0.0002188534852,-0.0007264260053,0.00113656823,8.673455432e-06,0.001145241686,0.0001656700267,-7.208343645e-05,9.358659022e-05,-0.0008105771858,0.0001462557756,-0.0006643214102,-0.001262724846,0.0003987843704,-0.0008639404757,-0.001680110819,0.0003551376317,-0.001324973187,-0.001127853771,-9.212706683e-05,-0.001219980838,-0.001319086719,-0.0001136108816,-0.001432697601,-0.001284074033,-0.0002990362673,-0.0015831103,-0.001913406066,-0.0003883932559,-0.002301799321,-0.001925670536,-0.0001760513626,-0.002101721898,-0.002366862825,-0.000351423215,-0.00271828604,-0.001397409058,-5.704691255e-05,-0.00145445597,-0.00233942688,3.485993749e-05,-0.002304566942,-0.002787987886,-0.0001406119332,-0.002928599819,-0.001938497706,-5.608852203e-05,-0.001994586228
5.5,-0.001063205218,0.001114258407,5.105318866e-05,-0.001319964416,0.0001217502458,-0.00119821417,-0.001276941404,0.0001757138297,-0.001101227574,-0.000573760652,-0.0002244315885,-0.0007981922405,-0.0003177684802,-0.0001162217598,-0.00043399024,-0.00125055749,0.00014628831,-0.00110426918,-0.000997620048,7.044418308e-05,-0.0009271758649,-0.001633145111,0.0001690432299,-0.001464101881,0.0004770505114,0.000149930766,0.0006269812774,-0.0008950207485,8.758844241e-05,-0.0008074323061,-0.0001759821511,-4.164071672e-05,-0.0002176228678,-0.0009649208333,0.0001583263572,-0.0008065944761,-0.001561646387,-0.0001809534169,-0.001742599804,-0.001064867795,-7.032044157e-05,-0.001135188236,-0.001189507104,-0.0002336807418,-0.001423187846,-0.001782114279,3.213433492e-05,-0.001749979944,-0.001882974043,-3.983284676e-06,-0.001886957327,-0.002340413982,2.076498491e-05,-0.002319648997,-0.001884475864,1.007724184e-05,-0.001874398622,-0.001623990744,6.691749234e-05,-0.001557073252,-0.0004988949385,-0.0002187989431,-0.0007176938816,0.001140353861,2.027090001e-05,0.001160624761,0.0001775911205,-7.110967338e-05,0.0001064814471,-0.0007898727767,0.0001587606726,-0.0006311121041,-0.001253135387,0.0004028204909,-0.0008503148961,-0.001666827386,0.0003569653387,-0.001309862048,-0.001139414615,-8.238731985e-05,-0.001221801935,-0.001316105599,-0.0001158584343,-0.001431964033,-0.001300040159,-0.0002950506481,-0.001595090807,-0.001942566162,-0.0003796490212,-0.002322215183,-0.001944469197,-0.0001714805873,-0.002115949785,-0.002382802295,-0.0003561408196,-0.002738943115,-0.001408454426,-5.55870303e-05,-0.001464041456,-0.002376711804,2.786772467e-05,-0.002348844079,-0.002821730229,-0.0001254851243,-0.002947215354,-0.001956803354,-5.479107506e-05,-0.002011594429
5.6,-0.001000953236,0.001133155336,0.0001322021,-0.001267002865,0.0001334801949,-0.001133522671,-0.001272521788,0.0001826689629,-0.001089852825,-0.0005416118027,-0.0002206585448,-0.0007622703475,-0.0003230212657,-0.0001139726567,-0.0004369939224,-0.001224104621,0.0001549494698,-0.001069155151,-0.001007070716,7.678178144e-05,-0.000930288935,-0.001612416108,0.0001775713212,-0.001434844787,0.0004618167943,0.0001592790342,0.0006210958285,-0.0008937618894,9.492876475e-05,-0.0007988331247,-0.0001559806383,-3.562964544e-05,-0.0001916102838,-0.0009456487555,0.000158375634,-0.0007872731215,-0.001570899142,-0.0001928296769,-0.001763728819,-0.001062678361,-6.610915729e-05,-0.001128787518,-0.001191192358,-0.0002318752687,-0.001423067627,-0.001786667967,3.994776005e-05,-0.001746720207,-0.001907919981,5.287109314e-06,-0.001902632872,-0.002353895146,3.051973533e-05,-0.00232337541,-0.001897833336,1.127272774e-05,-0.001886560608,-0.001610826772,7.430201334e-05,-0.001536524759,-0.0004929873599,-0.0002187241015,-0.0007117114613,0.001142859882,3.187364202e-05,0.001174733524,0.0001856876418,-7.028842033e-05,0.0001153992214,-0.0007695711061,0.000171562364,-0.0005980087422,-0.00124025567,0.0004063283574,-0.0008339273125,-0.00164901609,0.0003594488353,-0.001289567254,-0.001148085475,-7.338442527e-05,-0.0012214699,-0.001310147429,-0.0001167301893,-0.001426877618,-0.001312875491,-0.0002910507881,-0.001603926279,-0.001968781436,-0.0003706508542,-0.00233943229,-0.001958322549,-0.0001674867175,-0.002125809266,-0.002394806371,-0.0003604449488,-0.00275525132,-0.001417288433,-5.392042633e-05,-0.00147120886,-0.002413707866,2.323494553e-05,-0.00239047292,-0.00285065611,-0.0001100831749,-0.002960739285,-0.001972413498,-5.341054641e-05,-0.002025824045
5.7,-0.0009404744236,0.001151446743,0.000210972319,-0.001212551033,0.0001457027135,-0.001066848319,-0.001267911217,0.0001895899712,-0.001078321245,-0.0005094585203,-0.0002167359565,-0.0007261944768,-0.0003277496568,-0.0001118364391,-0.0004395860959,-0.001196344891,0.0001634164453,-0.001032928445,-0.001014578602,8.302064656e-05,-0.0009315579554,-0.001588948645,0.000185995835,-0.00140295281,0.0004489100154,0.0001685290038,0.0006174390192,-0.0008909233622,0.0001020392746,-0.0007888840875,-0.0001383766605,-2.989893367e-05,-0.0001682755941,-0.000923368118,0.0001587689679,-0.0007645991501,-0.001575200105,-0.0002049263023,-0.001780126408,-0.001055735582,-6.165457768e-05,-0.00111739016,-0.001188329224,-0.0002302537254,-0.00141858295,-0.00178471289,4.781630207e-05,-0.001736896588,-0.001926591582,1.449227661e-05,-0.001912099305,-0.002361614418,3.917587242e-05,-0.002322438546,-0.001906635111,1.266319202e-05,-0.001893971919,-0.001595944031,8.144294082e-05,-0.00151450109,-0.0004898558626,-0.0002186334477,-0.0007084893103,0.001144086994,4.343726012e-05,0.001187524255,0.000189905337,-6.962107356e-05,0.0001202842635,-0.0007496312566,0.0001846250282,-0.0005650062285,-0.001224053803,0.0004092955425,-0.0008147582605,-0.001626725912,0.0003626160479,-0.001264109864,-0.001153913495,-6.511637334e-05,-0.001219029868,-0.001301245082,-0.0001162345079,-0.00141747959,-0.001322577222,-0.0002870678778,-0.0016096451,-0.001992075666,-0.0003614129257,-0.002353488591,-0.001967275476,-0.0001640659485,-0.002131341424,-0.002402956032,-0.0003642624122,-0.002767218444,-0.001423850888,-5.208009189e-05,-0.00147593098,-0.002450036314,2.089050045e-05,-0.002429145813,-0.002874710386,-9.446652174e-05,-0.002969176908,-0.001985337837,-5.191020295e-05,-0.00203724804
5.8,-0.0008819647043,0.001169114909,0.0002871502048,-0.0011568891,0.0001583933283,-0.0009984957717,-0.001262992628,0.0001964697104,-0.001066522917,-0.0004774699184,-0.0002126791137,-0.0006901490322,-0.0003319905701,-0.0001098217969,-0.000441812367,-0.001167475216,0.0001716694652,-0.0009958057508,-0.001020181818,8.913634092e-05,-0.0009310454768,-0.001562950839,0.0001942747753,-0.001368676064,0.0004381675742,0.0001776614163,0.0006158289905,-0.0008866239046,0.0001089011925,-0.000777722712,-0.0001233268542,-2.444973992e-05,-0.0001477765942,-0.0008981923081,0.0001595080201,-0.0007386842879,-0.001574425906,-0.0002171722934,-0.0017915982,-0.001044172236,-5.696712149e-05,-0.001101139358,-0.001180963272,-0.0002288403101,-0.001409803582,-0.001776319367,5.569376307e-05,-0.001720625604,-0.001938952857,2.357068292e-05,-0.001915382174,-0.002363680425,4.674201822e-05,-0.002316938407,-0.001910930012,1.425970113e-05,-0.001896670311,-0.001579467336,8.830478284e-05,-0.001491162553,-0.0004894832953,-0.0002185321285,-0.0007080154238,0.001144041558,5.492181215e-05,0.00119896337,0.0001902186903,-6.910778407e-05,0.0001211109062,-0.0007300148763,0.0001979136395,-0.0005321012369,-0.001204533011,0.0004117194047,-0.0007928136063,-0.001600044012,0.0003664856812,-0.001233558331,-0.001156977718,-5.756303623e-05,-0.001214540754,-0.001289443295,-0.0001144051685,-0.001403848463,-0.001329162686,-0.000283136171,-0.001612298857,-0.002012490587,-0.0003519592065,-0.002364449794,-0.001971409658,-0.0001612063406,-0.002132615998,-0.002407359786,-0.000367529225,-0.002774889011,-0.00142809923,-5.009721849e-05,-0.001478196449,-0.002485302166,2.073771916e-05,-0.002464564447,-0.002893860723,-7.869895021e-05,-0.002972559674,-0.001995599138,-5.026097646e-05,-0.002045860114
5.9,-0.0008255963,0.001186150331,0.0003605540308,-0.00110029812,0.0001715284959,-0.0009287696244,-0.001257648678,0.0002033043108,-0.001054344367,-0.0004458097349,-0.000208502035,-0.0006543117699,-0.0003357889719,-0.0001079363694,-0.0004437253413,-0.001137696227,0.0001796915654,-0.0009580046621,-0.001023930144,9.510542154e-05,-0.0009288247222,-0.001534640021,0.0002023673332,-0.001332272688,0.0004294165538,0.0001866576456,0.0006160741994,-0.0008809831334,0.0001154975033,-0.0007654856302,-0.0001109645896,-1.928064149e-05,-0.0001302452311,-0.0008702584397,0.000160590306,-0.0007096681337,-0.001568518021,-0.000229474047,-0.001797992068,-0.001028158867,-5.205594223e-05,-0.00108021481,-0.001169176596,-0.0002276532054,-0.001396829801,-0.001761605977,6.352925421e-05,-0.001698076723,-0.001945010684,3.246171511e-05,-0.001912548969,-0.002360267435,5.324519103e-05,-0.002307022244,-0.001910799636,1.607155004e-05,-0.001894728086,-0.001561529177,9.485651436e-05,-0.001466672663,-0.0004918327612,-0.0002184258403,-0.0007102586014,0.001142733068,6.629208716e-05,0.001209025155,0.0001866292356,-6.874751297e-05,0.0001178817226,-0.0007106871175,0.0002113939489,-0.0004992931685,-0.001181737156,0.0004136079781,-0.0007681291777,-0.00156910154,0.0003710670524,-0.001198034488,-0.001157385243,-5.069095727e-05,-0.0012080762,-0.00127480204,-0.000111302173,-0.001386104213,-0.001332669485,-0.0002792924193,-0.001611961904,-0.0020300842,-0.0003423236948,-0.002372407895,-0.00197084277,-0.0001588882898,-0.00212973106,-0.002408153223,-0.0003701914663,-0.002778344689,-0.001430011027,-4.800093298e-05,-0.00147801196,-0.002519107849,2.266013515e-05,-0.002496447714,-0.002908101593,-6.284746439e-05,-0.002970949057,-0.002003233907,-4.844407938e-05,-0.002051677987
6.0,-0.0007715171147,0.001202551657,0.0004310345424,-0.001043059833,0.0001850853095,-0.0008579745231,-0.001251764383,0.0002100930688,-0.001041671315,-0.0004146355944,-0.0002042173195,-0.0006188529139,-0.0003391973371,-0.0001061866153,-0.0004453839524,-0.001107209695,0.0001874681378,-0.0009197415576,-0.001025881692,0.0001009056829,-0.0009249760095,-0.001504239453,0.0002102344639,-0.001294004989,0.0004224780751,0.0001954997798,0.0006179778549,-0.0008741198911,0.0001218131273,-0.0007523067638,-0.0001013999981,-1.438783701e-05,-0.0001157878351,-0.0008397219371,0.0001620095449,-0.0006777123921,-0.001557478455,-0.0002417199998,-0.001799198455,-0.00100789239,-4.692920378e-05,-0.001054821594,-0.001153081863,-0.0002267034394,-0.001379785302,-0.001740738011,7.126898398e-05,-0.001669469027,-0.001944813606,4.110702112e-05,-0.001903706585,-0.002351612404,5.872931113e-05,-0.002292883093,-0.001906358271,1.810627783e-05,-0.001888251994,-0.001542266564,0.0001010719787,-0.001441194586,-0.0004968470737,-0.000218320618,-0.0007151676917,0.001140175388,7.751803768e-05,0.001217693425,0.000179166516,-6.853801688e-05,0.0001106284991,-0.0006916146668,0.0002250326124,-0.0004665820544,-0.001155747949,0.000414980611,-0.0007407673377,-0.001534068094,0.0003763604256,-0.001157707668,-0.001155262272,-4.445774066e-05,-0.001199720013,-0.001257393527,-0.0001070109607,-0.001364404487,-0.001333151296,-0.0002755746609,-0.001608725957,-0.002044924337,-0.0003325497326,-0.002377474069,-0.001965722702,-0.0001570848756,-0.002122807578,-0.002405494166,-0.0003722058684,-0.002777700035,-0.001429581477,-4.581761598e-05,-0.001475399093,-0.002551062769,2.652810505e-05,-0.002524534664,-0.002917452631,-4.698190309e-05,-0.002964434534,-0.00200828893,-4.645269072e-05,-0.002054741621
6.1,-0.0007198487787,0.00121832559,0.0004984768112,-0.0009854546519,0.0001990409784,-0.0007864136735,-0.001245226578,0.0002168383644,-0.001028388214,-0.0003840948588,-0.0001998358789,-0.0005839307377,-0.0003422708024,-0.0001045776107,-0.000446848413,-0.001076212611,0.0001949864855,-0.0008812261252,-0.001026093982,0.0001065165058,-0.0009195774759,-0.001471970958,0.0002178393624,-0.001254131595,0.0004171754147,0.000204170696,0.0006213461106,-0.0008661470474,0.0001278349432,-0.0007383121042,-9.471709558e-05,-9.765406162e-06,-0.0001044825017,-0.0008067462295,0.0001637568578,-0.0006429893716,-0.001541355617,-0.0002537872687,-0.001795142886,-0.0009835793335,-4.159382175e-05,-0.001025173155,-0.001132811975,-0.0002259936865,-0.001358805662,-0.001713919515,7.885800578e-05,-0.001635061509,-0.001938446042,4.945198616e-05,-0.001888994056,-0.002338006384,6.325340224e-05,-0.002274752982,-0.0018977492,2.036983151e-05,-0.001877379368,-0.001521814731,0.0001069299513,-0.00141488478,-0.0005044450123,-0.000218222617,-0.0007226676293,0.001136391172,8.857511693e-05,0.001224966289,0.0001678909895,-6.847579312e-05,9.941519639e-05,-0.0006727618775,0.0002387975353,-0.0004339643423,-0.001126674124,0.0004158679844,-0.0007108061396,-0.00149513561,0.000382357767,-0.001112777843,-0.001150740121,-3.881637259e-05,-0.001189556494,-0.001237293608,-0.0001016397759,-0.001338933384,-0.001330670727,-0.0002720208968,-0.001602691624,-0.002057079877,-0.0003226885485,-0.002379768426,-0.001956217851,-0.0001557624195,-0.00211198027,-0.002399554039,-0.0003735404417,-0.00277309448,-0.001426816499,-4.356976716e-05,-0.001470386266,-0.002580787217,3.220455029e-05,-0.002548582667,-0.002921951319,-3.117501893e-05,-0.002953126338,-0.002010815308,-4.429162467e-05,-0.002055106933
6.2,-0.0006706840402,0.001233486806,0.0005628027661,-0.0009277586059,0.000213372284,-0.0007143863219,-0.001237921564,0.0002235455876,-0.001014375977,-0.0003543188653,-0.000195366629,-0.0005496854943,-0.0003450602254,-0.0001031128553,-0.0004481730806,-0.001044890061,0.000202235472,-0.0008426545888,-0.00102461317,0.0001119192019,-0.0009126939678,-0.001438045749,0.0002251476081,-0.001212898141,0.0004133430218,0.00021265406,0.0006259970818,-0.0008571648798,0.0001335516515,-0.0007236132283,-9.096951559e-05,-5.405657155e-06,-9.637517274e-05,-0.0007714915345,0.0001658222706,-0.0006056692639,-0.001520225127,-0.0002655500396,-0.001785775167,-0.0009554194143,-3.605508283e-05,-0.0009914744971,-0.001108509187,-0.0002255174688,-0.001334026655,-0.001681382186,8.624177373e-05,-0.001595140412,-0.001926020204,5.744712029e-05,-0.001868573083,-0.002319782367,6.688974932e-05,-0.002252892617,-0.001885138429,2.286679062e-05,-0.001862271638,-0.0015003001,0.000112413988,-0.001387886112,-0.0005145168968,-0.0002181379097,-0.0007326548065,0.001131417457,9.94442391e-05,0.001230861696,0.0001528971061,-6.855602692e-05,8.434107922e-05,-0.0006540868877,0.0002526583859,-0.0004014285018,-0.001094636966,0.0004163115105,-0.000678325456,-0.001452498158,0.0003890436834,-0.001063454475,-0.001143940079,-3.371911958e-05,-0.001177659199,-0.001214571178,-9.531596071e-05,-0.001309887139,-0.001325292161,-0.0002686680795,-0.00159396024,-0.002066613204,-0.0003127972836,-0.002379410488,-0.001942506469,-0.0001548814551,-0.002097387924,-0.002390507798,-0.0003741753968,-0.002764683195,-0.001421723779,-4.127503329e-05,-0.001462998812,-0.002607912691,3.95486586e-05,-0.002568364033,-0.002921642949,-1.550323499e-05,-0.002937146184,-0.002010862913,-4.197476983e-05,-0.002052837683
6.3,-0.0006240846285,0.001248057793,0.0006239731647,-0.0008702404889,0.000228055142,-0.0006421853469,-0.001229733248,0.0002302229864,-0.0009995102614,-0.0003254182005,-0.0001908163048,-0.0005162345052,-0.0003476063406,-0.0001017942084,-0.000449400549,-0.001013409578,0.0002092052981,-0.0008042042797,-0.001021465991,0.0001170972344,-0.0009043687563,-0.001402656651,0.0002321269232,-0.001170529728,0.0004108332464,0.0002209342659,0.0006317675123,-0.0008472557258,0.0001389535712,-0.0007083021547,-9.017700766e-05,-1.299518433e-06,-9.147652609e-05,-0.0007341069333,0.0001681958216,-0.0005659111117,-0.001494173378,-0.000276887769,-0.001771061147,-0.000923594588,-3.031658634e-05,-0.0009539111743,-0.001080317487,-0.0002252590947,-0.001305576581,-0.001643375507,9.336722512e-05,-0.001550008282,-0.001907669029,6.50490486e-05,-0.001842619981,-0.002297302408,6.972173782e-05,-0.00222758067,-0.001868708007,2.560051081e-05,-0.001843107496,-0.001477835043,0.0001175122624,-0.001360322781,-0.0005269220931,-0.0002180722692,-0.0007449943624,0.001125310117,0.0001101112662,0.001235421384,0.0001343147746,-6.877258139e-05,6.554219317e-05,-0.0006355393784,0.0002665870851,-0.0003689522933,-0.00105975799,0.0004163621823,-0.0006433958081,-0.001406335918,0.0003963961313,-0.001009939787,-0.001134962068,-2.912057601e-05,-0.001164082644,-0.001189280376,-8.818232233e-05,-0.001277462699,-0.001317077235,-0.0002655514461,-0.001582628681,-0.00207357622,-0.0003029369188,-0.002376513139,-0.001924768217,-0.0001543980703,-0.002079166287,-0.00237852499,-0.0003741044789,-0.002752629469,-0.001414304714,-3.89462089e-05,-0.001453250923,-0.002632083246,4.841768401e-05,-0.002583665562,-0.002916572022,-4.745279068e-08,-0.002916619474,-0.002008477204,-3.952151277e-05,-0.002047998717
6.4,-0.0005800804237,0.001262068382,0.0006819879582,-0.0008131601129,0.0002430642465,-0.0005700958664,-0.001220543387,0.0002368813582,-0.0009836620289,-0.000297480771,-0.0001861895152,-0.0004836702862,-0.0003499371655,-0.0001006220173,-0.0004505591828,-0.000981918534,0.0002158873876,-0.0007660311463,-0.001016656994,0.000122036271,-0.0008946207226,-0.001365974018,0.0002387468422,-0.001127227176,0.0004095190305,0.0002289963853,0.0006385154159,-0.0008364817096,0.0001440325061,-0.0006924492036,-9.232428033e-05,2.563116741e-06,-8.976116359e-05,-0.000694727634,0.0001708678628,-0.0005238597711,-0.001463288932,-0.0002876912554,-0.001750980187,-0.0008882655826,-2.438067921e-05,-0.0009126462618,-0.001048379957,-0.0002251942947,-0.001273574252,-0.001600160827,0.0001001832085,-0.001499977618,-0.001883542354,7.222092052e-05,-0.001811321433,-0.00227094629,7.184104783e-05,-0.002199105242,-0.001848650808,2.857303252e-05,-0.001820077775,-0.001454515757,0.0001222174572,-0.0013322983,-0.0005414898408,-0.0002180309711,-0.0007595208119,0.001118145679,0.0001205661203,0.0012387118,0.0001123082657,-6.911806843e-05,4.319019729e-05,-0.0006170606798,0.0002805580451,-0.0003365026347,-0.001022152282,0.0004160787623,-0.0006060735194,-0.001356808124,0.0004043865551,-0.0009524215689,-0.001123879653,-2.497987618e-05,-0.001148859529,-0.001161457974,-8.039440156e-05,-0.001241852376,-0.001306084043,-0.0002627039947,-0.001568788037,-0.002078010297,-0.0002931704943,-0.002371180791,-0.001903179641,-0.000154265498,-0.002057445139,-0.002363763516,-0.0003733364321,-0.002737099948,-0.001404549357,-3.65923543e-05,-0.001441141711,-0.002652960949,5.866767529e-05,-0.002594293273,-0.002906777936,1.510669815e-05,-0.002891671238,-0.002003698467,-3.695377675e-05,-0.002040652244
6.5,-0.0005386702943,0.001275554899,0.0007368846044,-0.000756767889,0.0002583727499,-0.0004983951391,-0.001210234264,0.000243533586,-0.0009667006775,-0.0002705729892,-0.000181489027,-0.0004520620163,-0.0003520690902,-9.959539081e-05,-0.000451664481,-0.000950544757,0.0002222743691,-0.0007282703879,-0.001010171149,0.00012672409,-0.0008834470592,-0.001328145926,0.000244978624,-0.001083167302,0.0004092925758,0.0002368261663,0.0006461187421,-0.0008248859364,0.0001487817465,-0.0006761041899,-9.736268349e-05,6.193133326e-06,-9.116955017e-05,-0.0006534769036,0.0001738285081,-0.0004796483955,-0.001427661467,-0.0002978662547,-0.001725527722,-0.0008495749748,-1.824924874e-05,-0.0008678242235,-0.001012840495,-0.0002252912611,-0.001238131756,-0.001552009985,0.0001066404914,-0.001445369493,-0.001853806831,7.893231245e-05,-0.001774874519,-0.002241102862,7.334413055e-05,-0.002167758732,-0.001825167762,3.178475681e-05,-0.001793383005,-0.001430423136,0.0001265265428,-0.001303896593,-0.0005580234025,-0.0002180187134,-0.0007760421159,0.001110020056,0.0001308016939,0.00124082175,8.707259747e-05,-6.958402275e-05,1.748857472e-05,-0.0005985859824,0.0002945480535,-0.000304037929,-0.0009819279143,0.0004155252302,-0.0005664026841,-0.001304055264,0.0004129794655,-0.0008910757986,-0.001110741285,-2.126216816e-05,-0.001132003454,-0.001131124942,-7.211882631e-05,-0.001203243768,-0.001292369657,-0.0002601559361,-0.001552525593,-0.00207994944,-0.0002835617675,-0.002363511207,-0.001877913557,-0.0001544358735,-0.002032349431,-0.002346366774,-0.0003718960336,-0.002718262807,-0.001392435212,-3.422045011e-05,-0.001426655663,-0.002670235233,7.01539282e-05,-0.002600081305,-0.002892295707,2.986920704e-05,-0.0028624265,-0.001996562958,-3.42943989e-05,-0.002030857357
6.6,-0.000499824617,0.001288559024,0.0007887344068,-0.0007013055799,0.0002739520209,-0.000427353559,-0.00119869315,0.0002501940734,-0.0009484990767,-0.0002447433636,-0.0001767161848,-0.0004214595484,-0.0003540108125,-9.87125138e-05,-0.0004527233263,-0.0009193996154,0.0002283601431,-0.0006910394723,-0.001001980192,0.0001311503664,-0.0008708298258,-0.001289301675,0.0002507954742,-0.0010385062,0.0004100612199,0.0002444100599,0.0006544712798,-0.000812496362,0.00015319614,-0.000659300222,-0.0001052142474,9.601976728e-06,-9.561227067e-05,-0.0006104709559,0.0001770665345,-0.0004334044214,-0.001387385142,-0.0003073355945,-0.001694720736,-0.0008076541861,-1.192452994e-05,-0.0008195787161,-0.0009738479673,-0.0002255118381,-0.001199359805,-0.001499207654,0.0001126917651,-0.001386515888,-0.001818648892,8.515884165e-05,-0.00173349005,-0.002208164018,7.432817752e-05,-0.002133835841,-0.001798467565,3.523407645e-05,-0.001763233489,-0.001405625557,0.0001304402412,-0.001275185316,-0.0005763065134,-0.0002180396819,-0.0007943461952,0.001101044745,0.0001408127872,0.001241857532,5.882826378e-05,-7.016115778e-05,-1.1332894e-05,-0.000580047716,0.0003085358915,-0.0002715118245,-0.0009391898961,0.0004147677351,-0.000524422161,-0.001248208052,0.0004221318136,-0.0008260762389,-0.00109557617,-1.793925353e-05,-0.001113515424,-0.001098290291,-6.353199758e-05,-0.001161822288,-0.001275994514,-0.0002579340504,-0.001533928565,-0.002079425365,-0.0002741741487,-0.002353599514,-0.001849141078,-0.0001548620214,-0.002004003099,-0.002326464004,-0.00036982428,-0.002696288284,-0.001377929415,-3.183700156e-05,-0.001409766417,-0.002683634054,8.273176247e-05,-0.002600902292,-0.002873160775,4.414648556e-05,-0.002829014289,-0.001987105785,-3.156651526e-05,-0.002018672301
