Time,S1D1HbO,S1D1HbR,S1D1HbT,S2D2HbO,S2D2HbR,S2D2HbT,S3D3HbO,S3D3HbR,S3D3HbT,S4D4HbO,S4D4HbR,S4D4HbT,S5D5HbO,S5D5HbR,S5D5HbT,S6D6HbO,S6D6HbR,S6D6HbT,S7D7HbO,S7D7HbR,S7D7HbT,S8D8HbO,S8D8HbR,S8D8HbT,S9D9HbO,S9D9HbR,S9D9HbT,S10D10HbO,S10D10HbR,S10D10HbT,S11D11HbO,S11D11HbR,S11D11HbT,S12D12HbO,S12D12HbR,S12D12HbT,S13D13HbO,S13D13HbR,S13D13HbT,S14D14HbO,S14D14HbR,S14D14HbT,S15D15HbO,S15D15HbR,S15D15HbT,S16D16HbO,S16D16HbR,S16D16HbT,S17D17HbO,S17D17HbR,S17D17HbT,S18D18HbO,S18D18HbR,S18D18HbT,S19D19HbO,S19D19HbR,S19D19HbT,S20D20HbO,S20D20HbR,S20D20HbT,S21D21HbO,S21D21HbR,S21D21HbT,S22D22HbO,S22D22HbR,S22D22HbT,S23D23HbO,S23D23HbR,S23D23HbT,S24D24HbO,S24D24HbR,S24D24HbT,S25D25HbO,S25D25HbR,S25D25HbT,S26D26HbO,S26D26HbR,S26D26HbT,S27D27HbO,S27D27HbR,S27D27HbT,S28D28HbO,S28D28HbR,S28D28HbT,S29D29HbO,S29D29HbR,S29D29HbT,S30D30HbO,S30D30HbR,S30D30HbT,S31D31HbO,S31D31HbR,S31D31HbT,S32D32HbO,S32D32HbR,S32D32HbT,S33D33HbO,S33D33HbR,S33D33HbT,S34D34HbO,S34D34HbR,S34D34HbT,S35D35HbO,S35D35HbR,S35D35HbT,S36D36HbO,S36D36HbR,S36D36HbT,
-10,1.101086782e-04,1.857993622e-04,2.959080404e-04,-1.120444808e-03,2.270559070e-04,-8.933889014e-04,-3.948924652e-04,1.007261453e-04,-2.941663199e-04,-9.331496814e-04,8.656888154e-05,-8.465807998e-04,-1.066193807e-03,3.405140264e-04,-7.256797807e-04,-1.402066948e-03,6.037622109e-05,-1.341690727e-03,-1.296471701e-03,3.316098913e-04,-9.648618094e-04,-3.145659802e-03,2.197084477e-04,-2.925951354e-03,-2.297863836e-04,2.346095788e-04,4.823195222e-06,-2.655248393e-03,5.566578668e-04,-2.098590526e-03,-2.179134185e-03,4.927853156e-04,-1.686348870e-03,-2.436087151e-03,2.658807769e-04,-2.170206375e-03,-2.706026718e-03,7.518265178e-04,-1.954200200e-03,-3.110299765e-03,2.651867217e-04,-2.845113044e-03,-2.965460396e-03,2.273027558e-04,-2.738157641e-03,-1.705951822e-03,1.837760044e-04,-1.522175817e-03,-1.328320380e-03,1.204409081e-04,-1.207879472e-03,-1.898424028e-03,2.040210951e-04,-1.694402933e-03,-1.352718509e-03,1.065631610e-04,-1.246155348e-03,-3.250774919e-03,2.306161377e-04,-3.020158781e-03,-2.541924649e-03,1.238778435e-04,-2.418046805e-03,-1.952042992e-03,2.589123284e-04,-1.693130664e-03,-1.222427841e-03,1.487893444e-04,-1.073638496e-03,-6.878646362e-04,-5.370490402e-05,-7.415695402e-04,-2.884504441e-03,1.997485552e-04,-2.684755886e-03,-2.102061913e-03,9.577370855e-06,-2.092484543e-03,-4.604745771e-03,5.826841602e-04,-4.022061610e-03,-3.297773940e-03,8.844353099e-05,-3.209330409e-03,-4.390419674e-03,1.656117299e-05,-4.373858501e-03,-4.108758337e-03,-1.469768608e-04,-4.255735198e-03,-5.133278534e-03,-9.605261363e-06,-5.142883796e-03,-4.504116661e-03,-1.701497875e-04,-4.674266449e-03,-2.026414612e-03,4.534377321e-05,-1.981070839e-03,-1.914240676e-03,3.674079156e-04,-1.546832761e-03,-3.018349693e-03,1.100073274e-04,-2.908342366e-03,-2.254268512e-03,3.401924372e-04,-1.914076075e-03
-9.9,1.462285551e-04,1.876943957e-04,3.339229508e-04,-1.076358427e-03,2.172022827e-04,-8.591561445e-04,-3.810621205e-04,9.975362631e-05,-2.813084942e-04,-9.101775758e-04,8.857123774e-05,-8.216063380e-04,-1.051003341e-03,3.382308612e-04,-7.127724795e-04,-1.345372888e-03,6.185794613e-05,-1.283514942e-03,-1.258636735e-03,3.287525591e-04,-9.298841761e-04,-3.105040532e-03,2.304843473e-04,-2.874556185e-03,-2.223082964e-04,2.361987941e-04,1.389049774e-05,-2.616764600e-03,5.594447802e-04,-2.057319820e-03,-2.178529560e-03,4.989897054e-04,-1.679539854e-03,-2.387917749e-03,2.661936280e-04,-2.121724121e-03,-2.663946476e-03,7.447429813e-04,-1.919203495e-03,-3.036277481e-03,2.703652786e-04,-2.765912203e-03,-2.933652805e-03,2.305810388e-04,-2.703071766e-03,-1.678631993e-03,1.849241953e-04,-1.493707798e-03,-1.298230005e-03,1.191915754e-04,-1.179038429e-03,-1.851957943e-03,2.004521979e-04,-1.651505745e-03,-1.310986617e-03,1.039315907e-04,-1.207055027e-03,-3.202155974e-03,2.331715399e-04,-2.968984434e-03,-2.523281448e-03,1.240289482e-04,-2.399252500e-03,-1.915233269e-03,2.548167219e-04,-1.660416547e-03,-1.220688889e-03,1.454630615e-04,-1.075225827e-03,-6.716175002e-04,-4.676940702e-05,-7.183869072e-04,-2.850615702e-03,2.019079167e-04,-2.648707785e-03,-2.078204419e-03,1.946328463e-05,-2.058741135e-03,-4.569252102e-03,5.939403036e-04,-3.975311799e-03,-3.266358457e-03,9.145498646e-05,-3.174903471e-03,-4.341597887e-03,1.628616292e-05,-4.325311724e-03,-4.065559131e-03,-1.351076735e-04,-4.200666805e-03,-5.062984333e-03,-8.122347561e-06,-5.071106681e-03,-4.460029606e-03,-1.624582771e-04,-4.622487884e-03,-1.982466782e-03,5.131102304e-05,-1.931155759e-03,-1.891173021e-03,3.776545803e-04,-1.513518440e-03,-2.981294267e-03,9.587580983e-05,-2.885418458e-03,-2.220369739e-03,3.440147962e-04,-1.876354943e-03
-9.8,1.809513342e-04,1.891216916e-04,3.700730257e-04,-1.031470299e-03,2.071748539e-04,-8.242954447e-04,-3.686781553e-04,9.874663982e-05,-2.699315154e-04,-8.876621598e-04,9.041657547e-05,-7.972455843e-04,-1.036078529e-03,3.356023916e-04,-7.004761377e-04,-1.289395711e-03,6.472056251e-05,-1.224675149e-03,-1.220193671e-03,3.253215871e-04,-8.948720835e-04,-3.063423157e-03,2.418697196e-04,-2.821553438e-03,-2.156077182e-04,2.375690245e-04,2.196130625e-05,-2.575809696e-03,5.611739946e-04,-2.014635701e-03,-2.176797771e-03,5.045322961e-04,-1.672265475e-03,-2.336298145e-03,2.654779028e-04,-2.070820242e-03,-2.618927063e-03,7.372521994e-04,-1.881674864e-03,-2.959649060e-03,2.753877029e-04,-2.684261357e-03,-2.896385703e-03,2.318239533e-04,-2.664561750e-03,-1.648792938e-03,1.858686542e-04,-1.462924283e-03,-1.265677140e-03,1.179694746e-04,-1.147707665e-03,-1.803132562e-03,1.965860922e-04,-1.606546469e-03,-1.268032227e-03,1.017474917e-04,-1.166284735e-03,-3.150372758e-03,2.348610166e-04,-2.915511741e-03,-2.503830057e-03,1.240652384e-04,-2.379764819e-03,-1.875121450e-03,2.490385979e-04,-1.626082852e-03,-1.219921272e-03,1.421459178e-04,-1.077775354e-03,-6.561967090e-04,-3.990693219e-05,-6.961036412e-04,-2.814391804e-03,2.032276291e-04,-2.611164175e-03,-2.052942557e-03,2.928110241e-05,-2.023661455e-03,-4.528111345e-03,6.031248860e-04,-3.924986459e-03,-3.232657107e-03,9.486565081e-05,-3.137791456e-03,-4.290904304e-03,1.651480150e-05,-4.274389502e-03,-4.020059411e-03,-1.237103137e-04,-4.143769724e-03,-4.988639140e-03,-7.340212515e-06,-4.995979353e-03,-4.414378795e-03,-1.548753611e-04,-4.569254156e-03,-1.937134964e-03,5.763440961e-05,-1.879500555e-03,-1.862872926e-03,3.858100119e-04,-1.477062914e-03,-2.940586621e-03,8.186072637e-05,-2.858725894e-03,-2.181570824e-03,3.462161674e-04,-1.835354657e-03
-9.7,2.142090741e-04,1.900727819e-04,4.042818560e-04,-9.858632004e-04,1.970638100e-04,-7.887993904e-04,-3.578517494e-04,9.770512510e-05,-2.601466243e-04,-8.657183167e-04,9.210394584e-05,-7.736143709e-04,-1.021583000e-03,3.326361598e-04,-6.889468397e-04,-1.234032320e-03,6.876164288e-05,-1.165270677e-03,-1.181298692e-03,3.213463636e-04,-8.599523287e-04,-3.020585414e-03,2.536932616e-04,-2.766892153e-03,-2.098193505e-04,2.387083691e-04,2.888901860e-05,-2.532440232e-03,5.618536439e-04,-1.970586588e-03,-2.174078586e-03,5.093883532e-04,-1.664690233e-03,-2.281230446e-03,2.637030955e-04,-2.017527350e-03,-2.571072362e-03,7.294707987e-04,-1.841601564e-03,-2.880455333e-03,2.802237637e-04,-2.600231570e-03,-2.853604737e-03,2.310198931e-04,-2.622584844e-03,-1.616348741e-03,1.866111017e-04,-1.429737639e-03,-1.230605962e-03,1.168422292e-04,-1.113763733e-03,-1.751938556e-03,1.924844397e-04,-1.559454116e-03,-1.223818356e-03,1.000386730e-04,-1.123779683e-03,-3.095340449e-03,2.357074496e-04,-2.859633000e-03,-2.483674140e-03,1.239890328e-04,-2.359685107e-03,-1.831871667e-03,2.416398545e-04,-1.590231813e-03,-1.220253206e-03,1.388187951e-04,-1.081434410e-03,-6.417248875e-04,-3.315166325e-05,-6.748765507e-04,-2.775764491e-03,2.036917625e-04,-2.572072728e-03,-2.026198622e-03,3.891291114e-05,-1.987285711e-03,-4.481136678e-03,6.100121006e-04,-3.871124577e-03,-3.196730724e-03,9.864014678e-05,-3.098090577e-03,-4.238417179e-03,1.724719642e-05,-4.221169983e-03,-3.972299124e-03,-1.128014024e-04,-4.085100526e-03,-4.910376419e-03,-7.203048931e-06,-4.917579468e-03,-4.366961221e-03,-1.474664005e-04,-4.514427621e-03,-1.890418479e-03,6.432042890e-05,-1.826098050e-03,-1.829156827e-03,3.917966997e-04,-1.437360127e-03,-2.896045808e-03,6.807981905e-05,-2.827965989e-03,-2.137871825e-03,3.467464754e-04,-1.791125350e-03
-9.6,2.459319410e-04,1.905445789e-04,4.364765199e-04,-9.396319001e-04,1.869546365e-04,-7.526772635e-04,-3.486855714e-04,9.662936170e-05,-2.520562097e-04,-8.444565807e-04,9.363253817e-05,-7.508240426e-04,-1.007678219e-03,3.293405206e-04,-6.783376983e-04,-1.179160623e-03,7.375499774e-05,-1.105405626e-03,-1.142111839e-03,3.168602961e-04,-8.252515425e-04,-2.976274396e-03,2.657702732e-04,-2.710504123e-03,-2.050771443e-04,2.396060390e-04,3.452889477e-05,-2.486730996e-03,5.614975974e-04,-1.925233399e-03,-2.170507967e-03,5.135353424e-04,-1.656972625e-03,-2.222752827e-03,2.608768772e-04,-1.961875950e-03,-2.520451894e-03,7.214844571e-04,-1.798967437e-03,-2.798751232e-03,2.848472745e-04,-2.513903958e-03,-2.805289535e-03,2.281928942e-04,-2.577096641e-03,-1.581220520e-03,1.871556565e-04,-1.394064864e-03,-1.192958434e-03,1.158704110e-04,-1.077088023e-03,-1.698372711e-03,1.882074630e-04,-1.510165248e-03,-1.178302740e-03,9.882865347e-05,-1.079474087e-03,-3.036976216e-03,2.357365625e-04,-2.801239654e-03,-2.462908891e-03,1.238008315e-04,-2.339108059e-03,-1.785683720e-03,2.327026199e-04,-1.552981100e-03,-1.221799829e-03,1.354630209e-04,-1.086336808e-03,-6.283123655e-04,-2.653968193e-05,-6.548520474e-04,-2.734677736e-03,2.033009053e-04,-2.531376830e-03,-1.997901587e-03,4.824045182e-05,-1.949661136e-03,-4.428157779e-03,6.143948716e-04,-3.813762908e-03,-3.158642549e-03,1.027423580e-04,-3.055900191e-03,-4.184198367e-03,1.846827896e-05,-4.165730089e-03,-3.922323334e-03,-1.023943039e-04,-4.024717638e-03,-4.828340510e-03,-7.651166229e-06,-4.835991676e-03,-4.317538466e-03,-1.403267115e-04,-4.457865177e-03,-1.842318777e-03,7.137052257e-05,-1.770948254e-03,-1.789886622e-03,3.955741486e-04,-1.394312473e-03,-2.847525316e-03,5.466054016e-05,-2.792864776e-03,-2.089304366e-03,3.455871836e-04,-1.743717183e-03
-9.5,2.760471073e-04,1.905396388e-04,4.665867461e-04,-8.928862448e-04,1.769277889e-04,-7.159584559e-04,-3.412732927e-04,9.551972567e-05,-2.457535670e-04,-8.239832443e-04,9.500166726e-05,-7.289815771e-04,-9.945225858e-04,3.257245739e-04,-6.687980119e-04,-1.124649252e-03,7.945986240e-05,-1.045189389e-03,-1.102796208e-03,3.118998459e-04,-7.908963618e-04,-2.930220469e-03,2.779061289e-04,-2.652314340e-03,-2.015137783e-04,2.402525662e-04,3.873878787e-05,-2.438776555e-03,5.601244710e-04,-1.878652084e-03,-2.166217785e-03,5.169530012e-04,-1.649264783e-03,-2.160943762e-03,2.570454655e-04,-1.903898297e-03,-2.467095280e-03,7.133392574e-04,-1.753756022e-03,-2.714608847e-03,2.892364385e-04,-2.425372409e-03,-2.751457351e-03,2.234024443e-04,-2.528054907e-03,-1.543341295e-03,1.875091200e-04,-1.355832175e-03,-1.152677765e-03,1.151071137e-04,-1.037570651e-03,-1.642442434e-03,1.838127896e-04,-1.458629644e-03,-1.131441133e-03,9.813576221e-05,-1.033305371e-03,-2.975203904e-03,2.349726756e-04,-2.740231228e-03,-2.441622350e-03,1.234990950e-04,-2.318123255e-03,-1.736790995e-03,2.223270630e-04,-1.514463932e-03,-1.224662018e-03,1.320604214e-04,-1.092601596e-03,-6.160562063e-04,-2.010896527e-05,-6.361651716e-04,-2.691090650e-03,2.020720765e-04,-2.489018573e-03,-1.967992788e-03,5.714847901e-05,-1.910844309e-03,-4.369030450e-03,6.160877400e-04,-3.752942710e-03,-3.118458858e-03,1.071354224e-04,-3.011323435e-03,-4.128297503e-03,2.014801352e-05,-4.108149490e-03,-3.870184718e-03,-9.249957309e-05,-3.962684292e-03,-4.742687667e-03,-8.622330382e-06,-4.751309998e-03,-4.265850976e-03,-1.335773761e-04,-4.399428352e-03,-1.792841813e-03,7.878108864e-05,-1.714060724e-03,-1.744973089e-03,3.971355932e-04,-1.347837496e-03,-2.794911989e-03,4.173362766e-05,-2.753178361e-03,-2.035932218e-03,3.427501824e-04,-1.693182035e-03
-9.4,3.044777369e-04,1.900660666e-04,4.945438035e-04,-8.457543204e-04,1.670584978e-04,-6.786958226e-04,-3.356993281e-04,9.437644122e-05,-2.413228869e-04,-8.044009224e-04,9.621088400e-05,-7.081900384e-04,-9.822707460e-04,3.217981292e-04,-6.604726167e-04,-1.070367200e-03,8.563066993e-05,-9.847365299e-04,-1.063517307e-03,3.065034856e-04,-7.570138212e-04,-2.882151181e-03,2.899000673e-04,-2.592251113e-03,-1.992598626e-04,2.406399992e-04,4.138013668e-05,-2.388691934e-03,5.577568232e-04,-1.830935111e-03,-2.161335196e-03,5.196234556e-04,-1.641711740e-03,-2.095924472e-03,2.522922459e-04,-1.843632226e-03,-2.410988798e-03,7.050343756e-04,-1.705954423e-03,-2.628119205e-03,2.933739382e-04,-2.334745266e-03,-2.692167064e-03,2.167430376e-04,-2.475424026e-03,-1.502660232e-03,1.876806934e-04,-1.314979538e-03,-1.109713813e-03,1.145985547e-04,-9.951152588e-04,-1.584170754e-03,1.793548000e-04,-1.404815954e-03,-1.083191106e-03,9.797221307e-05,-9.852188929e-04,-2.909960935e-03,2.334361180e-04,-2.676524817e-03,-2.419896303e-03,1.230802438e-04,-2.296816059e-03,-1.685458218e-03,2.106295752e-04,-1.474828643e-03,-1.228924935e-03,1.285935066e-04,-1.100331429e-03,-6.050396335e-04,-1.389905548e-05,-6.189386889e-04,-2.644981158e-03,2.000387044e-04,-2.444942454e-03,-1.936430678e-03,6.552732457e-05,-1.870903354e-03,-4.303647474e-03,6.149277991e-04,-3.688719675e-03,-3.076250373e-03,1.117815886e-04,-2.964468784e-03,-4.070756323e-03,2.224249528e-05,-4.048513828e-03,-3.815946123e-03,-8.312499467e-05,-3.899071118e-03,-4.653587987e-03,-1.005240186e-05,-4.663640389e-03,-4.211633454e-03,-1.273595171e-04,-4.338992971e-03,-1.741999968e-03,8.654385848e-05,-1.655456109e-03,-1.694379380e-03,3.965049972e-04,-1.297874383e-03,-2.738119380e-03,2.942243600e-05,-2.708696944e-03,-1.977851687e-03,3.382767802e-04,-1.639574907e-03
-9.3,3.311428761e-04,1.891369760e-04,5.202798521e-04,-7.983846648e-04,1.574169302e-04,-6.409677346e-04,-3.320379202e-04,9.319938874e-05,-2.388385314e-04,-7.858087134e-04,9.726012406e-05,-6.885485893e-04,-9.710722375e-04,3.175716602e-04,-6.535005773e-04,-1.016192671e-03,9.202744683e-05,-9.241652247e-04,-1.024441843e-03,3.007107065e-04,-7.237311365e-04,-2.831802964e-03,3.015491210e-04,-2.530253843e-03,-1.984420187e-04,2.407620558e-04,4.232003710e-05,-2.336611022e-03,5.544206129e-04,-1.782190409e-03,-2.155980331e-03,5.215314793e-04,-1.634448852e-03,-2.027857416e-03,2.467344001e-04,-1.781123016e-03,-2.352073831e-03,6.965172972e-04,-1.655556533e-03,-2.539391397e-03,2.972470885e-04,-2.242144309e-03,-2.627520302e-03,2.083429235e-04,-2.419177378e-03,-1.459144932e-03,1.876814794e-04,-1.271463452e-03,-1.064028933e-03,1.143854451e-04,-9.496434882e-04,-1.523599678e-03,1.748846132e-04,-1.348715065e-03,-1.033515081e-03,9.834327705e-05,-9.351718043e-04,-2.841205882e-03,2.311430317e-04,-2.610062851e-03,-2.397805016e-03,1.225390779e-04,-2.275265938e-03,-1.631977140e-03,1.977408636e-04,-1.434236277e-03,-1.234655568e-03,1.250458040e-04,-1.109609764e-03,-5.953310408e-04,-7.950473025e-06,-6.032815139e-04,-2.596349024e-03,1.972501114e-04,-2.399098913e-03,-1.903193121e-03,7.327451196e-05,-1.829918609e-03,-4.231949050e-03,6.107754482e-04,-3.621173602e-03,-3.032092932e-03,1.166421367e-04,-2.915450796e-03,-4.011611664e-03,2.469595356e-05,-3.986915710e-03,-3.759681419e-03,-7.427533854e-05,-3.833956757e-03,-4.561226456e-03,-1.187548013e-05,-4.573101937e-03,-4.154629613e-03,-1.218265625e-04,-4.276456175e-03,-1.689811814e-03,9.464622224e-05,-1.595165592e-03,-1.638122220e-03,3.937345276e-04,-1.244387693e-03,-2.677076156e-03,1.782992697e-05,-2.659246229e-03,-1.915189164e-03,3.322366995e-04,-1.582952465e-03
-9.2,3.559589018e-04,1.877696531e-04,5.437285549e-04,-7.509468333e-04,1.480690613e-04,-6.028777720e-04,-3.303509273e-04,9.198802398e-05,-2.383629033e-04,-7.683011431e-04,9.814984990e-05,-6.701512932e-04,-9.610687740e-04,3.130562323e-04,-6.480125417e-04,-9.620202622e-04,9.842629667e-05,-8.635939655e-04,-9.857353235e-04,2.945611049e-04,-6.911742185e-04,-2.778930409e-03,3.126527559e-04,-2.466277653e-03,-1.991796068e-04,2.406141543e-04,4.143454757e-05,-2.282682495e-03,5.501449400e-04,-1.732537555e-03,-2.150261902e-03,5.226648544e-04,-1.627597048e-03,-1.956940194e-03,2.405176236e-04,-1.716422570e-03,-2.290246751e-03,6.876822779e-04,-1.602564473e-03,-2.448549089e-03,3.008479826e-04,-2.147701106e-03,-2.557657443e-03,1.983611884e-04,-2.359296255e-03,-1.412781160e-03,1.875242770e-04,-1.225256883e-03,-1.015602082e-03,1.145044050e-04,-9.010976774e-04,-1.460789756e-03,1.704504224e-04,-1.290339333e-03,-9.823813574e-04,9.924662197e-05,-8.831347355e-04,-2.768925561e-03,2.281071858e-04,-2.540818375e-03,-2.375411217e-03,1.218693927e-04,-2.253541824e-03,-1.576659341e-03,1.838035143e-04,-1.392855827e-03,-1.241899139e-03,1.214022791e-04,-1.120496860e-03,-5.869822311e-04,-2.303960370e-06,-5.892861915e-04,-2.545216868e-03,1.937699238e-04,-2.351446944e-03,-1.868276612e-03,8.029572754e-05,-1.787980884e-03,-4.153931199e-03,6.035164071e-04,-3.550414792e-03,-2.986065916e-03,1.216773148e-04,-2.864388601e-03,-3.950896661e-03,2.744340573e-05,-3.923453255e-03,-3.701474324e-03,-6.595194407e-05,-3.767426268e-03,-4.465801904e-03,-1.402406232e-05,-4.479825967e-03,-4.094604732e-03,-1.171355498e-04,-4.211740282e-03,-1.636299030e-03,1.030711657e-04,-1.533227864e-03,-1.576270018e-03,3.889025834e-04,-1.187367435e-03,-2.611713414e-03,7.025790894e-06,-2.604687623e-03,-1.848095843e-03,3.247273629e-04,-1.523368481e-03
-9.1,3.788423465e-04,1.859847434e-04,5.648270900e-04,-7.036302769e-04,1.390780597e-04,-5.645522172e-04,-3.306845888e-04,9.074136577e-05,-2.399432230e-04,-7.519658584e-04,9.888119830e-05,-6.530846601e-04,-9.523903867e-04,3.082634198e-04,-6.441269668e-04,-9.077660121e-04,1.046287300e-04,-8.031372821e-04,-9.475584353e-04,2.880934539e-04,-6.594649814e-04,-2.723313635e-03,3.230186467e-04,-2.400294988e-03,-2.015807818e-04,2.401932660e-04,3.861248418e-05,-2.227064626e-03,5.449620081e-04,-1.682102618e-03,-2.144271986e-03,5.230146729e-04,-1.621257313e-03,-1.883396567e-03,2.338095525e-04,-1.649587015e-03,-2.225360923e-03,6.783725062e-04,-1.546988417e-03,-2.355726229e-03,3.041734506e-04,-2.051552778e-03,-2.482749693e-03,1.869829592e-04,-2.295766734e-03,-1.363570734e-03,1.872237030e-04,-1.176347031e-03,-9.644301282e-04,1.149887923e-04,-8.494413359e-04,-1.395815953e-03,1.660976849e-04,-1.229718268e-03,-9.297629455e-04,1.006718235e-04,-8.290911220e-04,-2.693141735e-03,2.243428126e-04,-2.468798922e-03,-2.352760848e-03,1.210644003e-04,-2.231696448e-03,-1.519827465e-03,1.689688493e-04,-1.350858616e-03,-1.250675194e-03,1.176497289e-04,-1.133025465e-03,-5.800264298e-04,3.000356670e-06,-5.770260732e-04,-2.491629202e-03,1.896735252e-04,-2.301955677e-03,-1.831693377e-03,8.650562120e-05,-1.745187756e-03,-4.069651062e-03,5.930648951e-04,-3.476586167e-03,-2.938248624e-03,1.268459739e-04,-2.811402650e-03,-3.888641077e-03,3.041370207e-05,-3.858227375e-03,-3.641416279e-03,-5.815224803e-05,-3.699568527e-03,-4.367524369e-03,-1.642944230e-05,-4.383953811e-03,-4.031355369e-03,-1.134390588e-04,-4.144794428e-03,-1.581481422e-03,1.117967128e-04,-1.469684709e-03,-1.508939494e-03,3.821123957e-04,-1.126827098e-03,-2.541955960e-03,-2.964391427e-06,-2.544920351e-03,-1.776742185e-03,3.158734721e-04,-1.460868713e-03
-9,3.997131226e-04,1.838056482e-04,5.835187707e-04,-6.566418811e-04,1.305052563e-04,-5.261366248e-04,-3.330662790e-04,8.945793716e-05,-2.436083419e-04,-7.368809104e-04,9.945614740e-05,-6.374247630e-04,-9.451514101e-04,3.032052179e-04,-6.419461922e-04,-8.533710181e-04,1.104687978e-04,-7.429022203e-04,-9.100629173e-04,2.813447041e-04,-6.287182132e-04,-2.664763719e-03,3.324687832e-04,-2.332294936e-03,-2.057388812e-04,2.394976298e-04,3.375874862e-05,-2.169920784e-03,5.389073033e-04,-1.631013481e-03,-2.138081804e-03,5.225754729e-04,-1.615506331e-03,-1.807467521e-03,2.267928469e-04,-1.580674674e-03,-2.157232340e-03,6.683862374e-04,-1.488846103e-03,-2.261064151e-03,3.072248613e-04,-1.953839289e-03,-2.402990969e-03,1.744134208e-04,-2.228577548e-03,-1.311529384e-03,1.867962754e-04,-1.124733109e-03,-9.105272380e-04,1.158687490e-04,-7.946584891e-04,-1.328762550e-03,1.618688810e-04,-1.166893669e-03,-8.756354584e-04,1.026000842e-04,-7.730353743e-04,-2.613917561e-03,2.198673847e-04,-2.394050176e-03,-2.329879014e-03,1.201168399e-04,-2.209762174e-03,-1.461807079e-03,1.533932527e-04,-1.308413826e-03,-1.260974338e-03,1.137770573e-04,-1.147197281e-03,-5.744769324e-04,7.923772718e-06,-5.665531597e-04,-2.435650584e-03,1.850451851e-04,-2.250605399e-03,-1.793468315e-03,9.182880821e-05,-1.701639506e-03,-3.979229881e-03,5.793675348e-04,-3.399862347e-03,-2.888716427e-03,1.321046418e-04,-2.756611785e-03,-3.824872138e-03,3.353273585e-05,-3.791339402e-03,-3.579604434e-03,-5.086954537e-05,-3.630473980e-03,-4.266612268e-03,-1.902222054e-05,-4.285634488e-03,-3.964716773e-03,-1.108780814e-04,-4.075594855e-03,-1.525371933e-03,1.207950310e-04,-1.404576902e-03,-1.436292952e-03,3.734909670e-04,-1.062801985e-03,-2.467720528e-03,-1.216618279e-05,-2.479886711e-03,-1.701314614e-03,3.058260655e-04,-1.395488549e-03
-8.9,4.184972466e-04,1.812580588e-04,5.997553054e-04,-6.102024660e-04,1.224097761e-04,-4.877926899e-04,-3.375020900e-04,8.813560532e-05,-2.493664847e-04,-7.231125332e-04,9.987768158e-05,-6.232348516e-04,-9.394471943e-04,2.978939456e-04,-6.415532487e-04,-7.988045436e-04,1.158172155e-04,-6.829873281e-04,-8.733878430e-04,2.743489824e-04,-5.990388606e-04,-2.603126311e-03,3.408448616e-04,-2.262281450e-03,-2.117296913e-04,2.385264553e-04,2.679676399e-05,-2.111416701e-03,5.320200561e-04,-1.579396645e-03,-2.131739436e-03,5.213452466e-04,-1.610394189e-03,-1.729404247e-03,2.196583813e-04,-1.509745866e-03,-2.085650098e-03,6.574866666e-04,-1.428163432e-03,-2.164710761e-03,3.100077857e-04,-1.854702975e-03,-2.318592679e-03,1.608715859e-04,-2.157721093e-03,-1.256686104e-03,1.862602442e-04,-1.070425859e-03,-8.539240739e-04,1.171706616e-04,-7.367534123e-04,-1.259719829e-03,1.578028796e-04,-1.101916949e-03,-8.199756837e-04,1.050042777e-04,-7.149714060e-04,-2.531362511e-03,2.147032879e-04,-2.316659223e-03,-2.306768400e-03,1.190189656e-04,-2.187749434e-03,-1.402920494e-03,1.372345868e-04,-1.265685907e-03,-1.272756047e-03,1.097754142e-04,-1.162980633e-03,-5.703267571e-04,1.242970289e-05,-5.578970542e-04,-2.377363697e-03,1.799753479e-04,-2.197388349e-03,-1.753637252e-03,9.620115625e-05,-1.657436096e-03,-3.882855111e-03,5.624077597e-04,-3.320447352e-03,-2.837538182e-03,1.374060999e-04,-2.700132082e-03,-3.759616568e-03,3.672659461e-05,-3.722889973e-03,-3.516140096e-03,-4.409325612e-05,-3.560233352e-03,-4.163290136e-03,-2.173280496e-05,-4.185022941e-03,-3.894569171e-03,-1.095749365e-04,-4.004144107e-03,-1.467973060e-03,1.300313652e-04,-1.337941695e-03,-1.358537070e-03,3.631879876e-04,-9.953490824e-04,-2.388920187e-03,-2.065801952e-05,-2.409578206e-03,-1.622014825e-03,2.947599350e-04,-1.327254890e-03
-8.8,4.351287701e-04,1.783695338e-04,6.134983039e-04,-5.645424973e-04,1.148467580e-04,-4.496957393e-04,-3.439753841e-04,8.677139753e-05,-2.572039866e-04,-7.107137055e-04,1.001499126e-04,-6.105637930e-04,-9.353517583e-04,2.923421540e-04,-6.430096042e-04,-7.440668232e-04,1.205818894e-04,-6.234849338e-04,-8.376568102e-04,2.671366892e-04,-5.705201210e-04,-2.538284424e-03,3.480127113e-04,-2.190271713e-03,-2.196095295e-04,2.372797091e-04,1.767017956e-05,-2.051719247e-03,5.243438901e-04,-1.527375357e-03,-2.125269107e-03,5.193254153e-04,-1.605943692e-03,-1.649462885e-03,2.125981058e-04,-1.436864779e-03,-2.010391785e-03,6.454147427e-04,-1.364977042e-03,-2.066820914e-03,3.125312604e-04,-1.754289654e-03,-2.229781861e-03,1.465843866e-04,-2.083197475e-03,-1.199084263e-03,1.856353255e-04,-1.013448938e-03,-7.946677353e-04,1.189164149e-04,-6.757513204e-04,-1.188783142e-03,1.539340117e-04,-1.034849130e-03,-7.627617245e-04,1.078494245e-04,-6.549122999e-04,-2.445633706e-03,2.088777086e-04,-2.236755998e-03,-2.283409755e-03,1.177626247e-04,-2.165647130e-03,-1.343482363e-03,1.206493457e-04,-1.222833017e-03,-1.285947341e-03,1.056382374e-04,-1.180309103e-03,-5.675489759e-04,1.648428744e-05,-5.510646885e-04,-2.316867391e-03,1.745582850e-04,-2.142309106e-03,-1.712246697e-03,9.957116294e-05,-1.612675534e-03,-3.780781189e-03,5.422093259e-04,-3.238571863e-03,-2.784775044e-03,1.426977319e-04,-2.642077312e-03,-3.692903550e-03,3.992454657e-05,-3.652979003e-03,-3.451127569e-03,-3.780972908e-05,-3.488937298e-03,-4.057786530e-03,-2.449219462e-05,-4.082278725e-03,-3.820843572e-03,-1.096258313e-04,-3.930469403e-03,-1.409275464e-03,1.394631221e-04,-1.269812342e-03,-1.275922844e-03,3.513747086e-04,-9.245481354e-04,-2.305472274e-03,-2.856770105e-05,-2.334039975e-03,-1.539060147e-03,2.828688388e-04,-1.256191308e-03
-8.7,4.495511062e-04,1.751691755e-04,6.247202817e-04,-5.198971047e-04,1.078648141e-04,-4.120322906e-04,-3.524458918e-04,8.536143502e-05,-2.670844567e-04,-6.997231595e-04,1.002781127e-04,-5.994450468e-04,-9.329159993e-04,2.865625764e-04,-6.463534228e-04,-6.891913436e-04,1.247055176e-04,-5.644858260e-04,-8.029758488e-04,2.597337606e-04,-5.432420882e-04,-2.470161050e-03,3.538657142e-04,-2.116295336e-03,-2.294136217e-04,2.357579919e-04,6.344370177e-06,-1.990995235e-03,5.159273524e-04,-1.475067883e-03,-2.118670910e-03,5.165208270e-04,-1.602150083e-03,-1.567899688e-03,2.057972253e-04,-1.362102462e-03,-1.931242536e-03,6.319039957e-04,-1.299338540e-03,-1.967556213e-03,3.148064541e-04,-1.652749758e-03,-2.136800764e-03,1.317812976e-04,-2.005019467e-03,-1.138783477e-03,1.849425652e-04,-9.538409116e-04,-7.328221852e-04,1.211227876e-04,-6.116993976e-04,-1.116052838e-03,1.502909125e-04,-9.657619254e-04,-7.039745014e-04,1.110936157e-04,-5.928808856e-04,-2.356932074e-03,2.024209442e-04,-2.154511130e-03,-2.259762749e-03,1.163395129e-04,-2.143423237e-03,-1.283795635e-03,1.037906637e-04,-1.180004971e-03,-1.300441750e-03,1.013612890e-04,-1.199080461e-03,-5.660968676e-04,2.005692451e-05,-5.460399431e-04,-2.254274473e-03,1.688901636e-04,-2.085384309e-03,-1.669354169e-03,1.019012148e-04,-1.567452954e-03,-3.673326769e-03,5.188370410e-04,-3.154489728e-03,-2.730479621e-03,1.479199350e-04,-2.582559686e-03,-3.624767368e-03,4.306192643e-05,-3.581705441e-03,-3.384672792e-03,-3.200348666e-05,-3.416676279e-03,-3.950330939e-03,-2.723357717e-05,-3.977564516e-03,-3.743526014e-03,-1.110941432e-04,-3.854620157e-03,-1.349258834e-03,1.490396877e-04,-1.200219146e-03,-1.188745706e-03,3.382430306e-04,-8.505026751e-04,-2.217307410e-03,-3.606526121e-05,-2.253372671e-03,-1.452682809e-03,2.703589570e-04,-1.182323852e-03
-8.6,4.617183686e-04,1.716875017e-04,6.334058704e-04,-4.765001201e-04,1.015033852e-04,-3.749967349e-04,-3.628485923e-04,8.390105332e-05,-2.789475390e-04,-6.901641766e-04,1.002686308e-04,-5.898955458e-04,-9.321657343e-04,2.805681412e-04,-6.515975931e-04,-6.342461886e-04,1.281622864e-04,-5.060839022e-04,-7.694313091e-04,2.521611779e-04,-5.172701312e-04,-2.398720685e-03,3.583270536e-04,-2.040393632e-03,-2.411540488e-04,2.339624410e-04,-7.191607878e-06,-1.929408239e-03,5.068240144e-04,-1.422584224e-03,-2.111919420e-03,5.129397863e-04,-1.598979634e-03,-1.484965272e-03,1.994264733e-04,-1.285538798e-03,-1.848015294e-03,6.166968042e-04,-1.231318490e-03,-1.867082661e-03,3.168450253e-04,-1.550237636e-03,-2.039905008e-03,1.166895300e-04,-1.923215478e-03,-1.075860200e-03,1.842043144e-04,-8.916558860e-04,-6.684680832e-04,1.238011433e-04,-5.446669399e-04,-1.041632713e-03,1.468953545e-04,-8.947373585e-04,-6.435994479e-04,1.146892991e-04,-5.289101488e-04,-2.265492804e-03,1.953640546e-04,-2.070128749e-03,-2.235765269e-03,1.147415935e-04,-2.121023675e-03,-1.224146241e-03,8.680684446e-05,-1.137339396e-03,-1.316097948e-03,9.694279901e-05,-1.219155149e-03,-5.659030557e-04,2.312074799e-05,-5.427823077e-04,-2.189708917e-03,1.630673455e-04,-2.026641572e-03,-1.625027645e-03,1.031686465e-04,-1.521858999e-03,-3.560867248e-03,4.923950842e-04,-3.068472164e-03,-2.674694047e-03,1.530049914e-04,-2.521689056e-03,-3.555247881e-03,4.608280594e-05,-3.509165075e-03,-3.316880602e-03,-2.665884552e-05,-3.343539448e-03,-3.841148836e-03,-2.989473984e-05,-3.871043576e-03,-3.662657723e-03,-1.140063278e-04,-3.776664051e-03,-1.287894039e-03,1.587032692e-04,-1.129190770e-03,-1.097343982e-03,3.240046798e-04,-7.733393024e-04,-2.124377357e-03,-4.335376949e-05,-2.167731127e-03,-1.363126762e-03,2.574419737e-04,-1.105684788e-03
-8.5,4.715974507e-04,1.679564865e-04,6.395539372e-04,-4.345771316e-04,9.579043079e-05,-3.387867008e-04,-3.750918003e-04,8.238503776e-05,-2.927067625e-04,-6.820426358e-04,1.001286932e-04,-5.819139426e-04,-9.330990171e-04,2.743720129e-04,-6.587270042e-04,-5.793336898e-04,1.309552365e-04,-4.483784533e-04,-7.370871014e-04,2.444348572e-04,-4.926522443e-04,-2.323967757e-03,3.613505683e-04,-1.962617189e-03,-2.548169127e-04,2.318945925e-04,-2.292232027e-05,-1.867112562e-03,4.970919531e-04,-1.370020609e-03,-2.104960440e-03,5.085940995e-04,-1.596366341e-03,-1.400897366e-03,1.936356076e-04,-1.207261759e-03,-1.760569502e-03,5.995614830e-04,-1.161008019e-03,-1.765566054e-03,3.186576788e-04,-1.446908376e-03,-1.939358976e-03,1.015297167e-04,-1.837829259e-03,-1.010405339e-03,1.834440935e-04,-8.269612457e-04,-6.017010285e-04,1.269573559e-04,-4.747436726e-04,-9.656257334e-04,1.437615368e-04,-8.218641966e-04,-5.816270644e-04,1.185847491e-04,-4.630423153e-04,-2.171571245e-03,1.877366941e-04,-1.983834551e-03,-2.211330495e-03,1.129616173e-04,-2.098368878e-03,-1.164796029e-03,6.984002834e-05,-1.094956000e-03,-1.332738094e-03,9.238375388e-05,-1.240354340e-03,-5.668777147e-04,2.565308676e-05,-5.412246279e-04,-2.123302152e-03,1.571845807e-04,-1.966117571e-03,-1.579342881e-03,1.033664624e-04,-1.475976419e-03,-3.443823498e-03,4.630252115e-04,-2.980798286e-03,-2.617446233e-03,1.578768252e-04,-2.459569408e-03,-3.484387656e-03,4.894183561e-05,-3.435445820e-03,-3.247849915e-03,-2.176193875e-05,-3.269611853e-03,-3.730455250e-03,-3.242053609e-05,-3.762875787e-03,-3.578329894e-03,-1.183513115e-04,-3.696681205e-03,-1.225145049e-03,1.683904517e-04,-1.056754597e-03,-1.002094090e-03,3.088898019e-04,-6.932042885e-04,-2.026660000e-03,-5.065869874e-05,-2.077318699e-03,-1.270642776e-03,2.443293235e-04,-1.026313453e-03
-8.4,4.791708855e-04,1.640096561e-04,6.431805416e-04,-3.943387919e-04,9.074098366e-05,-3.035978083e-04,-3.890547579e-04,8.080783939e-05,-3.082469185e-04,-6.753444600e-04,9.986611638e-05,-5.754783436e-04,-9.356829359e-04,2.679876009e-04,-6.676953350e-04,-5.245879777e-04,1.331143197e-04,-3.914736580e-04,-7.059815829e-04,2.365660310e-04,-4.694155518e-04,-2.245940844e-03,3.629197000e-04,-1.883021144e-03,-2.703592519e-04,2.295562112e-04,-4.080304074e-05,-1.804245572e-03,4.867925707e-04,-1.317453001e-03,-2.097706855e-03,5.034990858e-04,-1.594207769e-03,-1.315913210e-03,1.885483539e-04,-1.127364856e-03,-1.668826287e-03,5.803086835e-04,-1.088517603e-03,-1.663166797e-03,3.202531494e-04,-1.342913647e-03,-1.835430063e-03,8.651203328e-05,-1.748918029e-03,-9.425193413e-04,1.826862009e-04,-7.598331404e-04,-5.326283458e-04,1.305918053e-04,-4.020365404e-04,-8.881282656e-04,1.408961864e-04,-7.472320792e-04,-5.180521615e-04,1.227255595e-04,-3.953266020e-04,-2.075427483e-03,1.795654705e-04,-1.895862013e-03,-2.186343336e-03,1.109936078e-04,-2.075349729e-03,-1.105975061e-03,5.302475951e-05,-1.052950302e-03,-1.350146721e-03,8.768822958e-05,-1.262458491e-03,-5.689069934e-04,2.763591109e-05,-5.412710824e-04,-2.055188574e-03,1.513329863e-04,-1.903855588e-03,-1.532378753e-03,1.025033804e-04,-1.429875373e-03,-3.322649128e-03,4.309065432e-04,-2.891742585e-03,-2.558745280e-03,1.624516586e-04,-2.396293622e-03,-3.412226615e-03,5.160462746e-05,-3.360621987e-03,-3.177667690e-03,-1.730318628e-05,-3.194970876e-03,-3.618448343e-03,-3.476456525e-05,-3.653212908e-03,-3.490675278e-03,-1.240820644e-04,-3.614757343e-03,-1.160970034e-03,1.780340176e-04,-9.829360162e-04,-9.034030918e-04,2.931444848e-04,-6.102586070e-04,-1.924162307e-03,-5.821599304e-05,-1.982378300e-03,-1.175484019e-03,2.312280237e-04,-9.442559955e-04
-8.3,4.844396258e-04,1.598821228e-04,6.443217486e-04,-3.559762988e-04,8.635721050e-05,-2.696190883e-04,-4.045858031e-04,7.916370802e-05,-3.254220951e-04,-6.700332908e-04,9.948898060e-05,-5.705443102e-04,-9.398507893e-04,2.614285066e-04,-6.784222827e-04,-4.701708655e-04,1.346942846e-04,-3.354765810e-04,-6.761251842e-04,2.285621027e-04,-4.475630815e-04,-2.164703982e-03,3.630441852e-04,-1.801659797e-03,-2.877067365e-04,2.269491464e-04,-6.075759009e-05,-1.740920682e-03,4.759888941e-04,-1.264931788e-03,-2.090035642e-03,4.976735052e-04,-1.592362137e-03,-1.230204136e-03,1.842585746e-04,-1.045945561e-03,-1.572779731e-03,5.588051357e-04,-1.013974595e-03,-1.560036517e-03,3.216375784e-04,-1.238398939e-03,-1.728385118e-03,7.183289124e-05,-1.656552226e-03,-8.723072456e-04,1.819551655e-04,-6.903520801e-04,-4.613657711e-04,1.346992943e-04,-3.266664768e-04,-8.092255517e-04,1.382993753e-04,-6.709261764e-04,-4.528730260e-04,1.270560334e-04,-3.258169926e-04,-1.977313607e-03,1.708729157e-04,-1.806440692e-03,-2.160658608e-03,1.088331446e-04,-2.051825463e-03,-1.047874983e-03,3.648636031e-05,-1.011388623e-03,-1.368071115e-03,8.286361098e-05,-1.285207504e-03,-5.718528617e-04,2.905619294e-05,-5.427966688e-04,-1.985501068e-03,1.455979283e-04,-1.839903139e-03,-1.484212236e-03,1.006029994e-04,-1.383609237e-03,-3.197818981e-03,3.962572491e-04,-2.801561732e-03,-2.498578337e-03,1.666392368e-04,-2.331939100e-03,-3.338796618e-03,5.404679685e-05,-3.284749821e-03,-3.106403505e-03,-1.328004722e-05,-3.119683552e-03,-3.505304666e-03,-3.688969779e-05,-3.542194363e-03,-3.399860197e-03,-1.311174244e-04,-3.530977622e-03,-1.095322241e-03,1.875647406e-04,-9.077575004e-04,-8.017013761e-04,2.770273494e-04,-5.246740267e-04,-1.816924349e-03,-6.625916980e-05,-1.883183519e-03,-1.077903717e-03,2.183370250e-04,-8.595666924e-04
-8.2,4.874248252e-04,1.556104312e-04,6.430352564e-04,-3.196600490e-04,8.263018602e-05,-2.370298630e-04,-4.215020541e-04,7.744679940e-05,-3.440552547e-04,-6.660491873e-04,9.900531752e-05,-5.670438698e-04,-9.455004939e-04,2.547084314e-04,-6.907920625e-04,-4.162662556e-04,1.357712584e-04,-2.804949972e-04,-6.474996518e-04,2.204277770e-04,-4.270718748e-04,-2.080337522e-03,3.617548659e-04,-1.718582656e-03,-3.067528042e-04,2.240752468e-04,-8.267755732e-05,-1.677222607e-03,4.647437221e-04,-1.212478885e-03,-2.081787357e-03,4.911393812e-04,-1.590647976e-03,-1.143934193e-03,1.808277650e-04,-9.631064277e-04,-1.472504954e-03,5.349835173e-04,-9.375214371e-04,-1.456317764e-03,3.228141716e-04,-1.133503593e-03,-1.618491228e-03,5.767238025e-05,-1.560818848e-03,-7.998758773e-04,1.812752369e-04,-6.186006404e-04,-3.880354798e-04,1.392688054e-04,-2.487666743e-04,-7.289904027e-04,1.359656494e-04,-5.930247533e-04,-3.860918308e-04,1.315203198e-04,-2.545715110e-04,-1.877465792e-03,1.616770819e-04,-1.715788710e-03,-2.134102259e-03,1.064773850e-04,-2.027624874e-03,-9.906447208e-04,2.033912205e-05,-9.703055988e-04,-1.386223465e-03,7.792062758e-05,-1.308302837e-03,-5.755547430e-04,2.990615509e-05,-5.456485879e-04,-1.914367206e-03,1.400568784e-04,-1.774310328e-03,-1.434914810e-03,9.770241569e-05,-1.337212394e-03,-3.069819630e-03,3.593370504e-04,-2.710482579e-03,-2.436910887e-03,1.703446336e-04,-2.266566253e-03,-3.264117870e-03,5.625230465e-05,-3.207865565e-03,-3.034106098e-03,-9.699641840e-06,-3.043805740e-03,-3.391177031e-03,-3.876756999e-05,-3.429944601e-03,-3.306078492e-03,-1.393438169e-04,-3.445422309e-03,-1.028151497e-03,1.969128103e-04,-8.312386870e-04,-6.974375171e-04,2.608054140e-04,-4.366321031e-04,-1.705025822e-03,-7.500693848e-05,-1.780032761e-03,-9.781549381e-04,2.058427276e-04,-7.723122105e-04
-8.1,4.881683397e-04,1.512321221e-04,6.394004618e-04,-2.855408186e-04,7.954268652e-05,-2.059981321e-04,-4.395908575e-04,7.565135979e-05,-3.639394977e-04,-6.633085756e-04,9.842282360e-05,-5.648857520e-04,-9.524945349e-04,2.478410788e-04,-7.046534560e-04,-3.630722551e-04,1.364367730e-04,-2.266354821e-04,-6.200589760e-04,2.121662256e-04,-4.078927504e-04,-1.992929931e-03,3.590972663e-04,-1.633832664e-03,-3.273591809e-04,2.209363294e-04,-1.064228515e-04,-1.613205281e-03,4.531181013e-04,-1.160087179e-03,-2.072767993e-03,4.839217317e-04,-1.588846262e-03,-1.057242356e-03,1.782837740e-04,-8.789585823e-04,-1.368163484e-03,5.088481237e-04,-8.593153605e-04,-1.352146308e-03,3.237830075e-04,-1.028363300e-03,-1.506020387e-03,4.419241894e-05,-1.461827968e-03,-7.253336546e-04,1.806699388e-04,-5.446637158e-04,-3.127658874e-04,1.442829758e-04,-1.684829117e-04,-6.474854257e-04,1.338851838e-04,-5.136002420e-04,-3.177167015e-04,1.360632422e-04,-1.816534592e-04,-1.776100268e-03,1.519915383e-04,-1.624108729e-03,-2.106475334e-03,1.039249591e-04,-2.002550375e-03,-9.343889793e-04,4.684525285e-06,-9.297044540e-04,-1.404284464e-03,7.287325534e-05,-1.331411208e-03,-5.798325029e-04,3.018349310e-05,-5.496490098e-04,-1.841906411e-03,1.347773261e-04,-1.707129085e-03,-1.384551043e-03,9.385072651e-05,-1.290700316e-03,-2.939140105e-03,3.204480368e-04,-2.618692069e-03,-2.373691072e-03,1.734710278e-04,-2.200220044e-03,-3.188197179e-03,5.821145695e-05,-3.129985722e-03,-2.960801992e-03,-6.580761195e-06,-2.967382754e-03,-3.276194666e-03,-4.037743153e-05,-3.316572098e-03,-3.209546728e-03,-1.486179179e-04,-3.358164646e-03,-9.594065143e-04,2.060083420e-04,-7.533981723e-04,-5.910747866e-04,2.447488124e-04,-3.463259742e-04,-1.588593624e-03,-8.465346411e-05,-1.673247088e-03,-8.764918947e-04,1.939134699e-04,-6.825784248e-04
-8,4.867322337e-04,1.467850377e-04,6.335172713e-04,-2.537518790e-04,7.707194013e-05,-1.766799389e-04,-4.586125533e-04,7.377203306e-05,-3.848405203e-04,-6.617051265e-04,9.774855753e-05,-5.639565689e-04,-9.606611939e-04,2.408400633e-04,-7.198211306e-04,-3.107906661e-04,1.367890112e-04,-1.740016549e-04,-5.937314116e-04,2.037801524e-04,-3.899512592e-04,-1.902570545e-03,3.551245025e-04,-1.547446043e-03,-3.493572190e-04,2.175342218e-04,-1.318229972e-04,-1.548891871e-03,4.411704676e-04,-1.107721403e-03,-2.062752083e-03,4.760482740e-04,-1.586703810e-03,-9.702462015e-04,1.766201847e-04,-7.936260168e-04,-1.260004978e-03,4.804762817e-04,-7.795286962e-04,-1.247654255e-03,3.245409785e-04,-9.231132765e-04,-1.391255055e-03,3.153546220e-05,-1.359719592e-03,-6.487919850e-04,1.801615641e-04,-4.686304210e-04,-2.356924489e-04,1.497170232e-04,-8.597542568e-05,-5.647677164e-04,1.320449725e-04,-4.327227439e-04,-2.477649982e-04,1.406309966e-04,-1.071340016e-04,-1.673410858e-03,1.418254904e-04,-1.531585367e-03,-2.077559138e-03,1.011759649e-04,-1.976383173e-03,-8.791692948e-04,-1.038991652e-05,-8.895592113e-04,-1.421907680e-03,6.773858867e-05,-1.354169091e-03,-5.844898941e-04,2.989158695e-05,-5.545983071e-04,-1.768228030e-03,1.298149747e-04,-1.638413055e-03,-1.333178755e-03,8.910741200e-05,-1.244071343e-03,-2.806260545e-03,2.799315007e-04,-2.526329044e-03,-2.308856635e-03,1.759233634e-04,-2.132933272e-03,-3.111026874e-03,5.991861569e-05,-3.051108258e-03,-2.886495134e-03,-3.954886932e-06,-2.890450021e-03,-3.160464262e-03,-4.170471003e-05,-3.202168972e-03,-3.110499533e-03,-1.587710315e-04,-3.269270565e-03,-8.890374932e-04,2.147806483e-04,-6.742568449e-04,-4.830872020e-04,2.291237369e-04,-2.539634651e-04,-1.467808679e-03,-9.536119175e-05,-1.563169871e-03,-7.731721247e-04,1.826940217e-04,-5.904781030e-04
-7.9,4.831978729e-04,1.423065086e-04,6.255043814e-04,-2.244104516e-04,7.519190490e-05,-1.492185467e-04,-4.783036233e-04,7.180425168e-05,-4.064993716e-04,-6.611109047e-04,9.698861668e-05,-5.641222880e-04,-9.697963504e-04,2.337188167e-04,-7.360775337e-04,-2.596156281e-04,1.369231451e-04,-1.226924831e-04,-5.684216135e-04,1.952727159e-04,-3.731488976e-04,-1.809342630e-03,3.498903036e-04,-1.459452326e-03,-3.725493352e-04,2.138709026e-04,-1.586784326e-04,-1.484275697e-03,4.289564205e-04,-1.055319276e-03,-2.051485550e-03,4.675491929e-04,-1.583936357e-03,-8.830448758e-04,1.757963182e-04,-7.072485576e-04,-1.148363327e-03,4.500155912e-04,-6.983477357e-04,-1.142971840e-03,3.250820117e-04,-8.178898285e-04,-1.274490763e-03,1.982392894e-05,-1.254666834e-03,-5.703664641e-04,1.797705807e-04,-3.905958834e-04,-1.569579766e-04,1.555370036e-04,-1.420973031e-06,-4.808938528e-04,1.304301369e-04,-3.504637159e-04,-1.762667226e-04,1.451719141e-04,-3.109480852e-05,-1.569566498e-03,1.311838887e-04,-1.438382610e-03,-2.047119454e-03,9.823218622e-05,-1.948887268e-03,-8.250066682e-04,-2.481057375e-05,-8.498172419e-04,-1.438723822e-03,6.253674346e-05,-1.376187078e-03,-5.893174541e-04,2.903959577e-05,-5.602778583e-04,-1.693429962e-03,1.252123872e-04,-1.568217574e-03,-1.280849540e-03,8.354052142e-05,-1.197309019e-03,-2.671637803e-03,2.381606550e-04,-2.433477148e-03,-2.242341527e-03,1.776121097e-04,-2.064729417e-03,-3.032583096e-03,6.136973623e-05,-2.971213360e-03,-2.811165955e-03,-1.866143492e-06,-2.813032098e-03,-3.044070315e-03,-4.273953936e-05,-3.086809854e-03,-3.009184143e-03,-1.696148501e-04,-3.178798994e-03,-8.169981856e-04,2.231565406e-04,-5.938416450e-04,-3.739531467e-04,2.141837904e-04,-1.597693564e-04,-1.342911618e-03,-1.072532911e-04,-1.450164909e-03,-6.684579818e-04,1.723012212e-04,-4.961567606e-04
-7.8,4.776651808e-04,1.378326025e-04,6.154977834e-04,-1.976173301e-04,7.387524698e-05,-1.237420831e-04,-4.983794224e-04,6.974464260e-05,-4.286347798e-04,-6.613771793e-04,9.614787047e-05,-5.652293088e-04,-9.796651834e-04,2.264904857e-04,-7.531746977e-04,-2.097238858e-04,1.369231361e-04,-7.280074961e-05,-5.440120875e-04,1.866482394e-04,-3.573638481e-04,-1.713316125e-03,3.434430773e-04,-1.369873048e-03,-3.967102319e-04,2.099486971e-04,-1.867615348e-04,-1.419321091e-03,4.165286601e-04,-1.002792431e-03,-2.038687471e-03,4.584569685e-04,-1.580230503e-03,-7.957204726e-04,1.757387726e-04,-6.199817000e-04,-1.033645897e-03,4.176775449e-04,-6.159683524e-04,-1.038226874e-03,3.253975412e-04,-7.128293330e-04,-1.156033935e-03,9.160728094e-06,-1.146873207e-03,-4.901765398e-04,1.795150862e-04,-3.106614536e-04,-7.671133449e-05,1.616978061e-04,8.498647162e-05,-3.959231296e-04,1.290252133e-04,-2.668979163e-04,-1.032667688e-04,1.496372039e-04,4.637043503e-05,-1.464708458e-03,1.200671219e-04,-1.344641337e-03,-2.014908573e-03,9.509746720e-05,-1.919811106e-03,-7.718848269e-04,-3.851648701e-05,-8.104013139e-04,-1.454344466e-03,5.729076254e-05,-1.397053704e-03,-5.940944353e-04,2.764238346e-05,-5.664520518e-04,-1.617597202e-03,1.209980152e-04,-1.496599186e-03,-1.227608864e-03,7.722497683e-05,-1.150383887e-03,-2.535689446e-03,1.955310573e-04,-2.340158389e-03,-2.174079804e-03,1.784564517e-04,-1.995623352e-03,-2.952823086e-03,6.255982592e-05,-2.890263261e-03,-2.734769330e-03,-3.702925773e-07,-2.735139623e-03,-2.927074070e-03,-4.347542907e-05,-2.970549499e-03,-2.905853691e-03,-1.809475460e-04,-3.086801237e-03,-7.432467138e-04,2.310582615e-04,-5.121884523e-04,-2.641462234e-04,2.001609486e-04,-6.398527473e-05,-1.214207793e-03,-1.204036495e-04,-1.334611442e-03,-5.626159814e-04,1.628213239e-04,-3.997946575e-04
-7.7,4.702521192e-04,1.333975474e-04,6.036496666e-04,-1.734541936e-04,7.309494699e-05,-1.003592467e-04,-5.185365565e-04,6.759137564e-05,-4.509451808e-04,-6.623348550e-04,9.522980799e-05,-5.671050470e-04,-9.900037783e-04,2.191678268e-04,-7.708359515e-04,-1.612671827e-04,1.368554434e-04,-2.441173932e-05,-5.203640346e-04,1.779126228e-04,-3.424514118e-04,-1.614540446e-03,3.358216771e-04,-1.278718769e-03,-4.215883005e-04,2.057704333e-04,-2.158178672e-04,-1.353964421e-03,4.039365586e-04,-9.500278628e-04,-2.024051532e-03,4.488061120e-04,-1.575245420e-03,-7.083384292e-04,1.763453642e-04,-5.319930651e-04,-9.163172351e-04,3.837286640e-04,-5.325885710e-04,-9.335428798e-04,3.254768517e-04,-6.080660281e-04,-1.036196881e-03,-3.692280890e-07,-1.036566109e-03,-4.083441745e-04,1.794105112e-04,-2.289336634e-04,4.895190949e-06,1.681416667e-04,1.730368576e-04,-3.099189195e-04,1.278151109e-04,-1.821038086e-04,-2.882569126e-05,1.539814191e-04,1.251557279e-04,-1.358947995e-03,1.084698535e-04,-1.250478142e-03,-1.980666229e-03,9.177810672e-05,-1.888888122e-03,-7.197542009e-04,-5.145787820e-05,-7.712120791e-04,-1.468365751e-03,5.202645004e-05,-1.416339301e-03,-5.985903107e-04,2.572032145e-05,-5.728699893e-04,-1.540800128e-03,1.171854786e-04,-1.423614649e-03,-1.173495915e-03,7.024129217e-05,-1.103254623e-03,-2.398780427e-03,1.524504893e-04,-2.246329937e-03,-2.104006942e-03,1.783867972e-04,-1.925620145e-03,-2.871682376e-03,6.348043372e-05,-2.808201942e-03,-2.657232764e-03,4.672714105e-07,-2.656765492e-03,-2.809511964e-03,-4.390817653e-05,-2.853420141e-03,-2.800760035e-03,-1.925590946e-04,-2.993319130e-03,-6.677452948e-04,2.384016601e-04,-4.293436347e-04,-1.541251857e-04,1.872574774e-04,3.313229170e-05,-1.082072290e-03,-1.348259513e-04,-1.216898241e-03,-4.559150653e-04,1.543092558e-04,-3.016058095e-04
-7.6,4.610938335e-04,1.290332947e-04,5.901271282e-04,-1.519789652e-04,7.282500753e-05,-7.915395768e-05,-5.384556921e-04,6.534437263e-05,-4.731113195e-04,-6.637951342e-04,9.423645287e-05,-5.695586813e-04,-1.000521336e-03,2.117631184e-04,-7.887582172e-04,-1.143655935e-04,1.367637096e-04,2.239811606e-05,-4.973185244e-04,1.690734648e-04,-3.282450596e-04,-1.513039303e-03,3.270532449e-04,-1.185986058e-03,-4.469078901e-04,2.013395094e-04,-2.455683807e-04,-1.288116354e-03,3.912252693e-04,-8.968910849e-04,-2.007248762e-03,4.386326724e-04,-1.568616090e-03,-6.209481010e-04,1.774911162e-04,-4.434569849e-04,-7.968810202e-04,3.484803221e-04,-4.484006981e-04,-8.290380061e-04,3.253069586e-04,-5.037310475e-04,-9.152936120e-04,-8.697250325e-06,-9.239908623e-04,-3.249935965e-04,1.794696681e-04,-1.455239284e-04,8.770813862e-05,1.747977434e-04,2.625058820e-04,-2.229501033e-04,1.267856172e-04,-9.616448614e-05,4.697990887e-05,1.581625418e-04,2.051424507e-04,-1.252365913e-03,9.637961973e-05,-1.155986293e-03,-1.944121818e-03,8.828318098e-05,-1.855838637e-03,-6.685375617e-04,-6.359502419e-05,-7.321325859e-04,-1.480372949e-03,4.677209120e-05,-1.433600858e-03,-6.025667941e-04,2.329901584e-05,-5.792677783e-04,-1.463093268e-03,1.137731679e-04,-1.349320100e-03,-1.118544106e-03,6.267459060e-05,-1.055869516e-03,-2.261216647e-03,1.093286876e-04,-2.151887960e-03,-2.032060484e-03,1.773466893e-04,-1.854713795e-03,-2.789073446e-03,6.411750741e-05,-2.724955938e-03,-2.578456845e-03,5.745484515e-07,-2.577882296e-03,-2.691394890e-03,-4.403511692e-05,-2.735430007e-03,-2.694148189e-03,-2.042349101e-04,-2.898383099e-03,-5.904601598e-04,2.450953489e-04,-3.453648109e-04,-4.432570028e-05,1.756393911e-04,1.313136908e-04,-9.469544383e-04,-1.504658291e-04,-1.097420267e-03,-3.486265729e-04,1.467896020e-04,-2.018369710e-04
-7.5,4.503408507e-04,1.247690627e-04,5.751099134e-04,-1.332201533e-04,7.303986600e-05,-6.018028732e-05,-5.578054459e-04,6.300532044e-05,-4.948001254e-04,-6.655511112e-04,9.316826965e-05,-5.723828415e-04,-1.010903658e-03,2.042880976e-04,-8.066155601e-04,-6.910125398e-05,1.366641405e-04,6.756288651e-05,-4.746989519e-04,1.601400145e-04,-3.145589374e-04,-1.408809802e-03,3.171531044e-04,-1.091656697e-03,-4.723727284e-04,1.966599118e-04,-2.757128167e-04,-1.221666083e-03,3.784346601e-04,-8.432314228e-04,-1.987932429e-03,4.279735272e-04,-1.559958901e-03,-5.335841471e-04,1.790347868e-04,-3.545493603e-04,-6.758641367e-04,3.122778467e-04,-3.635862900e-04,-7.248260654e-04,3.248721771e-04,-3.999538883e-04,-7.936384900e-04,-1.576958954e-05,-8.094080795e-04,-2.402536850e-04,1.797030221e-04,-6.055066297e-05,1.715730413e-04,1.815827354e-04,3.531557767e-04,-1.350946019e-04,1.259236698e-04,-9.170932091e-06,1.240559417e-04,1.621417405e-04,2.861976822e-04,-1.145015140e-03,8.377655114e-05,-1.061238589e-03,-1.904999282e-03,8.462475967e-05,-1.820374523e-03,-6.181378749e-04,-7.489730672e-05,-6.930351816e-04,-1.489946353e-03,4.155804996e-05,-1.448388303e-03,-6.057809453e-04,2.040899070e-05,-5.853719546e-04,-1.384515462e-03,1.107443143e-04,-1.273771148e-03,-1.062782956e-03,5.461369099e-05,-1.008169265e-03,-2.123245941e-03,6.656691385e-05,-2.056679027e-03,-1.958181590e-03,1.752942199e-04,-1.782887370e-03,-2.704886704e-03,6.444999908e-05,-2.640436705e-03,-2.498318889e-03,-1.233968968e-07,-2.498442285e-03,-2.572708796e-03,-4.385487681e-05,-2.616563672e-03,-2.586253976e-03,-2.157573444e-04,-2.802011321e-03,-5.113634212e-04,2.510417004e-04,-2.603217208e-04,6.484429552e-05,1.654313176e-04,2.302756131e-04,-8.093793398e-04,-1.671997552e-04,-9.765790950e-04,-2.410273327e-04,1.402586949e-04,-1.007686378e-04
-7.4,4.381561204e-04,1.206307414e-04,5.587868618e-04,-1.171712993e-04,7.371264887e-05,-4.345865039e-05,-5.762473784e-04,6.057751205e-05,-5.156698664e-04,-6.673805926e-04,9.202405040e-05,-5.753565422e-04,-1.020818001e-03,1.967539158e-04,-8.240640849e-04,-2.551357232e-05,1.365423362e-04,1.110287639e-04,-4.523150769e-04,1.511230378e-04,-3.011920391e-04,-1.301826269e-03,3.061259960e-04,-9.957002734e-04,-4.976702885e-04,1.917362568e-04,-3.059340316e-04,-1.154487205e-03,3.655983326e-04,-7.888888725e-04,-1.965744764e-03,4.168655855e-04,-1.548879178e-03,-4.462690974e-04,1.808245538e-04,-2.654445436e-04,-5.538045174e-04,2.754890578e-04,-2.783154596e-04,-6.210195017e-04,3.241538924e-04,-2.968656093e-04,-6.715471591e-04,-2.154705762e-05,-6.930942167e-04,-1.542626646e-04,1.801188760e-04,2.585621147e-05,2.563319339e-04,1.884022281e-04,4.447341620e-04,-4.644547901e-05,1.252176542e-04,7.877217521e-05,2.022877623e-04,1.658828839e-04,3.681706462e-04,-1.036926229e-03,7.063490567e-05,-9.662913230e-04,-1.863024326e-03,8.081800294e-05,-1.782206324e-03,-5.684476503e-04,-8.534203167e-05,-6.537896819e-04,-1.496668135e-03,3.641625486e-05,-1.460251880e-03,-6.079892672e-04,1.708532581e-05,-5.909039414e-04,-1.305091587e-03,1.080673309e-04,-1.197024256e-03,-1.006241358e-03,4.615025953e-05,-9.600910984e-04,-1.985063746e-03,2.454819079e-05,-1.960515555e-03,-1.882317661e-03,1.722030382e-04,-1.710114622e-03,-2.618993713e-03,6.444952865e-05,-2.554544184e-03,-2.416679379e-03,-1.700627481e-06,-2.418380006e-03,-2.453416423e-03,-4.336767153e-05,-2.496784094e-03,-2.477304462e-03,-2.269057623e-04,-2.704210224e-03,-4.304378614e-04,2.561401132e-04,-1.742977482e-04,1.730052947e-04,1.567127487e-04,3.297180435e-04,-6.699442027e-04,-1.848412058e-04,-8.547854085e-04,-1.334050771e-04,1.346872140e-04,1.282136897e-06
-7.3,4.247111132e-04,1.166402047e-04,5.413513179e-04,-1.037865663e-04,7.481286762e-05,-2.897369872e-05,-5.934416097e-04,5.806562397e-05,-5.353759858e-04,-6.690499603e-04,9.080082532e-05,-5.782491350e-04,-1.029918792e-03,1.891711118e-04,-8.407476801e-04,1.640254417e-05,1.363525199e-04,1.527550640e-04,-4.299682157e-04,1.420346245e-04,-2.879335912e-04,-1.192047936e-03,2.939679973e-04,-8.980799389e-04,-5.224765692e-04,1.865738796e-04,-3.359026896e-04,-1.086444250e-03,3.527428913e-04,-7.337013588e-04,-1.940324452e-03,4.053450304e-04,-1.534979422e-03,-3.590173219e-04,1.827022890e-04,-1.763150329e-04,-4.312421741e-04,2.384926965e-04,-1.927494776e-04,-5.177328540e-04,3.231309513e-04,-1.946019026e-04,-5.493378972e-04,-2.600543613e-05,-5.753433333e-04,-6.717357696e-05,1.807232577e-04,1.135496808e-04,3.418186521e-04,1.951525738e-04,5.369712260e-04,4.288169104e-05,1.246577079e-04,1.675393990e-04,2.815359388e-04,1.693519923e-04,4.508879310e-04,-9.281150053e-04,5.692640066e-05,-8.711886046e-04,-1.817932427e-03,7.688114632e-05,-1.741051281e-03,-5.193578947e-04,-9.491313805e-05,-6.142710328e-04,-1.500129407e-03,3.137963396e-05,-1.468749773e-03,-6.089520009e-04,1.336715510e-05,-5.955848458e-04,-1.224835203e-03,1.056960506e-04,-1.119139153e-03,-9.489514859e-04,3.737812653e-05,-9.115733594e-04,-1.846820596e-03,-1.637066184e-05,-1.863191258e-03,-1.804425118e-03,1.680628388e-04,-1.636362279e-03,-2.531251818e-03,6.408137538e-05,-2.467170442e-03,-2.333389933e-03,-4.226509520e-06,-2.337616442e-03,-2.333459835e-03,-4.257592972e-05,-2.376035764e-03,-2.367519050e-03,-2.374567182e-04,-2.604975768e-03,-3.476839776e-04,2.602919895e-04,-8.739198810e-05,2.798037207e-04,1.495161781e-04,4.293198988e-04,-5.293099058e-04,-2.031509914e-04,-7.324608972e-04,-2.606422653e-05,1.300232068e-04,1.039589803e-04
-7.2,4.101816277e-04,1.128146659e-04,5.229962936e-04,-9.297823535e-05,7.630441092e-05,-1.667382444e-05,-6.090523205e-04,5.547554476e-05,-5.535767757e-04,-6.703184909e-04,8.949385106e-05,-5.808246399e-04,-1.037853407e-03,1.815496064e-04,-8.563038005e-04,5.669506671e-05,1.360196153e-04,1.927146820e-04,-4.074566706e-04,1.328879882e-04,-2.745686824e-04,-1.079429656e-03,2.806695414e-04,-7.987601148e-04,-5.464606301e-04,1.811789243e-04,-3.652817058e-04,-1.017398640e-03,3.398876102e-04,-6.775110303e-04,-1.911313527e-03,3.934466760e-04,-1.517866851e-03,-2.718397099e-04,1.845062225e-04,-8.733348745e-05,-3.087119939e-04,2.016676151e-04,-1.070443789e-04,-4.150849512e-04,3.217807002e-04,-9.330425098e-05,-4.273317179e-04,-2.913588165e-05,-4.564675995e-04,2.084104819e-05,1.815195673e-04,2.023606154e-04,4.278530368e-04,2.017232966e-04,6.295763334e-04,1.327425883e-04,1.242358768e-04,2.569784650e-04,3.616320531e-04,1.725168896e-04,5.341489427e-04,-8.185916778e-04,4.262537086e-05,-7.759663069e-04,-1.769475570e-03,7.283539025e-05,-1.696640179e-03,-4.707644282e-04,-1.036003208e-04,-5.743647490e-04,-1.499936603e-03,2.648161361e-05,-1.473454989e-03,-6.084366093e-04,9.296941104e-06,-5.991396682e-04,-1.143751342e-03,1.035699979e-04,-1.040181344e-03,-8.909520058e-04,2.839270247e-05,-8.625593033e-04,-1.708629318e-03,-5.586491879e-05,-1.764494237e-03,-1.724471135e-03,1.628791766e-04,-1.561591958e-03,-2.441508602e-03,6.330660258e-05,-2.378201999e-03,-2.248300844e-03,-7.761758934e-06,-2.256062603e-03,-2.212762880e-03,-4.148509723e-05,-2.254247977e-03,-2.257109431e-03,-2.471852045e-04,-2.504294635e-03,-2.631271989e-04,2.634060238e-04,2.788248698e-07,3.849077643e-04,1.438275906e-04,5.287353549e-04,-3.881892720e-04,-2.218486217e-04,-6.100378937e-04,8.067014197e-05,1.261955035e-04,2.068656454e-04
-7.1,3.947441472e-04,1.091661800e-04,5.039103272e-04,-8.461639019e-05,7.814452943e-05,-6.471860752e-06,-6.227525664e-04,5.281425650e-05,-5.699383099e-04,-6.709424173e-04,8.809669660e-05,-5.828457207e-04,-1.044267374e-03,1.738986919e-04,-8.703686826e-04,9.545027309e-05,1.354441927e-04,2.308944658e-04,-3.845805558e-04,1.236973710e-04,-2.608831848e-04,-9.639344753e-04,2.662201134e-04,-6.977143619e-04,-5.692885414e-04,1.755583733e-04,-3.937301681e-04,-9.472133899e-04,3.270444900e-04,-6.201688999e-04,-1.878362979e-03,3.812034536e-04,-1.497159525e-03,-1.847480834e-04,1.860721236e-04,1.324040167e-06,-1.867372757e-04,1.653831425e-04,-2.135413318e-05,-3.131992635e-04,3.200802946e-04,6.881031039e-06,-3.058509446e-04,-3.094443144e-05,-3.367953760e-04,1.095862421e-04,1.825081128e-04,2.920943549e-04,5.142354381e-04,2.079999493e-04,7.222353874e-04,2.229610870e-04,1.239459989e-04,3.469070859e-04,4.423759300e-04,1.753470832e-04,6.177230132e-04,-7.083705530e-04,2.771522203e-05,-6.806553309e-04,-1.717426747e-03,6.870468229e-05,-1.648722065e-03,-4.225705203e-04,-1.113988642e-04,-5.339693845e-04,-1.495716916e-03,2.175574126e-05,-1.473961174e-03,-6.062202820e-04,4.919649190e-06,-6.013006328e-04,-1.061838993e-03,1.016153630e-04,-9.602236297e-04,-8.322893538e-04,1.929013981e-05,-8.129992140e-04,-1.570570128e-03,-9.364632411e-05,-1.664216452e-03,-1.642433751e-03,1.566728296e-04,-1.485760921e-03,-2.349604973e-03,6.208447253e-05,-2.287520500e-03,-2.161266686e-03,-1.235446589e-05,-2.173621152e-03,-2.091232625e-03,-4.010475530e-05,-2.131337380e-03,-2.146277739e-03,-2.558672422e-04,-2.402144981e-03,-1.768233068e-04,2.654025020e-04,8.857919516e-05,4.880027597e-04,1.395892763e-04,6.275920360e-04,-2.473320811e-04,-2.406247564e-04,-4.879568375e-04,1.864510618e-04,1.231171121e-04,3.095681739e-04
-7,3.785730348e-04,1.057012992e-04,4.842743341e-04,-7.853066486e-05,8.028385144e-05,1.753186583e-06,-6.342284897e-04,5.008965373e-05,-5.841388359e-04,-6.706784717e-04,8.660139830e-05,-5.840770734e-04,-1.048809024e-03,1.662269671e-04,-8.825820571e-04,1.327849268e-04,1.345101185e-04,2.672950453e-04,-3.611459131e-04,1.144781223e-04,-2.466677908e-04,-8.455462553e-04,2.506140878e-04,-5.949321675e-04,-5.906271038e-04,1.697200118e-04,-4.209070920e-04,-8.757570801e-04,3.142185518e-04,-5.615385283e-04,-1.841137828e-03,3.686459921e-04,-1.472491836e-03,-9.775956624e-05,1.872337570e-04,8.947419080e-05,-6.582449737e-05,1.299904892e-04,6.416599184e-05,-2.122036134e-04,3.180077158e-04,1.058041025e-04,-1.852176945e-04,-3.145041445e-05,-2.166681089e-04,1.988430828e-04,1.836855169e-04,3.825285997e-04,6.007422568e-04,2.138671628e-04,8.146094196e-04,3.133293590e-04,1.237831428e-04,4.371125018e-04,5.235348026e-04,1.778135804e-04,7.013483830e-04,-5.974797519e-04,1.219461011e-05,-5.852851418e-04,-1.661583270e-03,6.451533138e-05,-1.597067938e-03,-3.746870495e-04,-1.183099272e-04,-4.929969767e-04,-1.487123359e-03,1.723535473e-05,-1.469888004e-03,-6.020924375e-04,2.821084434e-07,-6.018103291e-04,-9.790934651e-04,9.974708462e-05,-8.793463805e-04,-7.730168396e-04,1.016577593e-05,-7.628510637e-04,-1.432693062e-03,-1.294664500e-04,-1.562159512e-03,-1.558301011e-03,1.494790067e-04,-1.408822004e-03,-2.255377562e-03,6.037445412e-05,-2.195003108e-03,-2.072150176e-03,-1.803649633e-05,-2.090186672e-03,-1.968759872e-03,-3.845002640e-05,-2.007209899e-03,-2.035212977e-03,-2.632842135e-04,-2.298497191e-03,-8.886171299e-05,2.662162309e-04,1.773545180e-04,5.887857458e-04,1.367046445e-04,7.254903903e-04,-1.075067414e-04,-2.591560648e-04,-3.666628062e-04,2.909099601e-04,1.206880523e-04,4.115980124e-04
-6.9,3.618380023e-04,1.024208074e-04,4.642588096e-04,-7.451391172e-05,8.266684086e-05,8.152929142e-06,-6.431836002e-04,4.731024157e-05,-5.958733586e-04,-6.692873615e-04,8.499867377e-05,-5.842886878e-04,-1.051134149e-03,1.585421959e-04,-8.925919535e-04,1.688346675e-04,1.330941431e-04,3.019288107e-04,-3.369686780e-04,1.052468743e-04,-2.317218037e-04,-7.242816135e-04,2.338569332e-04,-4.904246803e-04,-6.101480021e-04,1.636723823e-04,-4.464756198e-04,-8.029083786e-04,3.014082489e-04,-5.015001297e-04,-1.799323021e-03,3.558022518e-04,-1.443520769e-03,-1.090189277e-05,1.878235419e-04,1.769216492e-04,5.353856276e-05,9.581568362e-05,1.493542464e-04,-1.122308874e-04,3.155420986e-04,2.033112112e-04,-6.575413839e-05,-3.068435355e-05,-9.643849194e-05,2.883673165e-04,1.850439577e-04,4.734112743e-04,6.871221023e-04,2.192116026e-04,9.063337049e-04,4.036090218e-04,1.237424813e-04,5.273515031e-04,6.048435434e-04,1.798883752e-04,7.847319186e-04,-4.859714471e-04,-3.917830690e-06,-4.898892778e-04,-1.601770625e-03,6.029537298e-05,-1.541475252e-03,-3.270324566e-04,-1.243409070e-04,-4.513733636e-04,-1.473840198e-03,1.295316118e-05,-1.460887037e-03,-5.958582196e-04,-4.567269646e-06,-6.004254893e-04,-8.955091852e-04,9.787177293e-05,-7.976374122e-04,-7.131927064e-04,1.111780083e-06,-7.120809263e-04,-1.295019607e-03,-1.631189675e-04,-1.458138574e-03,-1.472070526e-03,1.413463493e-04,-1.330724176e-03,-2.158662183e-03,5.813788722e-05,-2.100524295e-03,-1.980825576e-03,-2.482069974e-05,-2.005646275e-03,-1.845220098e-03,-3.654277808e-05,-1.881762876e-03,-1.924085851e-03,-2.692292725e-04,-2.193315124e-03,6.322591853e-07,2.657984413e-04,2.664307005e-04,6.869583627e-04,1.350443216e-04,8.220026844e-04,3.051884847e-05,-2.771215030e-04,-2.466026545e-04,3.936567518e-04,1.187973156e-04,5.124540674e-04
-6.8,3.447010819e-04,9.931950837e-05,4.440205903e-04,-7.232791109e-05,8.523224166e-05,1.290433057e-05,-6.493436893e-04,4.448480744e-05,-6.048588818e-04,-6.665377868e-04,8.327823666e-05,-5.832595502e-04,-1.050911182e-03,1.508511265e-04,-9.000600554e-04,2.037397637e-04,1.310757681e-04,3.348155318e-04,-3.118790413e-04,9.602167230e-05,-2.158573690e-04,-6.002013620e-04,2.159715048e-04,-3.842298572e-04,-6.275326993e-04,1.574247628e-04,-4.701079366e-04,-7.285617164e-04,2.886059201e-04,-4.399557963e-04,-1.752630775e-03,3.426971941e-04,-1.409933581e-03,7.577992053e-05,1.876740871e-04,2.634540076e-04,1.708801944e-04,6.315487957e-05,2.340350740e-04,-1.342136708e-05,3.126633889e-04,2.992420218e-04,5.221521154e-05,-2.868653037e-05,2.352868117e-05,3.778870164e-04,1.865702994e-04,5.644573158e-04,7.730918897e-04,2.239246942e-04,9.970165839e-04,4.935311381e-04,1.238178104e-04,6.173489485e-04,6.860046632e-04,1.815436608e-04,8.675483240e-04,-3.739335029e-04,-2.058013988e-05,-3.945136428e-04,-1.537847511e-03,5.607367431e-05,-1.481773837e-03,-2.795336225e-04,-1.295059306e-04,-4.090395530e-04,-1.455588789e-03,8.940655512e-06,-1.446648133e-03,-5.873430304e-04,-9.578455240e-06,-5.969214857e-04,-8.110832322e-04,9.589097959e-05,-7.151922527e-04,-6.528788292e-04,-7.785424482e-06,-6.606642536e-04,-1.157546924e-03,-1.944401289e-04,-1.351987053e-03,-1.383750759e-03,1.323356066e-04,-1.251415153e-03,-2.059299192e-03,5.533975170e-05,-2.003959440e-03,-1.887182393e-03,-3.269905833e-05,-1.919881452e-03,-1.720475842e-03,-3.441217383e-05,-1.754888016e-03,-1.813042254e-03,-2.735154220e-04,-2.086557676e-03,9.149482259e-05,2.641179623e-04,3.556127849e-04,7.822187469e-04,1.344522057e-04,9.166709527e-04,1.659932130e-04,-2.942168616e-04,-1.282236486e-04,4.942793906e-04,1.173240668e-04,6.116034573e-04
-6.7,3.273128607e-04,9.638616360e-05,4.236990243e-04,-7.171122977e-05,8.791374293e-05,1.620251316e-05,-6.524623049e-04,4.162218266e-05,-6.108401223e-04,-6.622111127e-04,8.142922413e-05,-5.807818886e-04,-1.047826858e-03,1.431593265e-04,-9.046675314e-04,2.376308602e-04,1.283456823e-04,3.659765424e-04,-2.857262516e-04,8.682200641e-05,-1.989042452e-04,-4.734206732e-04,1.970035656e-04,-2.764171077e-04,-6.424777873e-04,1.509871591e-04,-4.914906282e-04,-6.526335693e-04,2.757981478e-04,-3.768354215e-04,-1.700808731e-03,3.293525030e-04,-1.371456228e-03,1.622160723e-04,1.866210315e-04,3.488371038e-04,2.857397846e-04,3.227149531e-05,3.180112799e-04,8.407396848e-05,3.093516837e-04,3.934256522e-04,1.683608996e-04,-2.550734970e-05,1.428535499e-04,4.670993459e-04,1.882451891e-04,6.553445350e-04,8.583329075e-04,2.279051072e-04,1.086238015e-03,5.827945937e-04,1.240001127e-04,7.067947064e-04,7.666875478e-04,1.827510801e-04,9.494386280e-04,-2.615012303e-04,-3.772493075e-05,-2.992261610e-04,-1.469711301e-03,5.187892588e-05,-1.417832375e-03,-2.321272883e-04,-1.338266045e-04,-3.659538929e-04,-1.432133206e-03,5.227421033e-06,-1.426905785e-03,-5.763974069e-04,-1.469950732e-05,-5.910969142e-04,-7.258194548e-04,9.370463824e-05,-6.321148166e-04,-5.921409439e-04,-1.644722199e-05,-6.085881658e-04,-1.020256965e-03,-2.233063815e-04,-1.243563347e-03,-1.293364398e-03,1.225180995e-04,-1.170846298e-03,-1.957140032e-03,5.195074518e-05,-1.905189287e-03,-1.791129237e-03,-4.164151488e-05,-1.832770752e-03,-1.594380676e-03,-3.209453090e-05,-1.626475207e-03,-1.702196074e-03,-2.759840618e-04,-1.978180136e-03,1.835205951e-04,2.611616049e-04,4.446822000e-04,8.742543630e-04,1.347503121e-04,1.009004675e-03,2.981919233e-04,-3.101648143e-04,-1.197289104e-05,5.923436975e-04,1.161386921e-04,7.084823896e-04
-6.6,3.098084449e-04,9.360364757e-05,4.034120925e-04,-7.238852179e-05,9.064121015e-05,1.825268836e-05,-6.523260893e-04,3.873109683e-05,-6.135949925e-04,-6.561061611e-04,7.944066266e-05,-5.766654984e-04,-1.041591843e-03,1.354710541e-04,-9.061207885e-04,2.706169498e-04,1.248121898e-04,3.954291396e-04,-2.583832730e-04,7.766874777e-05,-1.807145252e-04,-3.441162359e-04,1.770253054e-04,-1.670909305e-04,-6.547000833e-04,1.443702967e-04,-5.103297866e-04,-5.750681006e-04,2.629659590e-04,-3.121021416e-04,-1.643647515e-03,3.157864318e-04,-1.327861084e-03,2.483053563e-04,1.845070432e-04,4.328123994e-04,3.976644667e-04,3.393526608e-06,4.010579933e-04,1.800908256e-04,3.055867010e-04,4.856775266e-04,2.823477829e-04,-2.120928203e-05,2.611385009e-04,5.556676378e-04,1.900422214e-04,7.457098592e-04,9.424877262e-04,2.310609230e-04,1.173548649e-03,6.710642032e-04,1.242764145e-04,7.953406177e-04,8.465274162e-04,1.834813174e-04,1.030008734e-03,-1.488654941e-04,-5.525892720e-05,-2.041244213e-04,-1.397302330e-03,4.773872399e-05,-1.349563606e-03,-1.847613378e-04,-1.373326415e-04,-3.220939793e-04,-1.403284844e-03,1.840442698e-06,-1.401444402e-03,-5.629012769e-04,-1.987603515e-05,-5.827773120e-04,-6.397328141e-04,9.121473644e-05,-5.485180776e-04,-5.310498949e-04,-2.480398358e-05,-5.558538785e-04,-8.831296491e-04,-2.496288904e-04,-1.132758540e-03,-1.200952708e-03,1.119741280e-04,-1.088978580e-03,-1.852053106e-03,4.794939005e-05,-1.804103716e-03,-1.692597198e-03,-5.159504315e-05,-1.744192241e-03,-1.466784089e-03,-2.963251723e-05,-1.496416606e-03,-1.591622279e-03,-2.765123260e-04,-1.868134605e-03,2.764597909e-04,2.569336517e-04,5.333934426e-04,9.627376716e-04,1.357422370e-04,1.098479909e-03,4.264238610e-04,-3.247192570e-04,1.017046040e-04,6.873949383e-04,1.151044722e-04,8.024994105e-04
-6.5,2.923041371e-04,9.094924519e-05,3.832533823e-04,-7.407934573e-05,9.334201552e-05,1.926266979e-05,-6.487589225e-04,3.582005570e-05,-6.129388667e-04,-6.480431791e-04,7.730186865e-05,-5.707413105e-04,-1.031945479e-03,1.277891551e-04,-9.041563237e-04,3.027769495e-04,1.204060302e-04,4.231829797e-04,-2.297502266e-04,6.858393225e-05,-1.611662944e-04,-2.125292664e-04,1.561369325e-04,-5.639233389e-05,-6.639407011e-04,1.375855995e-04,-5.263551016e-04,-4.958409267e-04,2.500849762e-04,-2.457559506e-04,-1.580986209e-03,3.020138660e-04,-1.278972343e-03,3.339117378e-04,1.811863099e-04,5.150980477e-04,5.062101942e-04,-2.328976623e-05,4.829204279e-04,2.744513857e-04,3.013477805e-04,5.757991662e-04,3.938375031e-04,-1.586869683e-05,3.779688063e-04,6.432206429e-04,1.919272891e-04,8.351479320e-04,1.025159337e-03,2.333112708e-04,1.258470608e-03,7.579709060e-04,1.246289806e-04,8.825998866e-04,9.251252127e-04,1.837041418e-04,1.108829355e-03,-3.627427024e-05,-7.306412470e-05,-1.093383949e-04,-1.320605244e-03,4.367876736e-05,-1.276926476e-03,-1.373955659e-04,-1.400616783e-04,-2.774572442e-04,-1.368905302e-03,-1.196442292e-06,-1.370101744e-03,-5.467666769e-04,-2.505056645e-05,-5.718172434e-04,-5.528533334e-04,8.832911644e-05,-4.645242169e-04,-4.696823916e-04,-3.279539662e-05,-5.024777883e-04,-7.461556651e-04,-2.733470323e-04,-1.019502697e-03,-1.106578517e-03,1.007913051e-04,-1.005787212e-03,-1.743927059e-03,4.332373105e-05,-1.700603328e-03,-1.591541997e-03,-6.248266391e-05,-1.654024661e-03,-1.337536338e-03,-2.707359609e-05,-1.364609934e-03,-1.481351127e-03,-2.750175483e-04,-1.756368675e-03,3.700173714e-04,2.514545782e-04,6.214719496e-04,1.047326096e-03,1.372157560e-04,1.184541852e-03,5.500356685e-04,-3.376645041e-04,2.123711644e-04,7.789629037e-04,1.140803044e-04,8.930432081e-04
-6.4,2.748956466e-04,8.839501726e-05,3.632906638e-04,-7.650441815e-05,9.594144744e-05,1.943702929e-05,-6.416241043e-04,3.289719617e-05,-6.087269082e-04,-6.378662323e-04,7.500275463e-05,-5.628634777e-04,-1.018659008e-03,1.201149761e-04,-8.985440320e-04,3.341559965e-04,1.150837129e-04,4.492397094e-04,-1.997558134e-04,5.959034962e-05,-1.401654638e-04,-7.896478873e-05,1.344673388e-04,5.550255004e-05,-6.699678658e-04,1.306451201e-04,-5.393227457e-04,-4.149605502e-04,2.371256811e-04,-1.778348691e-04,-1.512715179e-03,2.880465968e-04,-1.224668583e-03,4.188649246e-04,1.765290740e-04,5.953939986e-04,6.109475507e-04,-4.763101342e-05,5.633165373e-04,3.669665884e-04,2.966145696e-04,6.635811580e-04,5.024939839e-04,-9.576124482e-06,4.929178594e-04,7.293553336e-04,1.938581252e-04,9.232134588e-04,1.105913541e-03,2.345872971e-04,1.340500838e-03,8.431159026e-04,1.250347407e-04,9.681506433e-04,1.002049667e-03,1.833888344e-04,1.185438502e-03,7.597148001e-05,-9.099963793e-05,-1.502815792e-05,-1.239646987e-03,3.972200390e-05,-1.199924983e-03,-9.000180079e-05,-1.420581243e-04,-2.320599251e-04,-1.328907537e-03,-3.862949748e-06,-1.332770487e-03,-5.279386850e-04,-3.016217128e-05,-5.581008563e-04,-4.652288612e-04,8.496507327e-05,-3.802637879e-04,-4.081198647e-04,-4.037029202e-05,-4.484901567e-04,-6.093441700e-04,-2.944241611e-04,-9.037683310e-04,-1.010325831e-03,8.906275511e-05,-9.212630763e-04,-1.632671045e-03,3.807244214e-05,-1.594598603e-03,-1.487944614e-03,-7.420255868e-05,-1.562147172e-03,-1.206492625e-03,-2.446774758e-05,-1.230960372e-03,-1.371364564e-03,-2.714579298e-04,-1.642822494e-03,4.638552473e-04,2.447592464e-04,7.086144936e-04,1.127666592e-03,1.389452557e-04,1.266611848e-03,6.684166441e-04,-3.488114929e-04,3.196051512e-04,8.665709688e-04,1.129242633e-04,9.794952321e-04
-6.3,2.576577509e-04,8.590827417e-05,3.435660251e-04,-7.938895617e-05,9.836189846e-05,1.897294229e-05,-6.308248205e-04,2.997010925e-05,-6.008547113e-04,-6.254441463e-04,7.253411368e-05,-5.529100326e-04,-1.001537437e-03,1.124483098e-04,-8.890891276e-04,3.647664899e-04,1.088290025e-04,4.735954924e-04,-1.683570456e-04,5.071101929e-05,-1.176460263e-04,5.621124640e-05,1.121737190e-04,1.683849654e-04,-6.725790168e-04,1.235613691e-04,-5.490176477e-04,-3.324682553e-04,2.240539043e-04,-1.084143511e-04,-1.438777302e-03,2.738936624e-04,-1.164883640e-03,5.029628818e-04,1.704262839e-04,6.733891657e-04,7.114699902e-04,-6.952626120e-05,6.419437290e-04,4.574391152e-04,2.913681162e-04,7.488072315e-04,6.079897889e-04,-2.434844557e-06,6.055549443e-04,8.136428185e-04,1.957838698e-04,1.009426688e-03,1.184284234e-03,2.348325112e-04,1.419116745e-03,9.260781704e-04,1.254647789e-04,1.051542949e-03,1.076841649e-03,1.825048300e-04,1.259346479e-03,1.875241281e-04,-1.089030418e-04,7.862108639e-05,-1.154493196e-03,3.588769701e-05,-1.118605499e-03,-4.256369157e-05,-1.433716777e-04,-1.859353693e-04,-1.283256055e-03,-6.142708783e-06,-1.289398764e-03,-5.063952269e-04,-3.514667893e-05,-5.415419059e-04,-3.769265708e-04,8.105257780e-05,-2.958739930e-04,-3.464453658e-04,-4.748650644e-05,-3.939318722e-04,-4.727248293e-04,-3.128469205e-04,-7.855717498e-04,-9.122965676e-04,7.688525956e-05,-8.354113080e-04,-1.518213444e-03,3.220528103e-05,-1.486008163e-03,-1.381810963e-03,-8.662784853e-05,-1.468438812e-03,-1.073516945e-03,-2.186472129e-05,-1.095381666e-03,-1.261596157e-03,-2.658295315e-04,-1.527425688e-03,5.575968805e-04,2.368948344e-04,7.944917150e-04,1.203402858e-03,1.406949221e-04,1.344097781e-03,7.810043710e-04,-3.579933073e-04,4.230110637e-04,9.497469980e-04,1.114974195e-04,1.061244417e-03
-6.2,2.406445760e-04,8.345217133e-05,3.240967473e-04,-8.246496249e-05,1.005218331e-04,1.805687057e-05,-6.163040089e-04,2.704563087e-05,-5.892583780e-04,-6.106709007e-04,6.988794541e-05,-5.407829553e-04,-9.804209579e-04,1.047873925e-04,-8.756335654e-04,3.945920211e-04,1.016526331e-04,4.962446542e-04,-1.355384978e-04,4.196866907e-05,-9.356982877e-05,1.925752447e-04,8.943902793e-05,2.820142726e-04,-6.716029714e-04,1.163470398e-04,-5.552559316e-04,-2.484379147e-04,2.108315911e-04,-3.760632363e-05,-1.359169202e-03,2.595615921e-04,-1.099607610e-03,5.859729566e-04,1.627945343e-04,7.487674909e-04,8.074010860e-04,-8.891402987e-05,7.184870561e-04,5.456652386e-04,2.855918369e-04,8.312570755e-04,7.100103934e-04,5.441371587e-06,7.154517649e-04,8.956352090e-04,1.976445779e-04,1.093279787e-03,1.259780048e-03,2.340026504e-04,1.493782698e-03,1.006422446e-03,1.258838823e-04,1.132306328e-03,1.149019584e-03,1.810224236e-04,1.330042008e-03,2.979950691e-04,-1.265907147e-04,1.714043544e-04,-1.065245490e-03,3.219066491e-05,-1.033054825e-03,4.923096693e-06,-1.440562717e-04,-1.391331750e-04,-1.231966982e-03,-8.023655047e-06,-1.239990637e-03,-4.821465896e-04,-3.993760737e-05,-5.220841970e-04,-2.880340747e-04,7.653727781e-05,-2.114967969e-04,-2.847399599e-04,-5.411111328e-05,-3.388510732e-04,-3.363479300e-04,-3.286260386e-04,-6.649739686e-04,-8.126068290e-04,6.435745656e-05,-7.482493725e-04,-1.400501031e-03,2.574284185e-05,-1.374758189e-03,-1.273171661e-03,-9.960740251e-05,-1.372779063e-03,-9.384861822e-04,-1.931118978e-05,-9.577973720e-04,-1.151935141e-03,-2.581605862e-04,-1.410095727e-03,6.508324197e-04,2.279187983e-04,8.787512179e-04,1.274181760e-03,1.422235815e-04,1.416405342e-03,8.872894878e-04,-3.650611236e-04,5.222283641e-04,1.028032544e-03,1.096678132e-04,1.137700357e-03
-6.1,2.238897630e-04,8.098635009e-05,3.048761131e-04,-8.547462638e-05,1.023358415e-04,1.686121511e-05,-5.980445911e-04,2.412960536e-05,-5.739149857e-04,-5.934662767e-04,6.705780045e-05,-5.264084763e-04,-9.551867249e-04,9.712894705e-05,-8.580577778e-04,4.235922989e-04,9.359071855e-05,5.171830174e-04,-1.013121037e-04,3.338529032e-05,-6.792681341e-05,3.296479437e-04,6.646755992e-05,3.961155037e-04,-6.669024922e-04,1.090147031e-04,-5.578877891e-04,-1.629767411e-04,1.974179020e-04,3.444116085e-05,-1.273943350e-03,2.450545223e-04,-1.028888828e-03,6.676299104e-04,1.535810230e-04,8.212109334e-04,8.983990911e-04,-1.057725227e-04,7.926265684e-04,6.314350998e-04,2.792719683e-04,9.107070680e-04,8.082550325e-04,1.393041726e-05,8.221854497e-04,9.748714600e-04,1.993708455e-04,1.174242305e-03,1.331890720e-03,2.320653207e-04,1.563956041e-03,1.083705000e-03,1.262502984e-04,1.209955299e-03,1.218084520e-03,1.789134855e-04,1.396998006e-03,4.069590672e-04,-1.438575757e-04,2.631014915e-04,-9.720408688e-04,2.864095121e-05,-9.433999176e-04,5.244966784e-05,-1.441695672e-04,-9.171989940e-05,-1.175108330e-03,-9.498448888e-06,-1.184606779e-03,-4.552349954e-04,-4.446763993e-05,-4.997026354e-04,-1.986607852e-04,7.138319985e-05,-1.272775854e-04,-2.230802420e-04,-6.022095298e-05,-2.833011950e-04,-2.002864280e-04,-3.417956631e-04,-5.420820911e-04,-7.113846183e-04,5.157807098e-05,-6.598065473e-04,-1.279499890e-03,1.871587971e-05,-1.260784010e-03,-1.162082408e-03,-1.129675680e-04,-1.275049976e-03,-8.012945032e-04,-1.684814733e-05,-8.181426506e-04,-1.042233570e-03,-2.485045533e-04,-1.290738123e-03,7.431230882e-04,2.178969674e-04,9.610200556e-04,1.339656595e-03,1.432912703e-04,1.482947866e-03,9.868181395e-04,-3.698804493e-04,6.169376902e-04,1.100987875e-03,1.073151996e-04,1.208303074e-03
-6,2.074063574e-04,7.846761582e-05,2.858739732e-04,-8.817532445e-05,1.037160654e-04,1.554074094e-05,-5.760701678e-04,2.122664888e-05,-5.548435189e-04,-5.737769269e-04,6.403910793e-05,-5.097378190e-04,-9.257511035e-04,8.946825903e-05,-8.362828445e-04,4.517089224e-04,8.470197654e-05,5.364108989e-04,-6.571772199e-05,2.498183500e-05,-4.073588698e-05,4.668940386e-04,4.348092462e-05,5.103749632e-04,-6.583770573e-04,1.015765841e-04,-5.568004732e-04,-7.622704402e-05,1.837707151e-04,1.075436711e-04,-1.183210604e-03,2.303742730e-04,-9.528363308e-04,7.476318748e-04,1.427677922e-04,8.903996670e-04,9.841601004e-04,-1.201166691e-04,8.640434313e-04,7.145322390e-04,2.723974462e-04,9.869296852e-04,9.024355729e-04,2.290319477e-05,9.253387677e-04,1.050881935e-03,2.008837572e-04,1.251765692e-03,1.400092441e-03,2.289996704e-04,1.629092112e-03,1.157476761e-03,1.265157662e-04,1.283992527e-03,1.283524366e-03,1.761521367e-04,1.459676503e-03,5.139583604e-04,-1.604772311e-04,3.534811292e-04,-8.750526798e-04,2.524392496e-05,-8.498087548e-04,9.999160149e-05,-1.437723636e-04,-4.378076208e-05,-1.112800162e-03,-1.056485828e-05,-1.123365020e-03,-4.257340837e-04,-4.867035422e-05,-4.744044379e-04,-1.089389990e-04,6.557432765e-05,-4.336467134e-05,-1.615376329e-04,-6.580313658e-05,-2.273407695e-04,-6.464062036e-05,-3.524103223e-04,-4.170509426e-04,-6.087692241e-04,3.864419200e-05,-5.701250321e-04,-1.155198166e-03,1.116470571e-05,-1.144033460e-03,-1.048624361e-03,-1.265148506e-04,-1.175139212e-03,-6.618578237e-04,-1.450868331e-05,-6.763665070e-04,-9.323145766e-04,-2.369331453e-04,-1.169247722e-03,8.340048779e-04,2.069015812e-04,1.040906459e-03,1.399487390e-03,1.436666446e-04,1.543154034e-03,1.079192397e-03,-3.723272797e-04,7.068651173e-04,1.168192964e-03,1.043368245e-04,1.272529789e-03
-5.9,1.911868166e-04,7.585074433e-05,2.670375610e-04,-9.034503763e-05,1.045743441e-04,1.422930647e-05,-5.504455114e-04,1.833997780e-05,-5.321055336e-04,-5.515774918e-04,6.082947946e-05,-4.907480124e-04,-8.920718156e-04,8.179929307e-05,-8.102725225e-04,4.788722696e-04,7.506385751e-05,5.539361271e-04,-2.882388103e-05,1.677804154e-05,-1.204583949e-05,6.037211276e-04,2.071585112e-05,6.244369787e-04,-6.459652614e-04,9.404446069e-05,-5.519208007e-04,1.163210011e-05,1.698484845e-04,1.814805846e-04,-1.087142024e-03,2.155205019e-04,-8.716215218e-04,8.256369537e-04,1.303744813e-04,9.560114350e-04,1.064422307e-03,-1.319963435e-04,9.324259631e-04,7.947338554e-04,2.649594242e-04,1.059693280e-03,9.922767271e-04,3.222381164e-05,1.024500539e-03,1.123193062e-03,2.020951908e-04,1.325288253e-03,1.463852718e-03,2.247960482e-04,1.688648767e-03,1.227285371e-03,1.266258145e-04,1.353911185e-03,1.344818009e-03,1.727152301e-04,1.517533239e-03,6.185090438e-04,-1.762040148e-04,4.423050290e-04,-7.744914635e-04,2.200067617e-05,-7.524907873e-04,1.475061628e-04,-1.429270294e-04,4.579133401e-06,-1.045213966e-03,-1.122601510e-05,-1.056439981e-03,-3.937477476e-04,-5.248203656e-05,-4.462297841e-04,-1.902375709e-05,5.911420384e-05,4.009044675e-05,-1.001790614e-04,-7.085508907e-05,-1.710341504e-04,7.045680806e-05,-3.605404118e-04,-2.900836037e-04,-5.049115470e-04,2.564986929e-05,-4.792616777e-04,-1.027609258e-03,3.138821511e-06,-1.024470437e-03,-9.329026472e-04,-1.400399306e-04,-1.072942578e-03,-5.201180932e-04,-1.231603400e-05,-5.324341272e-04,-8.219798596e-04,-2.235299447e-04,-1.045509804e-03,9.229923485e-04,1.950091379e-04,1.118001486e-03,1.453340685e-03,1.431340017e-04,1.596474687e-03,1.164070465e-03,-3.722848383e-04,7.917856263e-04,1.229247373e-03,1.006532771e-04,1.329900650e-03
-5.8,1.752039531e-04,7.308943013e-05,2.482933833e-04,-9.178659752e-05,1.048246289e-04,1.303803136e-05,-5.212759236e-04,1.547137264e-05,-5.058045510e-04,-5.268710772e-04,5.742896124e-05,-4.694421159e-04,-8.541491233e-04,7.411486143e-05,-7.800342618e-04,5.050084937e-04,6.476837882e-05,5.697768725e-04,9.272421812e-06,8.792175815e-06,1.806459763e-05,7.394823747e-04,-1.577812742e-06,7.379045620e-04,-6.296461688e-04,8.642959027e-05,-5.432165786e-04,1.003849416e-04,1.556122896e-04,2.559972312e-04,-9.859686119e-04,2.004909764e-04,-7.854776355e-04,9.012633704e-04,1.164590516e-04,1.017722422e-03,1.138972252e-03,-1.414958080e-04,9.974764441e-04,8.718131236e-04,2.569506820e-04,1.128763806e-03,1.077520395e-03,4.174878901e-05,1.119269184e-03,1.191333849e-03,2.029084892e-04,1.394242339e-03,1.522636398e-03,2.194553164e-04,1.742091715e-03,1.292678644e-03,1.265203891e-04,1.419199033e-03,1.401440620e-03,1.685825575e-04,1.570023177e-03,7.201120538e-04,-1.907780837e-04,5.293339701e-04,-6.706039989e-04,1.890867773e-05,-6.516953212e-04,1.949300538e-04,-1.416944381e-04,5.323561565e-05,-9.725706528e-04,-1.149044347e-05,-9.840610963e-04,-3.594078002e-04,-5.584350675e-05,-4.152513070e-04,7.090878058e-05,5.202391630e-05,1.229326969e-04,-3.906797184e-05,-7.538381874e-05,-1.144517906e-04,2.048378337e-04,-3.662670422e-04,-1.614292085e-04,-3.999742740e-04,1.268541343e-05,-3.872888606e-04,-8.967735896e-04,-5.303488513e-06,-9.020770781e-04,-8.150415904e-04,-1.533230140e-04,-9.683646044e-04,-3.760468842e-04,-1.028184589e-05,-3.863287301e-04,-7.110152841e-04,-2.083848866e-04,-9.194001706e-04,1.009583531e-03,1.822982253e-04,1.191881757e-03,1.500892310e-03,1.414986636e-04,1.642390973e-03,1.241168572e-03,-3.696426781e-04,8.715258937e-04,1.283773227e-03,9.621281648e-05,1.379986044e-03
-5.7,1.594134154e-04,7.013725466e-05,2.295506701e-04,-9.232974784e-05,1.043857307e-04,1.205598291e-05,-4.887049747e-04,1.262126680e-05,-4.760837079e-04,-4.996886045e-04,5.384020470e-05,-4.458483998e-04,-8.120255529e-04,6.640683556e-05,-7.456187174e-04,5.300451866e-04,5.391865290e-05,5.839638395e-04,4.844764532e-05,1.040437931e-06,4.948808326e-05,8.734859028e-04,-2.314147315e-05,8.503444297e-04,-6.094393796e-04,7.874253203e-05,-5.306968476e-04,1.897816208e-04,1.410279749e-04,3.308095958e-04,-8.799785148e-04,1.852818891e-04,-6.946966257e-04,9.740944248e-04,1.011162425e-04,1.075210667e-03,1.207651592e-03,-1.487337430e-04,1.058917849e-03,9.455434959e-04,2.483649945e-04,1.193908490e-03,1.157933958e-03,5.132576789e-05,1.209259726e-03,1.254844890e-03,2.032195269e-04,1.458064417e-03,1.575914108e-03,2.129876695e-04,1.788901777e-03,1.353210920e-03,1.261348623e-04,1.479345782e-03,1.452871060e-03,1.637369377e-04,1.616607998e-03,8.182683558e-04,-2.039333328e-04,6.143350229e-04,-5.636703158e-04,1.596276247e-05,-5.477075533e-04,2.421785667e-04,-1.401296839e-04,1.020488828e-04,-8.951372604e-04,-1.137184356e-05,-9.065091040e-04,-3.228707691e-04,-5.870172562e-05,-3.815724948e-04,1.606640272e-04,4.433975647e-05,2.050037837e-04,2.173527948e-05,-7.940449193e-05,-5.766921245e-05,3.382991610e-04,-3.696769847e-04,-3.137782375e-05,-2.941309785e-04,-1.625615143e-07,-2.942935400e-04,-7.627584640e-04,-1.409595164e-05,-7.768544156e-04,-6.951773868e-04,-1.661397879e-04,-8.613171747e-04,-2.296479442e-04,-8.404773589e-06,-2.380527178e-04,-5.991946240e-04,-1.915902056e-04,-7.907848296e-04,1.093266519e-03,1.688475320e-04,1.262114051e-03,1.541835162e-03,1.385898346e-04,1.680424997e-03,1.310265483e-03,-3.642995241e-04,9.459659592e-04,1.331423698e-03,9.099289308e-05,1.422416591e-03
-5.6,1.437573492e-04,6.694857925e-05,2.107059284e-04,-9.183098522e-05,1.031842536e-04,1.135326841e-05,-4.529111611e-04,9.788857817e-06,-4.431223033e-04,-4.700872841e-04,5.006856214e-05,-4.200187219e-04,-7.657845501e-04,5.866636846e-05,-7.071181817e-04,5.539150359e-04,4.262628145e-05,5.965413174e-04,8.855486996e-05,-6.463946032e-06,8.209092392e-05,1.005009163e-03,-4.371469394e-05,9.612944688e-04,-5.854043092e-04,7.099285288e-05,-5.144114563e-04,2.795421371e-04,1.260682785e-04,4.056104156e-04,-7.695127539e-04,1.698880991e-04,-5.996246548e-04,1.043686923e-03,8.447391046e-05,1.128160833e-03,1.270361930e-03,-1.538634508e-04,1.116498479e-03,1.015703184e-03,2.391963951e-04,1.254899579e-03,1.233319079e-03,6.079239317e-05,1.294111472e-03,1.313288388e-03,2.029181605e-04,1.516206549e-03,1.623172388e-03,2.054112115e-04,1.828583600e-03,1.408451320e-03,1.254013658e-04,1.533852686e-03,1.498600946e-03,1.581643419e-04,1.656765288e-03,9.124947423e-04,-2.154064710e-04,6.970882713e-04,-4.540002493e-04,1.315633361e-05,-4.408439157e-04,2.891460830e-04,-1.382775143e-04,1.508685687e-04,-8.132232409e-04,-1.088876019e-05,-8.241120011e-04,-2.843149724e-04,-6.101086675e-05,-3.453258392e-04,2.500321671e-04,3.611128668e-05,2.861434538e-04,8.217343952e-05,-8.293864104e-05,-7.652015195e-07,4.706048867e-04,-3.708592799e-04,9.974560684e-05,-1.875642938e-04,-1.281084393e-05,-2.003751377e-04,-6.256574029e-04,-2.316558026e-05,-6.488229832e-04,-5.734509923e-04,-1.782671768e-04,-7.517181691e-04,-8.095917572e-05,-6.669738685e-06,-8.762891440e-05,-4.862826637e-04,-1.732387743e-04,-6.595214380e-04,1.173527076e-03,1.547341501e-04,1.328261226e-03,1.575890294e-03,1.342612679e-04,1.710151562e-03,1.371209527e-03,-3.561696581e-04,1.015039869e-03,1.371895435e-03,8.499847386e-05,1.456893909e-03
-5.5,1.281681136e-04,6.347942264e-05,1.916475363e-04,-9.017209023e-05,1.011572018e-04,1.098511153e-05,-4.141046174e-04,6.972171645e-06,-4.071324458e-04,-4.381489276e-04,4.612207726e-05,-3.920268503e-04,-7.155489844e-04,5.088410680e-05,-6.646648776e-04,5.765573733e-04,3.100908231e-05,6.075664556e-04,1.294268402e-04,-1.371166423e-05,1.157151760e-04,1.133314041e-03,-6.304324383e-05,1.070270797e-03,-5.576394586e-04,6.318884177e-05,-4.944506168e-04,3.693599511e-04,1.107147771e-04,4.800747282e-04,-6.549612084e-04,1.543032543e-04,-5.006579541e-04,1.109580476e-03,6.668788858e-05,1.176268364e-03,1.327065859e-03,-1.570727331e-04,1.169993126e-03,1.082077777e-03,2.294383758e-04,1.311516153e-03,1.303516730e-03,6.997632108e-05,1.373493051e-03,1.366256718e-03,2.018900859e-04,1.568146804e-03,1.663923337e-03,1.967506592e-04,1.860673996e-03,1.457991166e-03,1.242503427e-04,1.582241508e-03,1.538143939e-03,1.518540307e-04,1.689997970e-03,1.002336026e-03,-2.249453854e-04,7.773906409e-04,-3.419313443e-04,1.048251053e-05,-3.314488337e-04,3.357069407e-04,-1.361684461e-04,1.995384947e-04,-7.271771256e-04,-1.006431538e-05,-7.372414410e-04,-2.439388430e-04,-6.273277256e-05,-3.066716156e-04,3.387912086e-04,2.739967325e-05,3.661908818e-04,1.421916295e-04,-8.601221876e-05,5.617941070e-05,6.014906645e-04,-3.699050790e-04,2.315855854e-04,-8.046455680e-05,-2.517956371e-05,-1.056441205e-04,-4.855904489e-04,-3.243424417e-05,-5.180246930e-04,-4.500037216e-04,-1.894884634e-04,-6.394921849e-04,6.994501233e-05,-5.048242417e-06,6.489676992e-05,-3.720393946e-04,-1.534251589e-04,-5.254645534e-04,1.249855583e-03,1.400324211e-04,1.389888004e-03,1.602817462e-03,1.283910834e-04,1.731208545e-03,1.423927031e-03,-3.451914980e-04,1.078735533e-03,1.404940951e-03,7.825784394e-05,1.483198795e-03
-5.4,1.125711735e-04,5.968846592e-05,1.722596395e-04,-8.725866034e-05,9.825405089e-05,1.099539055e-05,-3.725246146e-04,4.168125826e-06,-3.683564888e-04,-4.039785322e-04,4.201127803e-05,-3.619672542e-04,-6.614800851e-04,4.305040541e-05,-6.184296796e-04,5.979177561e-04,1.918853917e-05,6.171062953e-04,1.708778844e-04,-2.069802195e-05,1.501798625e-04,1.257660697e-03,-8.088827640e-05,1.176772420e-03,-5.262820248e-04,5.533734987e-05,-4.709446749e-04,4.589041464e-04,9.495952432e-05,5.538636707e-04,-5.367597518e-04,1.385198543e-04,-3.982398975e-04,1.171305713e-03,4.793645751e-05,1.219242170e-03,1.377783562e-03,-1.585825785e-04,1.219200983e-03,1.144460421e-03,2.190831976e-04,1.363543618e-03,1.368406089e-03,7.869721988e-05,1.447103309e-03,1.413378034e-03,2.000191187e-04,1.613397153e-03,1.697712041e-03,1.870363091e-04,1.884748350e-03,1.501448668e-03,1.226122257e-04,1.624060893e-03,1.571043960e-03,1.447986591e-04,1.715842619e-03,1.087371976e-03,-2.323160236e-04,8.550559525e-04,-2.278285661e-04,7.934861872e-06,-2.198937042e-04,3.817157356e-04,-1.338162076e-04,2.478995280e-04,-6.373837407e-04,-8.926079932e-06,-6.463098206e-04,-2.019604641e-04,-6.383704313e-05,-2.657975072e-04,4.267091914e-04,1.827608298e-05,4.449852744e-04,2.017350401e-04,-8.865357788e-05,1.130814622e-04,7.306685095e-04,-3.669110316e-04,3.637574779e-04,2.696951511e-05,-3.719221503e-05,-1.022269992e-05,-3.427056315e-04,-4.182029381e-05,-3.845259253e-04,-3.249762607e-04,-1.995976200e-04,-5.245738807e-04,2.229503075e-04,-3.499834218e-06,2.194504733e-04,-2.562265792e-04,-1.322485758e-04,-3.884751550e-04,1.321752102e-03,1.248135546e-04,1.446565657e-03,1.622423032e-03,1.208816052e-04,1.743304637e-03,1.468430252e-03,-3.313368474e-04,1.137093405e-03,1.430377906e-03,7.081712688e-05,1.501195032e-03
-5.3,9.688710809e-05,5.553822868e-05,1.524253368e-04,-8.301938025e-05,9.443837747e-05,1.141899722e-05,-3.284377621e-04,1.372683632e-06,-3.270650785e-04,-3.677030391e-04,3.774872612e-05,-3.299543130e-04,-6.037767145e-04,3.515557213e-05,-5.686211424e-04,6.179458428e-04,7.286579649e-06,6.252324225e-04,2.127046704e-04,-2.742333669e-05,1.852813337e-04,1.377320763e-03,-9.703734911e-05,1.280283414e-03,-4.915075745e-04,4.744376478e-05,-4.440638098e-04,5.478203269e-04,7.880622912e-05,6.266265560e-04,-4.153881811e-04,1.225293392e-04,-2.928588418e-04,1.228390799e-03,2.841548144e-05,1.256806281e-03,1.422586116e-03,-1.586444443e-04,1.263941671e-03,1.202650608e-03,2.081214894e-04,1.410772098e-03,1.427897877e-03,8.677109978e-05,1.514668977e-03,1.454319126e-03,1.971899034e-04,1.651509029e-03,1.724121711e-03,1.763032222e-04,1.900424933e-03,1.538471073e-03,1.204191701e-04,1.658890243e-03,1.596881881e-03,1.369944137e-04,1.733876294e-03,1.167220609e-03,-2.373082414e-04,9.299123678e-04,-1.120848842e-04,5.507621152e-06,-1.065772631e-04,4.270071956e-04,-1.312169849e-04,2.957902107e-04,-5.442615381e-04,-7.506001640e-06,-5.517675397e-04,-1.586173977e-04,-6.430111005e-05,-2.229185078e-04,5.135453940e-04,8.820050392e-06,5.223654444e-04,2.607451769e-04,-9.089142934e-05,1.698537476e-04,8.578321389e-04,-3.619850949e-04,4.958470440e-04,1.345277746e-04,-4.877521484e-05,8.575255979e-05,-1.971806679e-04,-5.124011854e-05,-2.484207864e-04,-1.985100255e-04,-2.084030679e-04,-4.069130933e-04,3.778980627e-04,-1.974477458e-06,3.759235853e-04,-1.386166516e-04,-1.098166449e-04,-2.484332965e-04,1.388729775e-03,1.091458690e-04,1.497875644e-03,1.634565898e-03,1.116591796e-04,1.746225078e-03,1.504823107e-03,-3.146194201e-04,1.190203687e-03,1.448094994e-03,6.273474398e-05,1.510829738e-03
-5.2,8.103332280e-05,5.099626755e-05,1.320295904e-04,-7.740550627e-05,8.968886800e-05,1.228336172e-05,-2.821362396e-04,-1.418860230e-06,-2.835550998e-04,-3.294698538e-04,3.334838135e-05,-2.961214724e-04,-5.426743894e-04,2.719014337e-05,-5.154842460e-04,6.365919145e-04,-4.578291231e-06,6.320136232e-04,2.546865602e-04,-3.389310878e-05,2.207934514e-04,1.491590333e-03,-1.113161794e-04,1.380274154e-03,-4.535290848e-04,3.951205545e-05,-4.140170294e-04,6.357316468e-04,6.227066974e-05,6.980023166e-04,-2.913676793e-04,1.063222873e-04,-1.850453919e-04,1.280367393e-03,8.334345719e-06,1.288701739e-03,1.461588524e-03,-1.575372152e-04,1.304051308e-03,1.256453516e-03,1.965423149e-04,1.452995831e-03,1.481925216e-03,9.401666007e-05,1.575941876e-03,1.488786761e-03,1.932911314e-04,1.682077892e-03,1.742777728e-03,1.645906239e-04,1.907368352e-03,1.568736023e-03,1.176068234e-04,1.686342847e-03,1.615281326e-03,1.284412637e-04,1.743722590e-03,1.241540852e-03,-2.397412564e-04,1.001799595e-03,4.878924719e-06,3.195638158e-06,8.074562877e-06,4.713969371e-04,-1.283507506e-04,3.430461865e-04,-4.482593135e-04,-5.840229296e-06,-4.540995428e-04,-1.141655969e-04,-6.411050646e-05,-1.782761033e-04,5.990513099e-04,-8.824896196e-07,5.981688203e-04,3.191555336e-04,-9.275274780e-05,2.264027858e-04,9.826628924e-04,-3.552525651e-04,6.274103272e-04,2.419848803e-04,-5.985688291e-05,1.821279974e-04,-4.922396747e-05,-6.060953156e-05,-1.098334990e-04,-7.074901903e-05,-2.157313133e-04,-2.864803323e-04,5.345807212e-04,-4.155432476e-07,5.341651779e-04,-1.900254991e-05,-8.624946067e-05,-1.052520106e-04,1.450317868e-03,9.309529950e-05,1.543413167e-03,1.639162891e-03,1.006739466e-04,1.739836838e-03,1.533304360e-03,-2.951014045e-04,1.238202955e-03,1.458056237e-03,5.407682196e-05,1.512133059e-03
-5.1,6.492624562e-05,4.603618338e-05,1.109624290e-04,-7.038925883e-05,8.399937824e-05,1.361011941e-05,-2.339351648e-04,-4.211489689e-06,-2.381466545e-04,-2.894445933e-04,2.882487923e-05,-2.606197141e-04,-4.784432599e-04,1.914515234e-05,-4.592981075e-04,6.538030328e-04,-1.629516483e-05,6.375078680e-04,2.965866464e-04,-4.011799997e-05,2.564686464e-04,1.599802560e-03,-1.235986962e-04,1.476203863e-03,-4.125946830e-04,3.154483792e-05,-3.810498451e-04,7.222417559e-04,4.538014165e-05,7.676218976e-04,-1.652563465e-04,8.988877832e-05,-7.536756814e-05,1.326778681e-03,-1.208835036e-05,1.314690331e-03,1.494945526e-03,-1.555648935e-04,1.339380633e-03,1.305681396e-03,1.843338541e-04,1.490015250e-03,1.530436046e-03,1.002626149e-04,1.630698661e-03,1.516529218e-03,1.882193120e-04,1.704748531e-03,1.753352202e-03,1.519416571e-04,1.905293859e-03,1.591954343e-03,1.141161179e-04,1.706070461e-03,1.625914745e-03,1.191433624e-04,1.745058108e-03,1.310036787e-03,-2.394689340e-04,1.070567853e-03,1.226167158e-04,9.944317677e-07,1.236111476e-04,5.146845086e-04,-1.251844966e-04,3.895000120e-04,-3.498517650e-04,-3.968736728e-06,-3.538205018e-04,-6.887669452e-05,-6.325929949e-05,-1.321359940e-04,6.829723843e-04,-1.074162197e-05,6.722307623e-04,3.768879760e-04,-9.426056556e-05,2.826274104e-04,1.104835743e-03,-3.468597639e-04,7.579759796e-04,3.490985878e-04,-7.036637643e-05,2.787322114e-04,1.009249229e-04,-6.984474527e-05,3.108017765e-05,5.815886262e-05,-2.214305208e-04,-1.632716582e-04,6.927384642e-04,1.236691355e-06,6.939751556e-04,1.027930287e-04,-6.168369927e-05,4.110932946e-05,1.506065894e-03,7.672603112e-05,1.582791926e-03,1.636194313e-03,8.789999631e-05,1.724094310e-03,1.554168688e-03,-2.728970630e-04,1.281271625e-03,1.460305906e-03,4.491373479e-05,1.505219640e-03
-5,4.848440420e-05,4.063836202e-05,8.912276622e-05,-6.196049972e-05,7.737809766e-05,1.541759794e-05,-1.841686584e-04,-7.010048572e-06,-1.911787070e-04,-2.478078500e-04,2.419283074e-05,-2.236150193e-04,-4.113846388e-04,1.101235696e-05,-4.003722819e-04,6.695201989e-04,-2.776492224e-05,6.417552766e-04,3.381540067e-04,-4.611347054e-05,2.920405362e-04,1.701339988e-03,-1.338138920e-04,1.567526096e-03,-3.689840312e-04,2.354345491e-05,-3.454405762e-04,8.069402568e-04,2.817209039e-05,8.351123472e-04,-3.764236623e-05,7.321889551e-05,3.557652928e-05,1.367191435e-03,-3.263042136e-05,1.334561013e-03,1.522850210e-03,-1.530541792e-04,1.369796031e-03,1.350157069e-03,1.714845091e-04,1.521641578e-03,1.573389064e-03,1.053545425e-04,1.678743606e-03,1.537339061e-03,1.818827773e-04,1.719221838e-03,1.755569735e-03,1.384037060e-04,1.893973441e-03,1.607875365e-03,1.098949561e-04,1.717770321e-03,1.628510420e-03,1.091096077e-04,1.737620028e-03,1.372463803e-03,-2.363850491e-04,1.136078754e-03,2.406616683e-04,-1.099554856e-06,2.395621134e-04,5.566588403e-04,-1.216768065e-04,4.349820337e-04,-2.495340951e-04,-1.934794143e-06,-2.514688893e-04,-2.303402459e-05,-6.175053569e-05,-8.478456028e-05,7.650505724e-04,-2.066576009e-05,7.443848123e-04,4.338507462e-04,-9.543178333e-05,3.384189628e-04,1.224023524e-03,-3.369730429e-04,8.870504815e-04,4.556114705e-04,-8.023320086e-05,3.753782696e-04,2.529942442e-04,-7.886285921e-05,1.741313850e-04,1.880605513e-04,-2.253737452e-04,-3.731319390e-05,8.520576772e-04,3.041136366e-06,8.550988136e-04,2.269087133e-04,-3.627582146e-05,1.906328919e-04,1.555549178e-03,6.010142978e-05,1.615650608e-03,1.625708769e-03,7.333639557e-05,1.699045164e-03,1.567804369e-03,-2.481725232e-04,1.319631845e-03,1.454975119e-03,3.531668057e-05,1.490291800e-03
-4.9,3.163199315e-05,3.479051323e-05,6.642250638e-05,-5.212276498e-05,6.984631093e-05,1.772354595e-05,-1.331851142e-04,-9.818887936e-06,-1.430040021e-04,-2.047514973e-04,1.946627782e-05,-1.852852195e-04,-3.418265083e-04,2.784444993e-06,-3.390420633e-04,6.836765948e-04,-3.890403574e-05,6.447725591e-04,3.791266406e-04,-5.189890464e-05,3.272277360e-04,1.795645933e-03,-1.419493990e-04,1.653696534e-03,-3.230040051e-04,1.550807910e-05,-3.074959260e-04,8.894093970e-04,1.069226890e-05,9.001016659e-04,9.086397343e-05,5.630324531e-05,1.471672187e-04,1.401210884e-03,-5.307305476e-05,1.348137829e-03,1.545531451e-03,-1.503493629e-04,1.395182088e-03,1.389718035e-03,1.579838595e-04,1.547701895e-03,1.610751547e-03,1.091603086e-04,1.719911856e-03,1.551056511e-03,1.742052799e-04,1.725261791e-03,1.749213479e-03,1.240294622e-04,1.873242941e-03,1.616293751e-03,1.048995946e-04,1.721193346e-03,1.622859747e-03,9.835431316e-05,1.721214060e-03,1.428635165e-03,-2.304288169e-04,1.198206348e-03,3.585315927e-04,-3.088742588e-06,3.554428501e-04,5.971046086e-04,-1.177830726e-04,4.793215360e-04,-1.478165160e-04,2.155992261e-07,-1.476009168e-04,2.307157415e-05,-5.959663117e-05,-3.652505703e-05,8.450267403e-04,-3.056313228e-05,8.144636080e-04,4.899378104e-04,-9.627537817e-05,3.936624322e-04,1.339896588e-03,-3.257719058e-04,1.014124682e-03,5.612546881e-04,-8.938763210e-05,4.718670560e-04,4.066773770e-04,-8.758220299e-05,3.190951740e-04,3.187953233e-04,-2.274617001e-04,9.133362314e-05,1.012170254e-03,5.051753520e-06,1.017222008e-03,3.534340836e-04,-1.020322813e-05,3.432308555e-04,1.598374801e-03,4.328540672e-05,1.641660208e-03,1.607825262e-03,5.700920010e-05,1.664834462e-03,1.574684064e-03,-2.211413588e-04,1.353542705e-03,1.442288709e-03,2.535325062e-05,1.467641960e-03
-4.8,1.430210947e-05,2.848806237e-05,4.279017184e-05,-4.089056712e-05,6.143725237e-05,2.054668525e-05,-8.134266063e-05,-1.264162894e-05,-9.398428957e-05,-1.604754044e-04,1.465838044e-05,-1.458170239e-04,-2.701189071e-04,-5.544738262e-06,-2.756636453e-04,6.961953190e-04,-4.964715422e-05,6.465481648e-04,4.192341200e-04,-5.749628841e-05,3.617378315e-04,1.882232749e-03,-1.480522450e-04,1.734180505e-03,-2.749844001e-04,7.437855480e-06,-2.675465446e-04,9.692300530e-04,-7.007339850e-06,9.622227132e-04,2.196377161e-04,3.913338252e-05,2.587710986e-04,1.428495244e-03,-7.320840719e-05,1.355286837e-03,1.563245308e-03,-1.478024790e-04,1.415442829e-03,1.424219651e-03,1.438230237e-04,1.568042675e-03,1.642496419e-03,1.115740720e-04,1.754070491e-03,1.557571793e-03,1.651286923e-04,1.722700485e-03,1.734129804e-03,1.088786952e-04,1.843008500e-03,1.617055509e-03,9.909568063e-05,1.716151189e-03,1.608823434e-03,8.689791606e-05,1.695721350e-03,1.478426818e-03,-2.215906639e-04,1.256836154e-03,4.757331734e-04,-4.974549921e-06,4.707586235e-04,6.358076466e-04,-1.134605878e-04,5.223470589e-04,-4.521939811e-05,2.434272172e-06,-4.278512594e-05,6.914525944e-05,-5.681962984e-05,1.232562960e-05,9.226419940e-04,-4.034242078e-05,8.822995732e-04,5.450284895e-04,-9.679140001e-05,4.482370895e-04,1.452117569e-03,-3.134378601e-04,1.138679708e-03,6.657511139e-04,-9.776210150e-05,5.679890124e-04,5.616289660e-04,-9.592303658e-05,4.657059294e-04,4.501902473e-04,-2.276247926e-04,2.225654547e-04,1.172652103e-03,7.313488751e-06,1.179965592e-03,4.823972428e-04,1.633683189e-05,4.987340747e-04,1.634186481e-03,2.634391139e-05,1.660530392e-03,1.582730806e-03,3.897408980e-05,1.621704896e-03,1.575346029e-03,-1.920563110e-04,1.383289718e-03,1.422569021e-03,1.508274102e-05,1.437651762e-03
-4.7,-3.560856424e-06,2.173439625e-05,1.817353982e-05,-2.828883496e-05,5.219509426e-05,2.390625931e-05,-2.900541344e-05,-1.548101743e-05,-4.448643087e-05,-1.151850158e-04,9.781267289e-06,-1.054037485e-04,-1.966297865e-04,-1.397992822e-05,-2.106097147e-04,7.069852638e-04,-5.994764718e-05,6.470376166e-04,4.581995474e-04,-6.292873839e-05,3.952708090e-04,1.960685943e-03,-1.522276569e-04,1.808458286e-03,-2.252738992e-04,-6.688749913e-07,-2.259427741e-04,1.045986069e-03,-2.487075245e-05,1.021115317e-03,3.480454695e-04,2.170213909e-05,3.697476086e-04,1.448767350e-03,-9.284679253e-05,1.355920557e-03,1.576258862e-03,-1.457590229e-04,1.430499839e-03,1.453536783e-03,1.289945924e-04,1.582531375e-03,1.668597975e-03,1.125192300e-04,1.781117205e-03,1.556825472e-03,1.546147896e-04,1.711440261e-03,1.710230771e-03,9.302037461e-05,1.803251145e-03,1.610061524e-03,9.245910484e-05,1.702520629e-03,1.586335624e-03,7.476771245e-05,1.661103336e-03,1.521778605e-03,-2.099173244e-04,1.311861281e-03,5.917647542e-04,-6.757916611e-06,5.850068376e-04,6.725586478e-04,-1.086727795e-04,5.638858682e-04,5.773080372e-05,4.671463680e-06,6.240226740e-05,1.148906372e-04,-5.345110441e-05,6.143953277e-05,9.976378779e-04,-4.991316674e-05,9.477247112e-04,5.989867277e-04,-9.697088821e-05,5.020158395e-04,1.560334711e-03,-3.001431166e-04,1.260191594e-03,7.688160252e-04,-1.052932740e-04,6.635227512e-04,7.174609726e-04,-1.038087934e-04,6.136521792e-04,5.820534929e-04,-2.258238711e-04,3.562296217e-04,1.333020143e-03,9.858583300e-06,1.342878726e-03,6.137524179e-04,4.312974010e-05,6.568821580e-04,1.662667716e-03,9.346008767e-06,1.672013725e-03,1.550673454e-03,1.931892241e-05,1.569992377e-03,1.570366762e-03,-1.611979147e-04,1.409168847e-03,1.396233445e-03,4.553183191e-06,1.400786628e-03
-4.6,-2.199965750e-05,1.454099339e-05,-7.458664105e-06,-1.435374302e-05,4.217376481e-05,2.782002178e-05,2.345960345e-05,-1.833882398e-05,5.120779469e-06,-6.908964340e-05,4.845933990e-06,-6.424370941e-05,-1.217412691e-04,-2.252418519e-05,-1.442654543e-04,7.159355903e-04,-6.977582412e-05,6.461597662e-04,4.957411946e-04,-6.821919048e-05,4.275220041e-04,2.030665960e-03,-1.546370695e-04,1.876028891e-03,-1.742360439e-04,-8.814208486e-06,-1.830502524e-04,1.119267447e-03,-4.284030096e-05,1.076427146e-03,4.754509469e-04,4.003948354e-06,4.794548952e-04,1.461822701e-03,-1.118219640e-04,1.350000737e-03,1.584829540e-03,-1.445414343e-04,1.440288106e-03,1.477564485e-03,1.134927333e-04,1.591057219e-03,1.689028007e-03,1.119504279e-04,1.800978435e-03,1.548807228e-03,1.426463640e-04,1.691453592e-03,1.677494932e-03,7.653459378e-05,1.754029526e-03,1.595268419e-03,8.497686488e-05,1.680245284e-03,1.555405877e-03,6.199857186e-05,1.617404449e-03,1.558691309e-03,-1.955147451e-04,1.363176564e-03,7.061184112e-04,-8.439985644e-06,6.976784256e-04,7.071558167e-04,-1.033922521e-04,6.037635646e-04,1.605052380e-04,6.876479877e-06,1.673817179e-04,1.600114702e-04,-4.953153968e-05,1.104799305e-04,1.069755960e-03,-5.918656856e-05,1.010569391e-03,6.516603088e-04,-9.679662290e-05,5.548636859e-04,1.664177883e-03,-2.860426676e-04,1.378135216e-03,8.701553626e-04,-1.119242389e-04,7.582311237e-04,8.737397937e-04,-1.111676058e-04,7.625721880e-04,7.141667567e-04,-2.220497572e-04,4.921169995e-04,1.492728617e-03,1.270350684e-05,1.505432124e-03,7.473702531e-04,6.994631778e-05,8.173165709e-04,1.683543476e-03,-7.635679725e-06,1.675907796e-03,1.511952539e-03,-1.834541952e-06,1.510117997e-03,1.560329738e-03,-1.288611176e-04,1.431468621e-03,1.363784962e-03,-6.198745435e-06,1.357586217e-03
-4.5,-4.104307502e-05,6.927520256e-06,-3.411555476e-05,8.663257168e-07,3.143559633e-05,3.230192204e-05,7.568555970e-05,-2.121573131e-05,5.446982839e-05,-2.240094885e-05,-1.378179307e-07,-2.253876678e-05,-4.584573728e-05,-3.117868758e-05,-7.702442486e-05,7.229107031e-04,-7.911521495e-05,6.437954881e-04,5.315746156e-04,-7.338940022e-05,4.581852154e-04,2.091909976e-03,-1.554954367e-04,1.936414539e-03,-1.222447117e-04,-1.700016407e-05,-1.392448758e-04,1.188673748e-03,-6.085892024e-05,1.127814828e-03,6.012209349e-04,-1.396473335e-05,5.872562015e-04,1.467534992e-03,-1.299934324e-04,1.337541559e-03,1.589185155e-03,-1.444329212e-04,1.444752234e-03,1.496219099e-03,9.731399656e-05,1.593533095e-03,1.703754939e-03,1.098547870e-04,1.813609726e-03,1.533554499e-03,1.292279017e-04,1.662782401e-03,1.635967762e-03,5.951388615e-05,1.695481648e-03,1.572687975e-03,7.664805883e-05,1.649336033e-03,1.516119833e-03,4.863344386e-05,1.564753277e-03,1.589220749e-03,-1.785478329e-04,1.410672916e-03,8.182826327e-04,-1.002266670e-05,8.082599660e-04,7.394076568e-04,-9.760278869e-05,6.418048681e-04,2.625766265e-04,8.998443381e-06,2.715750699e-04,2.042135527e-04,-4.510934567e-05,1.591042070e-04,1.138737532e-03,-6.807696733e-05,1.070660565e-03,7.028809700e-04,-9.624462558e-05,6.066363444e-04,1.763259628e-03,-2.712708168e-04,1.491988812e-03,9.694631959e-04,-1.176062512e-04,8.518569448e-04,1.029985460e-03,-1.179336072e-04,9.120518531e-04,8.462791597e-04,-2.163224740e-04,6.299566857e-04,1.651166583e-03,1.584677173e-05,1.667013355e-03,8.830316632e-04,9.654554077e-05,9.795772040e-04,1.696581418e-03,-2.452503016e-05,1.672056387e-03,1.466908981e-03,-2.433019613e-05,1.442578785e-03,1.545796599e-03,-9.534203130e-05,1.450454567e-03,1.325798145e-03,-1.714538115e-05,1.308652763e-03
-4.4,-6.070464600e-05,-1.078067409e-06,-6.178271341e-05,1.731033159e-05,2.005027251e-05,3.736060410e-05,1.273097149e-04,-2.411112681e-05,1.031985881e-04,2.466892952e-05,-5.161308981e-06,1.950762054e-05,3.065888238e-05,-3.994258587e-05,-9.283703495e-06,7.277479566e-04,-8.795786739e-05,6.397900893e-04,5.654159806e-04,-7.845924849e-05,4.869567321e-04,2.144233136e-03,-1.550660202e-04,1.989167116e-03,-6.967876580e-05,-2.522813134e-05,-9.490689715e-05,1.253818949e-03,-7.887228826e-05,1.174946661e-03,7.247326610e-04,-3.220489276e-05,6.925277682e-04,1.465860682e-03,-1.472460776e-04,1.318614604e-03,1.589509273e-03,-1.456640413e-04,1.443845231e-03,1.509440989e-03,8.045889541e-05,1.589899885e-03,1.712747694e-03,1.062525361e-04,1.819000230e-03,1.511152483e-03,1.143859593e-04,1.625538443e-03,1.585762844e-03,4.206384133e-05,1.627826686e-03,1.542387129e-03,6.748498558e-05,1.609872114e-03,1.468639688e-03,3.472355755e-05,1.503363246e-03,1.613471102e-03,-1.592372904e-04,1.454233812e-03,9.277467429e-04,-1.150899603e-05,9.162377468e-04,7.691364266e-04,-9.130061023e-05,6.778358164e-04,3.634240110e-04,1.098710179e-05,3.744111128e-04,2.472076167e-04,-4.023984041e-05,2.069677763e-04,1.204324392e-03,-7.650402391e-05,1.127820368e-03,7.524663542e-04,-9.528643063e-05,6.571799236e-04,1.857182396e-03,-2.559419364e-04,1.601240460e-03,1.066420822e-03,-1.223000336e-04,9.441207881e-04,1.185673441e-03,-1.240475184e-04,1.061625923e-03,9.781039593e-04,-2.086907396e-04,7.694132196e-04,1.807658275e-03,1.926794785e-05,1.826926223e-03,1.020424651e-03,1.226775106e-04,1.143102162e-03,1.701593938e-03,-4.124289813e-05,1.660351040e-03,1.415918199e-03,-4.797847784e-05,1.367939721e-03,1.527286074e-03,-6.092791244e-05,1.466358161e-03,1.282903857e-03,-2.826457558e-05,1.254639281e-03
-4.3,-8.098082802e-05,-9.439502428e-06,-9.042033044e-05,3.490448128e-05,8.094391082e-06,4.299887236e-05,1.779782061e-04,-2.702278927e-05,1.509554168e-04,7.190970132e-05,-1.021673913e-05,6.169296219e-05,1.073746563e-04,-4.881291644e-05,5.856173982e-05,7.302594149e-04,-9.629974029e-05,6.339596747e-04,5.969867350e-04,-8.344629335e-05,5.135404416e-04,2.187525884e-03,-1.536500320e-04,2.033875852e-03,-1.691619287e-05,-3.349841993e-05,-5.041461280e-05,1.314337714e-03,-9.683070199e-05,1.217507012e-03,8.453823343e-04,-5.071442520e-05,7.946679091e-04,1.456842380e-03,-1.634880662e-04,1.293354314e-03,1.585934228e-03,-1.484042552e-04,1.437529973e-03,1.517198534e-03,6.293385833e-05,1.580132392e-03,1.715983374e-03,1.011967193e-04,1.817180094e-03,1.481735662e-03,9.816925596e-05,1.579904917e-03,1.527064130e-03,2.430302548e-05,1.551367155e-03,1.504489712e-03,5.751399364e-05,1.562003705e-03,1.413204732e-03,2.032853790e-05,1.433533270e-03,1.631587826e-03,-1.378542886e-04,1.493733538e-03,1.034006853e-03,-1.290344987e-05,1.021103404e-03,7.961815967e-04,-8.449510917e-05,7.116864875e-04,4.625380449e-04,1.279360618e-05,4.753316510e-04,2.887132047e-04,-3.498443802e-05,2.537287666e-04,1.266261304e-03,-8.439532216e-05,1.181865982e-03,8.002239300e-04,-9.389219224e-05,7.063317377e-04,1.945551872e-03,-2.401552498e-04,1.705396622e-03,1.160699144e-03,-1.259773828e-04,1.034721761e-03,1.340238355e-03,-1.294562987e-04,1.210782057e-03,1.109316903e-03,-1.992312100e-04,9.100856929e-04,1.961466794e-03,2.292808163e-05,1.984394876e-03,1.159143722e-03,1.480870450e-04,1.307230767e-03,1.698441658e-03,-5.770815169e-05,1.640733506e-03,1.359386026e-03,-7.255850955e-05,1.286827516e-03,1.505261124e-03,-2.589218618e-05,1.479368938e-03,1.235773908e-03,-3.953625703e-05,1.196237650e-03
-4.2,-1.018489413e-04,-1.811242224e-05,-1.199613635e-04,5.356208398e-05,-4.348635359e-06,4.921344862e-05,2.273509478e-04,-2.994659444e-05,1.974043533e-04,1.191151672e-04,-1.529685065e-05,1.038183165e-04,1.839091937e-04,-5.778458552e-05,1.261246082e-04,7.302371922e-04,-1.041368998e-04,6.261002924e-04,6.260188339e-04,-8.836550800e-05,5.376533259e-04,2.221744598e-03,-1.515700711e-04,2.070174526e-03,3.567138734e-05,-4.180994224e-05,-6.138554902e-06,1.369891711e-03,-1.146905856e-04,1.255201126e-03,9.625933093e-04,-6.948774992e-05,8.931055594e-04,1.440608932e-03,-1.786479368e-04,1.261960995e-03,1.578541028e-03,-1.527592548e-04,1.425781773e-03,1.519491297e-03,4.475298389e-05,1.564244281e-03,1.713455503e-03,9.477132694e-05,1.808226830e-03,1.445489382e-03,8.064840890e-05,1.526137791e-03,1.460128264e-03,6.362104826e-06,1.466490369e-03,1.459179261e-03,4.677548376e-05,1.505954744e-03,1.350130975e-03,5.516722833e-06,1.355647698e-03,1.643748435e-03,-1.147133663e-04,1.529035069e-03,1.136571748e-03,-1.421243656e-05,1.122359311e-03,8.204020482e-04,-7.720913346e-05,7.431929147e-04,5.594259986e-04,1.437115827e-05,5.737971568e-04,3.284625117e-04,-2.941004215e-05,2.990524696e-04,1.324299382e-03,-9.168878098e-05,1.232610601e-03,8.459558892e-04,-9.203448829e-05,7.539214009e-04,2.027993454e-03,-2.240027943e-04,1.803990660e-03,1.251963894e-03,-1.286237401e-04,1.123340154e-03,1.493077929e-03,-1.341119647e-04,1.358965964e-03,1.239554131e-03,-1.880465393e-04,1.051507592e-03,2.111800172e-03,2.677142082e-05,2.138571593e-03,1.298692198e-03,1.725177444e-04,1.471209942e-03,1.687037631e-03,-7.383921292e-05,1.613198418e-03,1.297745766e-03,-9.782146772e-05,1.199924299e-03,1.480120063e-03,9.506814122e-06,1.489626877e-03,1.185104731e-03,-5.093983776e-05,1.134164893e-03
-4.1,-1.232657679e-04,-2.704492569e-05,-1.503106936e-04,7.318341569e-05,-1.718890033e-05,5.599451536e-05,2.751057461e-04,-3.287637694e-05,2.422293692e-04,1.660847630e-04,-2.039458283e-05,1.456901801e-04,2.598802713e-04,-6.685043796e-05,1.930298334e-04,7.274611956e-04,-1.114630719e-04,6.159981238e-04,6.522595806e-04,-9.322913597e-05,5.590304447e-04,2.246896809e-03,-1.491496949e-04,2.097747114e-03,8.772309827e-05,-5.015994905e-05,3.756314922e-05,1.420174446e-03,-1.324155188e-04,1.287758928e-03,1.075822408e-03,-8.851562505e-05,9.873067829e-04,1.417370458e-03,-1.926710182e-04,1.224699440e-03,1.567363059e-03,-1.587726456e-04,1.408590414e-03,1.516350818e-03,2.593914136e-05,1.542289959e-03,1.705180039e-03,8.708758959e-05,1.792267628e-03,1.402649584e-03,6.191535027e-05,1.464564934e-03,1.385285218e-03,-1.161793252e-05,1.373667286e-03,1.406701110e-03,3.532282491e-05,1.442023935e-03,1.279808570e-03,-9.634325932e-06,1.270174244e-03,1.650150128e-03,-9.016400867e-05,1.559986120e-03,1.234967355e-03,-1.544504834e-05,1.219522306e-03,8.416763312e-04,-6.947861985e-05,7.721977113e-04,6.536158712e-04,1.567547032e-05,6.692913415e-04,3.662032739e-04,-2.358852259e-05,3.426147513e-04,1.378198983e-03,-9.833426574e-05,1.279864717e-03,8.894636623e-04,-8.969230623e-05,7.997713561e-04,2.104166594e-03,-2.075782945e-04,1.896588300e-03,1.339881469e-03,-1.302413415e-04,1.209640127e-03,1.643555981e-03,-1.379698653e-04,1.505586115e-03,1.368409179e-03,-1.752619408e-04,1.193147238e-03,2.257818751e-03,3.072810569e-05,2.288546857e-03,1.438487379e-03,1.957165845e-04,1.634203963e-03,1.667350910e-03,-8.955575064e-05,1.577795159e-03,1.231454265e-03,-1.234951392e-04,1.107959126e-03,1.452188019e-03,4.502602237e-05,1.497214042e-03,1.131598968e-03,-6.245270893e-05,1.069146259e-03
-4,-1.451674223e-04,-3.617846407e-05,-1.813458864e-04,9.365604806e-05,-3.033084528e-05,6.332520278e-05,3.209413401e-04,-3.580395940e-05,2.851373807e-04,2.126243262e-04,-2.550275172e-05,1.871215745e-04,3.349192245e-04,-7.600140480e-05,2.589178197e-04,7.217088960e-04,-1.182691626e-04,6.034397334e-04,6.754756690e-04,-9.804661634e-05,5.774290527e-04,2.263025457e-03,-1.466939388e-04,2.116331519e-03,1.388919877e-04,-5.854374916e-05,8.034823856e-05,1.464913916e-03,-1.499765728e-04,1.314937343e-03,1.184564206e-03,-1.077850963e-04,1.076779110e-03,1.387408387e-03,-2.055146313e-04,1.181893756e-03,1.552391079e-03,-1.664300809e-04,1.385960998e-03,1.507839298e-03,6.524272091e-06,1.514363570e-03,1.691198638e-03,7.827865670e-05,1.769477295e-03,1.353499760e-03,4.208263259e-05,1.395582393e-03,1.302936147e-03,-2.948840403e-05,1.273447743e-03,1.347362380e-03,2.322060541e-05,1.370582985e-03,1.202696426e-03,-2.503735150e-05,1.177659074e-03,1.650996469e-03,-6.458224167e-05,1.586414227e-03,1.328739904e-03,-1.661399086e-05,1.312125913e-03,8.599014256e-04,-6.135125984e-05,7.985501658e-04,7.446597367e-04,1.666505868e-05,7.613247954e-04,4.017006465e-04,-1.759613579e-05,3.841045107e-04,1.427731603e-03,-1.042944202e-04,1.323437182e-03,9.305512874e-04,-8.685446568e-05,8.436968217e-04,2.173773498e-03,-1.909843188e-04,1.982789179e-03,1.424123319e-03,-1.308517918e-04,1.293271528e-03,1.791004937e-03,-1.409869885e-04,1.650017948e-03,1.495430620e-03,-1.610207901e-04,1.334409830e-03,2.398643745e-03,3.471739956e-05,2.433361145e-03,1.577867461e-03,2.174397440e-04,1.795307205e-03,1.639408615e-03,-1.047801342e-04,1.534628481e-03,1.160986295e-03,-1.492893598e-04,1.011696935e-03,1.421710288e-03,8.043716950e-05,1.502147457e-03,1.075945056e-03,-7.404969825e-05,1.001895357e-03
-3.9,-1.674704010e-04,-4.544901960e-05,-2.129194206e-04,1.148560097e-04,-4.367459037e-05,7.118141938e-05,3.645797130e-04,-3.871924491e-05,3.258604681e-04,2.585465857e-04,-3.061378171e-05,2.279328039e-04,4.086735274e-04,-8.522669044e-05,3.234468370e-04,7.127667741e-04,-1.245447448e-04,5.882220293e-04,6.954568107e-04,-1.028245963e-04,5.926322143e-04,2.270195737e-03,-1.444744621e-04,2.125721275e-03,1.888475664e-04,-6.695443956e-05,1.218931268e-04,1.503873609e-03,-1.673517863e-04,1.336521823e-03,1.288354280e-03,-1.272794911e-04,1.161074789e-03,1.351062359e-03,-2.171418906e-04,1.133920469e-03,1.533579803e-03,-1.756652301e-04,1.357914573e-03,1.494047861e-03,-1.345083317e-05,1.480597028e-03,1.671580253e-03,6.849324499e-05,1.740073498e-03,1.298365717e-03,2.128269922e-05,1.319648416e-03,1.213548857e-03,-4.709623535e-05,1.166452621e-03,1.281529826e-03,1.054284967e-05,1.292072676e-03,1.119314339e-03,-4.059522482e-05,1.078719114e-03,1.646487601e-03,-3.836398804e-05,1.608123613e-03,1.417459161e-03,-1.773652673e-05,1.399722634e-03,8.749911926e-04,-5.288419001e-05,8.221070026e-04,8.321370458e-04,1.730149195e-05,8.494385378e-04,4.347388423e-04,-1.151270516e-05,4.232261372e-04,1.472681518e-03,-1.095452613e-04,1.363136257e-03,9.690277282e-04,-8.352180069e-05,8.855059275e-04,2.236563165e-03,-1.743363518e-04,2.062226813e-03,1.504368773e-03,-1.304971978e-04,1.373871575e-03,1.934730210e-03,-1.431210773e-04,1.791609133e-03,1.620122630e-03,-1.454801268e-04,1.474642503e-03,2.533367934e-03,3.865101917e-05,2.572018953e-03,1.716099266e-03,2.374601942e-04,1.953559460e-03,1.603296723e-03,-1.194385192e-04,1.483858204e-03,1.086827814e-03,-1.749017496e-04,9.119260646e-04,1.388852886e-03,1.155235781e-04,1.504376464e-03,1.018796542e-03,-8.570334886e-05,9.330931935e-04
-3.8,-1.900731607e-04,-5.478854097e-05,-2.448617016e-04,1.366499216e-04,-5.711755802e-05,7.953236357e-05,4.057683807e-04,-4.161026793e-05,3.641581127e-04,3.036721336e-04,-3.571951772e-05,2.679526159e-04,4.808094120e-04,-9.451394932e-05,3.862954626e-04,7.004423190e-04,-1.302805932e-04,5.701617258e-04,7.120198104e-04,-1.075670688e-04,6.044527417e-04,2.268485521e-03,-1.427198154e-04,2.125765706e-03,2.372786122e-04,-7.538274550e-05,1.618958667e-04,1.536853668e-03,-1.845249802e-04,1.352328688e-03,1.386773063e-03,-1.469783976e-04,1.239794665e-03,1.308716988e-03,-2.275151899e-04,1.081201798e-03,1.510857718e-03,-1.863674144e-04,1.324490304e-03,1.475096287e-03,-3.393683320e-05,1.441159454e-03,1.646422675e-03,5.788924295e-05,1.704311918e-03,1.237609856e-03,-3.331339568e-07,1.237276722e-03,1.117652226e-03,-6.428779552e-05,1.053364430e-03,1.209626904e-03,-2.628497833e-06,1.206998406e-03,1.030233788e-03,-5.620128400e-05,9.740325043e-04,1.636817785e-03,-1.192067887e-05,1.624897106e-03,1.500723750e-03,-1.883518956e-05,1.481888560e-03,8.868757994e-04,-4.414113471e-05,8.427346647e-04,9.156587696e-04,1.754977391e-05,9.332085435e-04,4.651235991e-04,-5.420387355e-06,4.597032118e-04,1.512848280e-03,-1.140769360e-04,1.398771344e-03,1.004709015e-03,-7.970782281e-05,9.250011918e-04,2.292334052e-03,-1.577638080e-04,2.134570244e-03,1.580308114e-03,-1.292395684e-04,1.451068546e-03,2.074019074e-03,-1.443308913e-04,1.929688183e-03,1.741950396e-03,-1.288066210e-04,1.613143775e-03,2.661069798e-03,4.243628334e-05,2.703506081e-03,1.852387490e-03,2.555763711e-04,2.107963861e-03,1.559160724e-03,-1.334617811e-04,1.425698943e-03,1.009469253e-03,-2.000232388e-04,8.094460146e-04,1.353714398e-03,1.500728888e-04,1.503787287e-03,9.607542384e-04,-9.738502254e-05,8.633692159e-04
-3.7,-2.128574832e-04,-6.412659456e-05,-2.769840777e-04,1.588979186e-04,-7.055588773e-05,8.834203090e-05,4.442833506e-04,-4.446321143e-05,3.998201392e-04,3.478314755e-04,-4.081110214e-05,3.070203733e-04,5.510153074e-04,-1.038494350e-04,4.471658724e-04,6.845757546e-04,-1.354711856e-04,5.491045690e-04,7.250137444e-04,-1.122756131e-04,6.127381313e-04,2.257980183e-03,-1.416100198e-04,2.116370163e-03,2.838969061e-04,-8.381706594e-05,2.000798402e-04,1.563694206e-03,-2.014844370e-04,1.362209769e-03,1.479451560e-03,-1.668576001e-04,1.312593960e-03,1.260791142e-03,-2.365910171e-04,1.024200125e-03,1.484140118e-03,-1.983899406e-04,1.285750178e-03,1.451135137e-03,-5.487602791e-05,1.396259109e-03,1.615855193e-03,4.662817364e-05,1.662483366e-03,1.171626805e-03,-2.259635962e-05,1.149030445e-03,1.015830948e-03,-8.091318636e-05,9.349177614e-04,1.132131621e-03,-1.620489487e-05,1.115926726e-03,9.360688848e-04,-7.174033951e-05,8.643285453e-04,1.622180311e-03,1.432443075e-05,1.636504741e-03,1.578169769e-03,-1.993799544e-05,1.558231774e-03,8.955029296e-04,-3.518960337e-05,8.603133262e-04,9.948727997e-04,1.737894544e-05,1.012251745e-03,4.926860793e-04,5.979745765e-07,4.932840539e-04,1.548050867e-03,-1.178946209e-04,1.430156246e-03,1.037421486e-03,-7.543818772e-05,9.619832983e-04,2.340936786e-03,-1.414083770e-04,2.199528409e-03,1.651647867e-03,-1.271584350e-04,1.524489432e-03,2.208154535e-03,-1.445772049e-04,2.063577330e-03,1.860350878e-03,-1.111731374e-04,1.749177741e-03,2.780831508e-03,4.597920343e-05,2.826810711e-03,1.985887455e-03,2.716201556e-04,2.257507611e-03,1.507207290e-03,-1.467865987e-04,1.360420692e-03,9.293997657e-04,-2.243433184e-04,7.050564473e-04,1.316348474e-03,1.838673522e-04,1.500215826e-03,9.023536805e-04,-1.090667310e-04,7.932869495e-04
-3.6,-2.356894762e-04,-7.339213334e-05,-3.090816095e-04,1.814566666e-04,-8.388494794e-05,9.757171865e-05,4.799327856e-04,-4.726251544e-05,4.326702701e-04,3.908680873e-04,-4.587885863e-05,3.449892287e-04,6.190061651e-04,-1.132181482e-04,5.057880170e-04,6.650510944e-04,-1.401165061e-04,5.249345883e-04,7.343259424e-04,-1.169496605e-04,6.173762819e-04,2.238773549e-03,-1.412754672e-04,2.097498082e-03,3.284416449e-04,-9.224374898e-05,2.361978959e-04,1.584281058e-03,-2.182218823e-04,1.366059176e-03,1.566078470e-03,-1.868890060e-04,1.379189464e-03,1.207730766e-03,-2.443171228e-04,9.634136432e-04,1.453343019e-03,-2.115576765e-04,1.241785343e-03,1.422349042e-03,-7.620261626e-05,1.346146425e-03,1.580041688e-03,3.487069583e-05,1.614912384e-03,1.100840720e-03,-4.532388933e-05,1.055516831e-03,9.087208644e-04,-9.683080114e-05,8.118900632e-04,1.049575102e-03,-3.009255961e-05,1.019482542e-03,8.374681763e-04,-8.709037953e-05,7.503777968e-04,1.602775748e-03,3.994148439e-05,1.642717233e-03,1.649481493e-03,-2.107806189e-05,1.628403431e-03,9.008405395e-04,-2.609872443e-05,8.747418150e-04,1.069470030e-03,1.676278942e-05,1.086232819e-03,5.172876782e-04,6.460719703e-06,5.237483979e-04,1.578133494e-03,-1.210192124e-04,1.457114282e-03,1.067006714e-03,-7.074958437e-05,9.962571292e-04,2.382275908e-03,-1.254202273e-04,2.256855681e-03,1.718118411e-03,-1.243469374e-04,1.593771473e-03,2.336431770e-03,-1.438239152e-04,2.192607855e-03,1.974747345e-03,-9.275576608e-05,1.881991579e-03,2.891759455e-03,4.918796027e-05,2.940947416e-03,2.115722280e-03,2.854625286e-04,2.401184808e-03,1.447706730e-03,-1.593566455e-04,1.288350084e-03,8.471019864e-04,-2.475552899e-04,5.995466966e-04,1.276791458e-03,2.166746628e-04,1.493466121e-03,8.440570416e-04,-1.207229936e-04,7.233340480e-04
-3.5,-2.584209071e-04,-8.251525450e-05,-3.409361616e-04,2.041817454e-04,-9.699885253e-05,1.071828929e-04,5.125605160e-04,-4.999116998e-05,4.625693460e-04,4.326416778e-04,-5.091213654e-05,3.817295413e-04,6.845278716e-04,-1.226040089e-04,5.619238626e-04,6.418056111e-04,-1.442229006e-04,4.975827105e-04,7.398875777e-04,-1.215866972e-04,6.183008804e-04,2.210974916e-03,-1.418000295e-04,2.069174886e-03,3.706835139e-04,-1.006475457e-04,2.700359681e-04,1.598552185e-03,-2.347318471e-04,1.363820338e-03,1.646406724e-03,-2.070406637e-04,1.439366061e-03,1.150004457e-03,-2.506322934e-04,8.993721639e-04,1.418395085e-03,-2.256728613e-04,1.192722223e-03,1.388958575e-03,-9.784339407e-05,1.291115181e-03,1.539181838e-03,2.277262797e-05,1.561954466e-03,1.025702813e-03,-6.832172350e-05,9.573810897e-04,7.970035530e-04,-1.119118341e-04,6.850917189e-04,9.625387258e-04,-4.419406426e-05,9.183446615e-04,7.351066283e-04,-1.021249393e-04,6.329816890e-04,1.578818717e-03,6.450177777e-05,1.643320494e-03,1.714401250e-03,-2.229280964e-05,1.692108441e-03,9.028800575e-04,-1.693814238e-05,8.859419151e-04,1.139189919e-03,1.568042495e-05,1.154870344e-03,5.388244333e-04,1.208927552e-05,5.509137088e-04,1.602972005e-03,-1.234872848e-04,1.479484720e-03,1.093327169e-03,-6.568842183e-05,1.027638747e-03,2.416309991e-03,-1.099532672e-04,2.306356724e-03,1.779482284e-03,-1.209071131e-04,1.658575171e-03,2.458173821e-03,-1.420391133e-04,2.316134707e-03,2.084565082e-03,-7.373108750e-05,2.010833994e-03,2.993005170e-03,5.197694515e-05,3.044982115e-03,2.241003274e-03,2.970166040e-04,2.538019878e-03,1.380994699e-03,-1.711235940e-04,1.209871105e-03,7.630454296e-04,-2.693617806e-04,4.936836490e-04,1.235087172e-03,2.482413604e-04,1.483328532e-03,7.862459891e-04,-1.323314921e-04,6.539144969e-04
