Time,S1D1HbO,S1D1HbR,S1D1HbT,S2D2HbO,S2D2HbR,S2D2HbT,S3D3HbO,S3D3HbR,S3D3HbT,S4D4HbO,S4D4HbR,S4D4HbT,S5D5HbO,S5D5HbR,S5D5HbT,S6D6HbO,S6D6HbR,S6D6HbT,S7D7HbO,S7D7HbR,S7D7HbT,S8D8HbO,S8D8HbR,S8D8HbT,S9D9HbO,S9D9HbR,S9D9HbT,S10D10HbO,S10D10HbR,S10D10HbT,S11D11HbO,S11D11HbR,S11D11HbT,S12D12HbO,S12D12HbR,S12D12HbT,S13D13HbO,S13D13HbR,S13D13HbT,S14D14HbO,S14D14HbR,S14D14HbT,S15D15HbO,S15D15HbR,S15D15HbT,S16D16HbO,S16D16HbR,S16D16HbT,S17D17HbO,S17D17HbR,S17D17HbT,S18D18HbO,S18D18HbR,S18D18HbT,S19D19HbO,S19D19HbR,S19D19HbT,S20D20HbO,S20D20HbR,S20D20HbT,S21D21HbO,S21D21HbR,S21D21HbT,S22D22HbO,S22D22HbR,S22D22HbT,S23D23HbO,S23D23HbR,S23D23HbT,S24D24HbO,S24D24HbR,S24D24HbT,S25D25HbO,S25D25HbR,S25D25HbT,S26D26HbO,S26D26HbR,S26D26HbT,S27D27HbO,S27D27HbR,S27D27HbT,S28D28HbO,S28D28HbR,S28D28HbT,S29D29HbO,S29D29HbR,S29D29HbT,S30D30HbO,S30D30HbR,S30D30HbT,S31D31HbO,S31D31HbR,S31D31HbT,S32D32HbO,S32D32HbR,S32D32HbT,S33D33HbO,S33D33HbR,S33D33HbT,S34D34HbO,S34D34HbR,S34D34HbT,S35D35HbO,S35D35HbR,S35D35HbT,S36D36HbO,S36D36HbR,S36D36HbT
0.0,-0.002515511131,1.997356116e-05,-0.00249553757,-1.882614536e-05,0.0008205476081,0.0008017214627,-0.001690091051,0.0003394441908,-0.00135064686,-0.002065359202,5.676458445e-05,-0.002008594617,-0.002188295892,0.0001267051675,-0.002061590724,-0.0001498599967,0.0003769588057,0.000227098809,-0.002291628553,-3.456259232e-05,-0.002326191145,-0.001250560727,0.0002455990015,-0.001004961725,-0.001140523467,-2.815452842e-05,-0.001168677996,-0.001133929077,0.0001143011532,-0.001019627924,-0.001362875282,-4.488225933e-05,-0.001407757541,0.0004327931717,0.0001057540978,0.0005385472695,-0.0008253308819,0.0001136591491,-0.0007116717328,0.0004195241852,0.0004335498531,0.0008530740382,-0.001499763346,0.0006581841666,-0.0008415791797,-0.001788233438,0.0001063081422,-0.001681925296,-0.002140325816,0.0003691459944,-0.001771179822,-0.001319259297,7.815536174e-05,-0.001241103936,-0.0005926840286,-0.0005978114769,-0.001190495506,-0.0003652097488,0.0001342106026,-0.0002309991462,-0.000686909437,-6.526016475e-05,-0.0007521696017,-3.084123423e-05,-9.686763546e-05,-0.0001277088697,0.004758027262,0.001683175447,0.006441202709,-0.0006063962139,0.0001153692881,-0.0004910269259,-0.0001486273295,5.829916956e-06,-0.0001427974126,-0.0003651591337,0.0002987569385,-6.640219518e-05,-0.001241532399,-0.0006068913068,-0.001848423706,-0.0009338173702,0.0001493197106,-0.0007844976595,-0.001584871627,-3.599776044e-05,-0.001620869387,-0.0008150266498,-0.0001914799017,-0.001006506552,-0.001331345218,-6.667250125e-05,-0.001398017719,0.0002694025526,-0.0001167737,0.0001526288526,-0.001895658825,0.0002918588768,-0.001603799949,-0.0006201726486,-1.694057644e-06,-0.0006218667063,-0.0004018611728,0.0004340075281,3.214635538e-05,0.0009144102879,0.0002329145903,0.001147324878
0.1,-0.00249469117,3.473609546e-05,-0.002459955074,5.29178293e-05,0.0008451894973,0.0008981073266,-0.001602948886,0.0003933306281,-0.001209618258,-0.001952325728,9.06942944e-05,-0.001861631434,-0.00217705491,0.0001437329716,-0.002033321938,-0.0001906818933,0.0003625472328,0.0001718653395,-0.00220288557,-1.68934206e-05,-0.002219778991,-0.001224163519,0.0002496603942,-0.0009745031244,-0.001141881109,-2.610773805e-05,-0.001167988847,-0.001097481903,0.0001148728961,-0.0009826090068,-0.001385067082,-4.864482879e-05,-0.001433711911,0.0004956287827,7.633974048e-05,0.0005719685232,-0.0008215179145,0.0001291949467,-0.0006923229678,0.0005417101855,0.0004175080828,0.0009592182683,-0.001446180458,0.0006785574378,-0.0007676230197,-0.001816484087,0.0001159064833,-0.001700577604,-0.002129060406,0.0003382332942,-0.001790827112,-0.001332663028,8.159943742e-05,-0.001251063591,-0.0005818315489,-0.0005835935198,-0.001165425069,-0.0003685720955,0.0001292413965,-0.000239330699,-0.0006809928335,-6.035909579e-05,-0.0007413519293,0.0001611685016,-9.162345932e-05,6.95450423e-05,0.005047785006,0.001752867089,0.006800652094,-0.0003381323473,0.0001735724,-0.0001645599473,-0.000116212342,1.599694151e-05,-0.0001002154005,-0.0003420160986,0.0002889269838,-5.308911486e-05,-0.001286560402,-0.0005849075629,-0.001871467964,-0.0009171537743,0.0001397412725,-0.0007774125018,-0.001577663344,-3.940282958e-05,-0.001617066173,-0.0008374744218,-0.0001857323519,-0.001023206774,-0.001354500367,-6.167250357e-05,-0.001416172871,0.0002378824843,-0.0001169292633,0.0001209532211,-0.001914984203,0.00029667946,-0.001618304743,-0.0006231142382,2.383765118e-05,-0.000599276587,-0.0004167131982,0.0004307403766,1.402717846e-05,0.0009210666555,0.0002542608894,0.001175327545
0.2,-0.002478815281,4.689192492e-05,-0.002431923356,0.0001246507491,0.0008676165465,0.0009922672956,-0.001511731469,0.0004465259912,-0.001065205477,-0.001840304939,0.0001227087626,-0.001717596176,-0.002161739244,0.0001599741842,-0.00200176506,-0.0002302640131,0.0003480611771,0.000117797164,-0.002114783425,-2.177357544e-07,-0.002115001161,-0.001197711061,0.000253144757,-0.0009445663042,-0.00113990326,-2.38643465e-05,-0.001163767606,-0.001059937591,0.0001149237129,-0.000945013878,-0.001403968521,-5.254748741e-05,-0.001456516008,0.0005636058476,4.541663527e-05,0.0006090224829,-0.0008132773699,0.0001419707599,-0.00067130661,0.0006684222947,0.0003996032721,0.001068025567,-0.001387256467,0.0006962199264,-0.0006910365408,-0.00184230119,0.0001251329038,-0.001717168287,-0.002112421365,0.0003035424165,-0.001808878948,-0.001345236116,8.510196256e-05,-0.001260134153,-0.0005715681808,-0.0005669972611,-0.001138565442,-0.0003722434013,0.0001233685799,-0.0002488748215,-0.0006718237876,-5.53565167e-05,-0.0007271803043,0.0003587781193,-8.648474583e-05,0.0002722933735,0.005329286557,0.001816994847,0.007146281405,-6.388464419e-05,0.0002316688751,0.0001677842309,-8.130714729e-05,2.41187023e-05,-5.718844499e-05,-0.0003157373444,0.000276857804,-3.887954037e-05,-0.001329710131,-0.0005610144463,-0.001890724578,-0.0008961344865,0.0001288683524,-0.0007672661341,-0.001567232017,-4.292432549e-05,-0.001610156343,-0.0008581411677,-0.0001804025687,-0.001038543736,-0.001377273478,-5.658493566e-05,-0.001433858413,0.0002030171515,-0.0001167414434,8.627570814e-05,-0.001932001049,0.0002987905561,-0.001633210493,-0.000628985579,5.01165137e-05,-0.0005788690653,-0.0004345198734,0.0004260164442,-8.503429144e-06,0.000924476605,0.0002716727965,0.001196149402
0.3,-0.002467866605,5.643478051e-05,-0.002411431824,0.0001963809561,0.0008877921181,0.001084173074,-0.001416960129,0.0004987492407,-0.0009182108884,-0.001729987696,0.0001525856568,-0.001577402039,-0.00214253257,0.0001753153285,-0.001967217241,-0.0002681645678,0.0003335992777,6.543470985e-05,-0.002027795393,1.534005951e-05,-0.002012455333,-0.001171086888,0.0002559334862,-0.0009151534017,-0.001134742869,-2.147888147e-05,-0.00115622175,-0.001021390628,0.000114414992,-0.0009069756358,-0.001419491122,-5.662638294e-05,-0.001476117505,0.0006367393408,1.311930346e-05,0.0006498586443,-0.0008003404298,0.0001517827602,-0.0006485576696,0.000799332352,0.0003798559753,0.001179188327,-0.001323296035,0.0007111433834,-0.0006121526516,-0.001865384095,0.0001339304015,-0.001731453694,-0.002089874603,0.0002650999898,-0.001824774613,-0.001356693719,8.863813768e-05,-0.001268055582,-0.0005619881852,-0.0005479106113,-0.001109898797,-0.0003759498152,0.0001166103864,-0.0002593394288,-0.0006594094138,-5.031415093e-05,-0.0007097235648,0.000560701328,-8.152946425e-05,0.0004791718637,0.00560060206,0.001875023764,0.007475625825,0.0002141919025,0.000289180182,0.0005033720844,-4.392767817e-05,3.008394457e-05,-1.38437336e-05,-0.0002862227183,0.0002625425733,-2.368014499e-05,-0.001370430531,-0.0005356881418,-0.001906118673,-0.0008707132615,0.000116866954,-0.0007538463075,-0.001553538072,-4.647353107e-05,-0.001600011603,-0.0008766741908,-0.0001756620516,-0.001052336242,-0.001399393202,-5.145181112e-05,-0.001450845014,0.0001652718819,-0.0001161966598,4.907522213e-05,-0.001946341277,0.0002983280993,-0.001648013177,-0.0006372202856,7.667586055e-05,-0.0005605444251,-0.0004550797427,0.0004199428429,-3.513689976e-05,0.0009247766976,0.0002850209858,0.001209797683
0.4,-0.002461592926,6.341605546e-05,-0.002398176871,0.0002681344467,0.0009056963838,0.001173830831,-0.00131913098,0.0005497306729,-0.0007694003071,-0.001621962974,0.0001801324137,-0.00144183056,-0.002119622051,0.0001896482431,-0.001929973808,-0.0003039984748,0.0003192391399,1.524066511e-05,-0.001942317258,2.967414671e-05,-0.001912643112,-0.001144171749,0.0002579081975,-0.000886263552,-0.001126570735,-1.900814717e-05,-0.001145578882,-0.0009819377152,0.0001133112444,-0.0008686264708,-0.001431572301,-6.09220627e-05,-0.001492494364,0.0007149453722,-2.041892588e-05,0.0006945264463,-0.0007825341249,0.0001584865025,-0.0006240476225,0.0009340483778,0.000358287782,0.00129233616,-0.001254660037,0.0007233219607,-0.0005313380761,-0.001885432011,0.0001422355829,-0.001743196428,-0.002061001278,0.0002230330446,-0.001837968234,-0.001366750903,9.218627052e-05,-0.001274564632,-0.0005531590006,-0.0005262491935,-0.001079408194,-0.00037942009,0.0001089934924,-0.0002704265976,-0.0006437946355,-4.529820972e-05,-0.0006890928452,0.0007656237787,-7.683502353e-05,0.0006887887552,0.005859892227,0.001926483882,0.007786376108,0.0004939173443,0.0003456344045,0.0008395517488,-4.097205172e-06,3.380030198e-05,2.97030968e-05,-0.0002533838447,0.0002459888424,-7.395002294e-06,-0.001408176527,-0.0005094266399,-0.001917603167,-0.0008408680496,0.000103908162,-0.0007369598877,-0.001536551237,-4.996446288e-05,-0.0015865157,-0.0008927275438,-0.0001716647862,-0.00106439233,-0.001420556338,-4.632237152e-05,-0.001466878709,0.0001251795612,-0.0001152858807,9.893680542e-06,-0.001957662106,0.0002955007704,-0.001662161336,-0.0006471903579,0.0001030330971,-0.0005441572607,-0.0004781442297,0.0004126464178,-6.549781184e-05,0.0009221141168,0.0002942622873,0.001216376404
0.5,-0.002459510118,6.794371703e-05,-0.002391566401,0.0003399443123,0.0009213262308,0.001261270543,-0.00121871826,0.0005992104403,-0.0006195078199,-0.001516724019,0.0002051864352,-0.001311537584,-0.002093200343,0.0002028709133,-0.00189032943,-0.0003374405946,0.0003050387025,-3.240189213e-05,-0.001858672513,4.269718766e-05,-0.001815975326,-0.001116847039,0.0002589540006,-0.000857893038,-0.001115571169,-1.650989789e-05,-0.001132081067,-0.0009416786224,0.0001115808024,-0.0008300978199,-0.001440174372,-6.547823162e-05,-0.001505652603,0.0007980347396,-5.506686302e-05,0.0007429678765,-0.0007597851425,0.0001619982865,-0.000597786856,0.001072101883,0.0003349204672,0.00140702235,-0.001181769262,0.0007327697843,-0.0004489994773,-0.001902150615,0.0001499819924,-0.001752168623,-0.002025509726,0.0001775647676,-0.001847944958,-0.001375126294,9.572737095e-05,-0.001279398923,-0.0005451168335,-0.0005019538418,-0.001047070675,-0.000382389995,0.000100553197,-0.000281836798,-0.0006250611502,-4.037836426e-05,-0.0006654395144,0.0009722184354,-7.247699627e-05,0.0008997414392,0.006105420375,0.001970972305,0.00807639268,0.0007731070737,0.0004005693039,0.001173676378,3.815238114e-05,3.519633871e-05,7.334871986e-05,-0.0002171456187,0.0002272188684,1.007324974e-05,-0.00144241829,-0.0004827401215,-0.001925158411,-0.0008065991509,9.016325992e-05,-0.0007164358909,-0.001516250661,-5.331581345e-05,-0.001569566474,-0.0009059669955,-0.000168542607,-0.001074509602,-0.00144043423,-4.125187101e-05,-0.001481686101,8.333417563e-05,-0.0001140048581,-3.067068249e-05,-0.001965651875,0.0002905820224,-0.001675069852,-0.0006582270092,0.0001287063846,-0.0005295206246,-0.0005034196306,0.0004042744468,-9.914518378e-05,0.0009166465554,0.0002994415406,0.001216088096
0.6,-0.002460910789,7.018071414e-05,-0.002390730075,0.0004118397403,0.0009346948457,0.001346534586,-0.001116177938,0.0006469376263,-0.0004692403119,-0.001414675797,0.0002276149866,-0.00118706081,-0.002063467577,0.0002148883328,-0.001848579244,-0.0003682276966,0.0002910379791,-7.71897175e-05,-0.001777118557,5.433999903e-05,-0.001722778558,-0.00108899892,0.0002589644559,-0.0008300344642,-0.001101938016,-1.404150413e-05,-0.00111597952,-0.0009007172763,0.0001091964344,-0.0007915208418,-0.001445283891,-7.034044579e-05,-0.001515624337,0.0008857073512,-9.069659057e-05,0.0007950107606,-0.0007321210354,0.0001622944466,-0.0005698265888,0.001212936878,0.0003097751256,0.001522712004,-0.001105106892,0.0007395182879,-0.0003655886042,-0.001915258852,0.0001571036488,-0.001758155203,-0.001983235646,0.0001290025875,-0.001854233058,-0.001381546056,9.924491272e-05,-0.001282301144,-0.000537866757,-0.00047498458,-0.001012851337,-0.0003846074517,9.13335349e-05,-0.0002932739168,-0.0006033263673,-3.56265971e-05,-0.0006389529644,0.001179158324,-6.85280784e-05,0.001110630245,0.006335563737,0.0020081547,0.008343718436,0.001049594439,0.0004535365393,0.001503130978,8.277808658e-05,3.422319881e-05,0.0001170012854,-0.0001774483605,0.000206269577,2.882121646e-05,-0.001472646973,-0.0004561439978,-0.001928790971,-0.0007679278432,7.579846526e-05,-0.0006921293779,-0.001492626693,-5.645241351e-05,-0.001549079106,-0.0009160766147,-0.0001664017432,-0.001082478358,-0.001458680827,-3.630012097e-05,-0.001494980948,4.03812117e-05,-0.0001123541414,-7.197292971e-05,-0.001970035878,0.0002838998582,-0.00168613602,-0.0006696421158,0.000153229992,-0.0005164121238,-0.0005305704812,0.0003949943606,-0.0001355761206,0.0009085419733,0.0003006908286,0.001209232802
0.7,-0.002464878321,7.034257815e-05,-0.002394535743,0.0004838351748,0.0009458309615,0.001429666136,-0.001011951277,0.0006926702598,-0.000319281017,-0.001316143542,0.0002473148818,-0.00106882866,-0.00203063374,0.0002256134389,-0.001805020301,-0.0003961593352,0.0002772611295,-0.0001188982058,-0.001697854058,6.455107441e-05,-0.001633302984,-0.001060523353,0.0002578473586,-0.0008026759948,-0.001085871426,-1.16585463e-05,-0.001097529972,-0.0008591635364,0.0001061359331,-0.0007530276033,-0.001446912109,-7.555476538e-05,-0.001522466874,0.0009775467716,-0.0001271848577,0.0008503619139,-0.0006996688789,0.0001594085504,-0.0005402603285,0.001355901642,0.0002828716269,0.001638773269,-0.001025219438,0.0007436138256,-0.0002816056123,-0.001924496819,0.0001635383556,-0.001760958463,-0.001934133011,7.772093254e-05,-0.001856412079,-0.001385748843,0.0001027246471,-0.001283024196,-0.0005313894506,-0.0004453139179,-0.0009767033685,-0.0003858388195,8.13872879e-05,-0.0003044515316,-0.0005787427732,-3.111599841e-05,-0.0006098587716,0.00138512599,-6.505741997e-05,0.00132006857,0.006548826141,0.002037767211,0.008586593352,0.00132125634,0.0005041073012,0.001825363641,0.0001297218285,3.085557663e-05,0.0001605774051,-0.000134252275,0.0001831923246,4.894004964e-05,-0.001498379787,-0.0004301541316,-0.001928533918,-0.000724898089,6.096960088e-05,-0.0006639284881,-0.001465685005,-5.9306328e-05,-0.001524991333,-0.0009227679461,-0.0001653202922,-0.001088088238,-0.001474942333,-3.152985687e-05,-0.00150647219,-2.99575974e-06,-0.0001103388657,-0.0001133346255,-0.001970582651,0.0002758238049,-0.001694758846,-0.0006807502298,0.0001761681156,-0.0005045821142,-0.0005592253755,0.0003849920847,-0.0001742332908,0.00089797853,0.0002982248763,0.001196203406
0.8,-0.002470306338,6.869387192e-05,-0.002401612466,0.0005559204263,0.0009547779114,0.001510698338,-0.0009064679605,0.0007361765033,-0.0001702914571,-0.001221382002,0.0002642120676,-0.0009571699344,-0.001994921415,0.0002349681465,-0.001759953269,-0.0004210977551,0.0002637188128,-0.0001573789423,-0.001621027331,7.329604974e-05,-0.001547731281,-0.001031331517,0.0002555299868,-0.0007758015301,-0.001067575453,-9.413363222e-06,-0.001076988816,-0.0008171356256,0.0001023827222,-0.0007147529035,-0.001445096616,-8.116642653e-05,-0.001526263043,0.001073016143,-0.000164414269,0.0009086018738,-0.0006626509944,0.0001534268849,-0.0005092241095,0.001500244855,0.0002542287018,0.001754473557,-0.0009427149823,0.0007451152082,-0.0001975997741,-0.001929635032,0.0001692306677,-0.001760404365,-0.001878261372,2.414189291e-05,-0.001854119479,-0.001387491879,0.0001061539778,-0.001281337901,-0.0005256517618,-0.0004129238115,-0.0009385755733,-0.0003858760494,7.077571967e-05,-0.0003151003298,-0.0005514975365,-2.691961053e-05,-0.000578417147,0.001588820088,-6.213042564e-05,0.001526689662,0.006743853165,0.00205961921,0.008803472374,0.001586041824,0.0005518792064,0.00213792103,0.00017890522,2.509219123e-05,0.0002039974112,-8.754428633e-05,0.000158052353,7.050806668e-05,-0.00151916656,-0.0004052826108,-0.001924449171,-0.0006775822762,4.58176061e-05,-0.0006317646701,-0.001435452842,-6.181747882e-05,-0.001497270321,-0.0009257914714,-0.0001653465176,-0.001091137989,-0.001488868126,-2.700491846e-05,-0.001515873044,-4.609191293e-05,-0.0001079684645,-0.0001540603774,-0.001967109901,0.0002667479431,-0.001700361958,-0.0006908910374,0.0001971281384,-0.0004937628991,-0.0005889851426,0.0003744686735,-0.0002145164691,0.0008851444647,0.0002923329969,0.001177477462
0.9,-0.002475923416,6.554336514e-05,-0.002410380051,0.0006280524066,0.0009615926959,0.001589645103,-0.0008001483791,0.0007772370208,-2.291135829e-05,-0.00113058488,0.0002782611808,-0.0008523236994,-0.001956568537,0.0002428844751,-0.001713684062,-0.0004429668448,0.0002504106933,-0.0001925561515,-0.001546745289,8.055713807e-05,-0.001466188151,-0.001001354834,0.0002519626821,-0.0007493921518,-0.001047256326,-7.353675534e-06,-0.001054610001,-0.0007747627855,9.792647475e-05,-0.0006768363107,-0.001439903794,-8.721863507e-05,-0.001527122429,0.001171457074,-0.000202273343,0.0009691837314,-0.0006213786073,0.0001444831701,-0.0004768954372,0.001645117704,0.0002238646879,0.001868982392,-0.0008582580122,0.0007440907631,-0.0001141672491,-0.001930484479,0.0001741345201,-0.001756349959,-0.001815775588,-3.128273541e-05,-0.001847058324,-0.001386558099,0.0001095206674,-0.001277037431,-0.0005206175894,-0.0003778077398,-0.0008984253291,-0.0003845439541,5.956794942e-05,-0.0003249760047,-0.0005218117833,-2.310932928e-05,-0.0005449211126,0.001788960177,-5.980896429e-05,0.001729151213,0.006919449341,0.002073596601,0.008993045942,0.001842002736,0.0005964839371,0.002438486673,0.0002302239945,1.695579577e-05,0.0002471797903,-3.734605245e-05,0.0001309278123,9.358175988e-05,-0.001534598853,-0.0003820317901,-0.001916630643,-0.0006260893461,3.046553247e-05,-0.0005956238136,-0.001401986506,-6.393364676e-05,-0.001465920152,-0.0009249487902,-0.0001664982389,-0.001091447029,-0.001500122504,-2.278818313e-05,-0.001522910688,-8.82003006e-05,-0.0001052564796,-0.0001934567802,-0.001959489537,0.0002570713236,-0.001702418214,-0.0006994500467,0.0002157717456,-0.0004836783011,-0.0006194325497,0.0003636350426,-0.0002557975071,0.0008702376858,0.0002833686468,0.001153606333
1.0,-0.002480322515,6.123811461e-05,-0.002419084401,0.0007001489662,0.0009663451225,0.001666494089,-0.0006934046988,0.00081564827,0.0001222435713,-0.001043893932,0.0002894450488,-0.0007544488829,-0.001915830548,0.0002493057083,-0.001666524839,-0.0004617500939,0.0002373279172,-0.0002244221767,-0.001475082268,8.633247562e-05,-0.001388749793,-0.0009705487756,0.0002471201475,-0.0007234286282,-0.001025121015,-5.521419952e-06,-0.001030642435,-0.0007321874414,9.276371775e-05,-0.0006394237236,-0.001431431236,-9.375154411e-05,-0.00152518278,0.00127209288,-0.0002406547028,0.001031438177,-0.0005762453774,0.0001327536016,-0.0004434917758,0.001789582844,0.0001917988079,0.001981381652,-0.0007725610447,0.000740615255,-3.194578972e-05,-0.001926906179,0.0001782152404,-0.001748690939,-0.001746919002,-8.808659538e-05,-0.001835005597,-0.001382763976,0.0001128111854,-0.00126995279,-0.0005162575602,-0.0003399761592,-0.0008562337194,-0.0003817066325,4.784015323e-05,-0.0003338664793,-0.0004899387782,-1.975474739e-05,-0.0005096935256,0.001984291179,-5.815171599e-05,0.001926139463,0.007074595962,0.002079664953,0.009154260915,0.002087324651,0.0006375948261,0.002724919477,0.0002835433628,6.49235207e-06,0.0002900357148,1.62785861e-05,0.0001019084161,0.0001181870022,-0.001544320106,-0.000360886313,-0.001905206419,-0.0005705725663,1.501720015e-05,-0.0005555553662,-0.0013653786,-6.560993476e-05,-0.001430988535,-0.0009201033151,-0.000168763717,-0.001088867032,-0.001508396693,-1.893910113e-05,-0.001527335794,-0.0001286318523,-0.0001022205333,-0.0002308523856,-0.001947652453,0.0002471798927,-0.00170047256,-0.0007058748708,0.000231821004,-0.0004740538668,-0.0006501429565,0.0003527053833,-0.0002974375732,0.000853465147,0.0002717372293,0.001125202376
1.1,-0.00248199408,5.615678947e-05,-0.00242583729,0.0007720852168,0.0009691168708,0.001741202088,-0.000586640426,0.0008512263021,0.0002645858761,-0.0009614071556,0.0002977740359,-0.0006636331198,-0.001872981228,0.0002541874881,-0.00161879374,-0.000477487496,0.0002244554333,-0.0002530320627,-0.001406087861,9.063532649e-05,-0.001315452535,-0.0009388947509,0.0002410003792,-0.0006978943717,-0.001001375604,-3.951880775e-06,-0.001005327485,-0.0006895661103,8.689841307e-05,-0.0006026676972,-0.00141980911,-0.0001008013798,-0.001520610489,0.001374038009,-0.0002794517101,0.001094586299,-0.0005277208753,0.0001184520868,-0.0004092687885,0.001932630062,0.0001580529407,0.002090683003,-0.0006863736917,0.0007347675144,4.839382272e-05,-0.001918818913,0.0001814505193,-0.001737368393,-0.00167201603,-0.0001458023769,-0.001817818407,-0.001375967331,0.0001160091294,-0.001259958202,-0.0005125573365,-0.0002994630739,-0.0008120204104,-0.0003772720105,3.56748363e-05,-0.0003415971742,-0.0004561603268,-1.692184494e-05,-0.0004730821718,0.00217358906,-5.721434254e-05,0.002116374717,0.00720846759,0.002077871527,0.009286339117,0.002320356074,0.0006749335285,0.002995289603,0.000338695569,-6.230924622e-06,0.0003324646444,7.321855805e-05,7.109388745e-05,0.0001443124455,-0.001548033336,-0.0003423056139,-0.00189033895,-0.0005112344831,-4.427928663e-07,-0.000511677276,-0.001325763545,-6.680804528e-05,-0.00139257159,-0.0009111876024,-0.00017210424,-0.001083291842,-0.001513420365,-1.551089103e-05,-0.001528931256,-0.0001667347208,-9.888254736e-05,-0.0002656172682,-0.001931593346,0.0002374329945,-0.001694160352,-0.0007096866835,0.0002450587011,-0.0004646279825,-0.0006806955827,0.000341890614,-0.0003388049687,0.0008350418056,0.000257882672,0.001092924478
1.2,-0.002479361197,5.070256622e-05,-0.002428658631,0.0008436925578,0.0009700002897,0.001813692847,-0.0004802484574,0.0008838106207,0.0004035621634,-0.0008831855777,0.0003032851539,-0.0005799004238,-0.001828311578,0.0002574987602,-0.001570812818,-0.0004902714126,0.0002117741001,-0.0002784973124,-0.001339793142,9.349317515e-05,-0.001246299967,-0.0009063999243,0.0002336218881,-0.0006727780362,-0.000976223224,-2.6731512e-06,-0.0009788963752,-0.0006470686411,8.034248713e-05,-0.000566726154,-0.001405199747,-0.0001083996402,-0.001513599387,0.001476315311,-0.0003185551019,0.001157760209,-0.0004763413767,0.0001018239715,-0.0003745174052,0.002073197196,0.0001226538718,0.002195851068,-0.0006004697802,0.0007266292835,0.0001261595033,-0.001906204283,0.0001838302916,-0.001722373991,-0.001591460359,-0.0002039754182,-0.001795435777,-0.001366074347,0.0001190939744,-0.001246980373,-0.0005095245587,-0.0002563328283,-0.0007658573871,-0.0003711937925,2.316010838e-05,-0.0003480336842,-0.0004207812952,-1.467158994e-05,-0.0004354528851,0.002355668716,-5.704933914e-05,0.002298619376,0.00732044539,0.002068345515,0.009388790905,0.002539634048,0.0007082751004,0.003247909148,0.0003954803004,-2.112866402e-05,0.0003743516364,0.0001333142371,3.859231652e-05,0.0001719065536,-0.001545504008,-0.0003267197833,-0.001872223791,-0.0004483275634,-1.584827414e-05,-0.0004641758375,-0.001283320449,-6.749591831e-05,-0.001350816367,-0.0008982068872,-0.0001764580136,-0.001074664901,-0.001514971765,-1.254796718e-05,-0.001527519732,-0.000201911715,-9.526931001e-05,-0.0002971810251,-0.001911373846,0.0002281535543,-0.001683220292,-0.0007104882825,0.0002553248744,-0.0004551634081,-0.00071068464,0.0003313928235,-0.0003792918165,0.0008151880311,0.000242274424,0.001057462455
1.3,-0.002470814997,4.529581932e-05,-0.002425519178,0.0009147601368,0.0009690968605,0.001883856997,-0.0003746081802,0.0009132676797,0.0005386594995,-0.0008092585472,0.0003060409278,-0.0005032176193,-0.001782126906,0.0002592225335,-0.001522904373,-0.000500241625,0.0001992625497,-0.0003009790754,-0.001276215303,9.494677448e-05,-0.001181268528,-0.0008730955906,0.0002250203778,-0.0006480752129,-0.00094986177,-1.705910938e-06,-0.000951567681,-0.0006048761205,7.311622308e-05,-0.0005317598974,-0.001387795647,-0.0001165723478,-0.001504367995,0.001577880079,-0.0003578511705,0.001220028908,-0.0004226965295,8.313751561e-05,-0.0003395590139,0.002210193707,8.563582506e-05,0.002295829532,-0.0005156332715,0.0007162850979,0.0002006518264,-0.00188910902,0.0001853558693,-0.00170375315,-0.001505698141,-0.0002621772275,-0.001767875369,-0.001353045131,0.0001220401896,-0.001231004942,-0.0005071933144,-0.0002106881887,-0.0007178815032,-0.0003634711133,1.038867342e-05,-0.0003530824399,-0.0003841230735,-1.30586255e-05,-0.000397181699,0.002529393751,-5.770559022e-05,0.002471688161,0.007410125611,0.002051296164,0.009461421775,0.002743904485,0.0007374511669,0.003481355652,0.0004536677351,-3.810160806e-05,0.0004155661271,0.0001963597137,4.518447347e-06,0.000200878161,-0.001536558777,-0.0003145293179,-0.001851088095,-0.0003821514034,-3.115020081e-05,-0.0004133016042,-0.001238273585,-6.764822542e-05,-0.001305921811,-0.0008812402632,-0.0001817442971,-0.00106298456,-0.00151288568,-1.008429563e-05,-0.001522969976,-0.0002336352317,-9.141320128e-05,-0.000325048433,-0.001887121377,0.0002196190889,-0.001667502288,-0.0007079701054,0.0002625122584,-0.000445457847,-0.0007397293619,0.0003214005151,-0.0004183288468,0.0007941238976,0.0002253973398,0.001019521237
1.4,-0.002454749144,4.03667061e-05,-0.002414382438,0.0009850378634,0.0009665153962,0.00195155326,-0.0002700826672,0.0009394936713,0.0006694110041,-0.0007396280503,0.0003061280546,-0.0004334999957,-0.001734743118,0.000259356457,-0.001475386661,-0.0005075800627,0.0001868987867,-0.0003206812761,-0.001215361356,9.50491649e-05,-0.001120312191,-0.0008390352247,0.0002152457642,-0.0006237894605,-0.0009224820625,-1.063445177e-06,-0.0009235455076,-0.0005631784266,6.524842755e-05,-0.0004979299991,-0.001367816906,-0.0001253393936,-0.001493156299,0.001677646398,-0.0003972214533,0.001280424944,-0.0003674138715,6.26747618e-05,-0.0003047391097,0.002342523821,4.704296449e-05,0.002389566786,-0.0004326440428,0.0007038227027,0.0002711786599,-0.001867644977,0.0001860386508,-0.001681606326,-0.001415208964,-0.0003200174343,-0.001735226398,-0.001336897343,0.0001248164977,-0.001212080845,-0.000505623976,-0.0001626808323,-0.0006683048083,-0.000354147163,-2.543531682e-06,-0.0003566906947,-0.0003465173628,-1.213015558e-05,-0.0003586475184,0.00269368665,-5.922765999e-05,0.00263445899,0.007477322216,0.002027008958,0.009504331174,0.002932136163,0.0007623512626,0.003694487425,0.0005130029913,-5.704173893e-05,0.0004559612523,0.0002621068964,-3.100817262e-05,0.0002310987238,-0.001521083511,-0.0003061060719,-0.001827189583,-0.000313049911,-4.631478968e-05,-0.0003593647007,-0.00119089172,-6.724768282e-05,-0.001258139403,-0.0008604416449,-0.0001878667781,-0.001048308423,-0.001507059179,-8.142812584e-06,-0.001515201991,-0.0002614598313,-8.735261459e-05,-0.0003488124459,-0.00185902319,0.0002120523923,-0.001646970798,-0.0007019148335,0.0002665626512,-0.0004353521823,-0.0007674827245,0.0003120841506,-0.0004553985739,0.0007720597709,0.0002077454308,0.0009798052017
1.5,-0.002429593308,3.634762251e-05,-0.002393245686,0.001054239861,0.000962370107,0.002016609968,-0.0001670168414,0.0009624164221,0.0007953995807,-0.0006742727537,0.0003036558815,-0.0003706168722,-0.00168648347,0.0002579132294,-0.00142857024,-0.0005125057514,0.0001746615392,-0.0003378442123,-0.001157231729,9.386463827e-05,-0.001063367091,-0.000804293201,0.0002043597647,-0.0005999334363,-0.0008942670221,-7.517792118e-07,-0.0008950188013,-0.0005221724195,5.67763627e-05,-0.0004653960568,-0.001345509159,-0.0001347139965,-0.001480223156,0.001774510649,-0.0004365424165,0.001337968232,-0.0003111441777,4.072381652e-05,-0.0002704203612,0.002469107046,6.931617806e-06,0.002476038664,-0.0003522646156,0.0006893334995,0.0003370688839,-0.001841987659,0.0001858986158,-0.001656089044,-0.001320490358,-0.0003771514419,-0.001697641799,-0.001317707902,0.0001273850307,-0.001190322871,-0.000504897688,-0.0001125223361,-0.0006174200241,-0.0003433080719,-1.553880752e-05,-0.0003588468794,-0.0003083013505,-1.192500212e-05,-0.0003202263526,0.002847537785,-6.165481662e-05,0.002785882968,0.007522063888,0.0019958404,0.009517904288,0.003103528296,0.0007829226978,0.003886450994,0.000573209871,-7.783703926e-05,0.0004953728317,0.0003302691648,-6.78652069e-05,0.0002624039579,-0.001499024453,-0.0003017920348,-0.001800816488,-0.0002414116434,-6.13210991e-05,-0.0003027327425,-0.001141487782,-6.628653565e-05,-0.001207774318,-0.0008360417343,-0.0001947160239,-0.001030757758,-0.001497455653,-6.735449121e-06,-0.001504191102,-0.0002850328911,-8.313178083e-05,-0.0003681646719,-0.001827317329,0.0002056132028,-0.001621704126,-0.0006922011855,0.0002674649665,-0.000424736219,-0.0007936397034,0.000303592085,-0.0004900476183,0.0007491843506,0.0001898178592,0.0009390022099
1.6,-0.002393845932,3.366546785e-05,-0.002360180465,0.001122047576,0.0009567786345,0.00207882621,-6.573677631e-05,0.0009819964514,0.0009162596751,-0.0006131522139,0.0002987547127,-0.0003143975012,-0.001637676449,0.0002549208518,-0.001382755597,-0.0005152703264,0.0001625314041,-0.0003527389222,-0.001101824176,9.146765722e-05,-0.001010356519,-0.0007689646351,0.0001924339526,-0.0005765306824,-0.0008653920743,-7.698245912e-07,-0.0008661618989,-0.0004820612102,4.774550952e-05,-0.0004343157007,-0.001321142511,-0.0001447022453,-0.001465844756,0.001867369336,-0.0004756838975,0.001391685438,-0.0002545495643,1.757340898e-05,-0.0002369761554,0.002588895313,-3.46279218e-05,0.002554267391,-0.0002752284172,0.0006729126434,0.0003976842261,-0.001812374163,0.0001849627932,-0.00162741137,-0.0012220518,-0.0004332806264,-0.001655332426,-0.001295613513,0.0001297006723,-0.001165912841,-0.000505107892,-6.049113126e-05,-0.0005655990233,-0.0003310824759,-2.849911264e-05,-0.0003595815885,-0.0002698145372,-1.247278587e-05,-0.000282287323,0.002990012567,-6.501985676e-05,0.00292499271,0.007544586508,0.001958211958,0.009502798467,0.003257512499,0.0007991693065,0.004056681805,0.0006339920347,-0.0001003744074,0.0005336176273,0.0004005231253,-0.0001059296336,0.0002945934917,-0.001470394363,-0.000301894946,-0.001772289309,-0.0001676735881,-7.615856106e-05,-0.0002438321491,-0.001090419549,-6.476760886e-05,-0.001155187158,-0.0008083508964,-0.000202171537,-0.001010522433,-0.001484107725,-5.863354379e-06,-0.001489971079,-0.0003041036044,-7.880003129e-05,-0.0003829036357,-0.001792282649,0.0002003927286,-0.001591889921,-0.0006788080477,0.0002652550345,-0.0004135530132,-0.0008179458671,0.0002960471357,-0.0005218987314,0.0007256525694,0.0001721147067,0.0008977672761
1.7,-0.002346106422,3.27337504e-05,-0.002313372671,0.001188112387,0.0009498600983,0.002137972485,3.345033898e-05,0.0009982274224,0.001031677761,-0.0005562112803,0.0002915739647,-0.0002646373156,-0.00158865473,0.0002504227351,-0.001338231995,-0.0005161541359,0.0001504918139,-0.0003656623219,-0.001049137973,8.794177673e-05,-0.0009611961965,-0.000733166331,0.0001795482267,-0.0005536181043,-0.0008360266828,-1.109530986e-06,-0.0008371362138,-0.0004430543571,3.820921778e-05,-0.0004048451393,-0.001295011216,-0.0001553026826,-0.001450313899,0.001955131637,-0.0005145065709,0.001440625066,-0.0001982950958,-6.49041104e-06,-0.0002047855069,0.002700887166,-7.755010129e-05,0.002623337065,-0.0002022295031,0.0006546586946,0.0004524291914,-0.001779101072,0.0001832639602,-0.001595837112,-0.001120420615,-0.0004881438045,-0.00160856442,-0.001270810889,0.0001317113535,-0.001139099535,-0.0005063523591,-6.932179166e-06,-0.0005132845383,-0.0003176413516,-4.132753424e-05,-0.0003589688859,-0.0002313968045,-1.379327867e-05,-0.0002451900832,0.003120257064,-6.934787145e-05,0.003050909192,0.007545322193,0.001914603442,0.009459925635,0.003393749972,0.0008111492356,0.004204899208,0.0006950312205,-0.0001245402489,0.0005704909717,0.0004725084183,-0.0001450798526,0.0003274285657,-0.001435283883,-0.0003066810892,-0.001741964972,-9.232627424e-05,-9.082518993e-05,-0.0001831514642,-0.001038090865,-6.270481899e-05,-0.001100795684,-0.0007777618404,-0.0002101039641,-0.0009878658045,-0.001467119127,-5.517301917e-06,-0.001472636429,-0.0003185302007,-7.441060839e-05,-0.0003929408091,-0.001754229481,0.00019641222,-0.001557817261,-0.0006618198541,0.0002600168104,-0.0004018030437,-0.0008402058803,0.0002895436165,-0.0005506622638,0.0007015757298,0.000155131191,0.0008567069208
1.8,-0.00228510639,3.394468942e-05,-0.002251161701,0.001252058165,0.0009417332197,0.002193791384,0.0001302562035,0.001011136178,0.001141392382,-0.0005033844449,0.0002822802056,-0.0002211042393,-0.001539754732,0.0002444776662,-0.001295277066,-0.0005154626908,0.0001385298082,-0.0003769328826,-0.0009991780567,8.337857404e-05,-0.0009157994826,-0.0006970386116,0.0001657898115,-0.0005312488001,-0.0008063367452,-1.756146242e-06,-0.0008080928915,-0.0004053684247,2.822822212e-05,-0.0003771402026,-0.001267433434,-0.0001665059356,-0.001433939369,0.00203672921,-0.0005528595572,0.001483869652,-0.0001430432607,-3.118660437e-05,-0.0001742298651,0.002804140048,-0.0001217333083,0.00268240674,-0.000133913456,0.0006346732047,0.0005007597487,-0.001742522289,0.0001808398947,-0.001561682395,-0.001016157128,-0.0005415019246,-0.001557659052,-0.001243556724,0.0001333597266,-0.001110196998,-0.000508727182,4.775010349e-05,-0.0004609770785,-0.0003031973935,-5.392985158e-05,-0.000357127245,-0.0001933869199,-1.589599873e-05,-0.0002092829186,0.003237503157,-7.465504514e-05,0.003162848111,0.007524885327,0.001865545715,0.009390431043,0.003512124368,0.0008189717581,0.004331096126,0.0007559836169,-0.0001502192701,0.0006057643468,0.0005458267286,-0.0001851976582,0.0003606290703,-0.001393877954,-0.0003163648519,-0.001710242806,-1.591778187e-05,-0.0001053266902,-0.0001212444721,-0.0009849520352,-6.012322196e-05,-0.001045075257,-0.0007447500966,-0.0002183776624,-0.000963127759,-0.001446665233,-5.678365787e-06,-0.001452343599,-0.0003282846764,-7.001906264e-05,-0.000398303739,-0.001713492223,0.0001936256444,-0.001519866579,-0.0006414323286,0.0002518834968,-0.0003895488318,-0.0008602903072,0.0002841445849,-0.0005761457223,0.0006770150651,0.0001393501371,0.0008163652022
1.9,-0.002209738821,3.766151506e-05,-0.002172077306,0.001313484614,0.000932514622,0.002245999236,0.0002244118799,0.001020782354,0.001245194234,-0.0004545997384,0.0002710550778,-0.0001835446605,-0.001491316076,0.0002371596012,-0.001254156475,-0.0005135230293,0.000126636581,-0.0003868864483,-0.0009519585269,7.787652602e-05,-0.0008740820009,-0.0006607474305,0.0001512527392,-0.0005094946913,-0.0007764874401,-2.68872757e-06,-0.0007791761677,-0.0003692271111,1.78699693e-05,-0.0003513571418,-0.001238750053,-0.0001782944264,-0.001417044479,0.002111126593,-0.0005905790074,0.001520547585,-8.944975278e-05,-5.624181581e-05,-0.0001456915686,0.002897782124,-0.0001670594147,0.002730722709,-7.086936472e-05,0.0006130609135,0.0005421915488,-0.001703046019,0.0001777332359,-0.001525312783,-0.0009098723971,-0.0005931202918,-0.001502992689,-0.001214166417,0.0001345859005,-0.001079580516,-0.0005123216039,0.0001031026587,-0.0004092189452,-0.0002880031968,-6.621592235e-05,-0.0003542191192,-0.0001561204902,-1.877999784e-05,-0.0001749004881,0.00334107452,-8.09474777e-05,0.003260127042,0.007484055869,0.001811612509,0.009295668377,0.003612730609,0.0008227930993,0.004435523709,0.0008164762515,-0.0001772921196,0.0006391841319,0.0006200418076,-0.0002261697911,0.0003938720164,-0.00134647493,-0.0003310952952,-0.001677570225,6.094562614e-05,-0.000119676051,-5.873042489e-05,-0.0009314976699,-5.70585174e-05,-0.0009885561873,-0.000709869934,-0.0002268534402,-0.0009367233742,-0.001422991443,-6.31886313e-06,-0.001429310306,-0.0003334538313,-6.568126349e-05,-0.0003991350948,-0.001670423689,0.0001919243973,-0.001478499292,-0.0006179561779,0.0002410367748,-0.000376919403,-0.0008781390101,0.0002798794623,-0.0005982595478,0.0006519787647,0.0001252328952,0.0007772116599
2.0,-0.002119083286,4.421122167e-05,-0.002074872064,0.001371972368,0.0009223173903,0.002294289758,0.0003156691124,0.001027257421,0.001342926533,-0.000409781697,0.0002580930579,-0.0001516886391,-0.001443680186,0.0002285571868,-0.001215123,-0.0005106794797,0.0001148078175,-0.0003958716622,-0.000907504904,7.153976898e-05,-0.000835965135,-0.0006244856621,0.0001360372902,-0.000488448372,-0.0007466459621,-3.880982122e-06,-0.0007505269442,-0.0003348601518,7.207756709e-06,-0.0003276523951,-0.001209321693,-0.0001906421849,-0.001399963878,0.002177335308,-0.0006274879037,0.001549847404,-3.815909206e-05,-8.139333015e-05,-0.0001195524222,0.002981025094,-0.0002133934552,0.002767631639,-1.362267441e-05,0.0005899309433,0.0005763082689,-0.001661129635,0.0001739915142,-0.001487138121,-0.0008022414987,-0.00064275262,-0.001444994119,-0.0011830101,0.0001353306063,-0.001047679494,-0.0005172119652,0.0001586355892,-0.000358576376,-0.000272347604,-7.810054939e-05,-0.0003504481534,-0.000119926496,-2.243368774e-05,-0.0001423601837,0.003430394255,-8.82200172e-05,0.003342174238,0.007423760508,0.001753411272,0.00917717178,0.003695860382,0.0008228114062,0.004518671789,0.0008761055798,-0.0002056325017,0.0006704730781,0.000694682402,-0.0002678887575,0.0004267936445,-0.001293502682,-0.0003509422207,-0.001644444903,0.0001376048898,-0.0001338932497,3.711640092e-06,-0.0008782603944,-5.355593165e-05,-0.000931816326,-0.0006737443751,-0.0002353910271,-0.0009091354022,-0.001396408497,-7.403555674e-06,-0.001403812053,-0.0003342355666,-6.145110365e-05,-0.0003956866703,-0.001625389112,0.0001911408775,-0.001434248234,-0.0005918170166,0.000227704521,-0.0003641124956,-0.0008937604994,0.0002767425484,-0.000617017951,0.0006264223222,0.0001132094378,0.00073963176
2.1,-0.002012425393,5.387815007e-05,-0.001958547243,0.001427090517,0.0009112499296,0.002338340447,0.0004038026623,0.001030683063,0.001434485725,-0.0003688530951,0.0002435990086,-0.0001252540865,-0.00139718748,0.0002187729083,-0.001178414572,-0.0005072884287,0.0001030439009,-0.0004042445278,-0.0008658547375,6.447675346e-05,-0.0008013779841,-0.0005884727982,0.0001202490208,-0.0004682237774,-0.000716983606,-5.302379763e-06,-0.0007222859857,-0.000302500633,-3.680258756e-06,-0.0003061808918,-0.001179523478,-0.0002035147596,-0.001383038237,0.002234432555,-0.0006633969213,0.001571035634,1.020115402e-05,-0.000106391471,-9.6190317e-05,0.003053178371,-0.0002605833473,0.002792595023,3.737151446e-05,0.0005653987514,0.0006027702659,-0.00161727158,0.0001696668919,-0.001447604689,-0.0006940095856,-0.0006901291018,-0.001384138687,-0.001150505114,0.0001355382918,-0.001014966822,-0.0005234547357,0.0002138336033,-0.0003096211324,-0.0002565499222,-8.950384325e-05,-0.0003460537655,-8.512221752e-05,-2.683464465e-05,-0.0001119568622,0.003504993934,-9.645520681e-05,0.003408538727,0.00734505249,0.001691573349,0.009036625839,0.003761985299,0.0008192611098,0.004581246409,0.000934440221,-0.0002351048267,0.0006993353942,0.0007692492169,-0.0003102527581,0.0004589964588,-0.001235525444,-0.0003758851955,-0.001611410639,0.0002133611762,-0.0001480049418,6.535623444e-05,-0.0008258002339,-4.966860239e-05,-0.0008754688363,-0.0006370500817,-0.000243850855,-0.0008809009367,-0.001367284463,-8.891013269e-06,-0.001376175477,-0.0003309303274,-5.737806678e-05,-0.0003883083942,-0.001578758254,0.0001910502193,-0.001387708034,-0.0005635511553,0.0002121591365,-0.0003513920188,-0.0009072279497,0.0002746929401,-0.0006325350096,0.0006002518251,0.0001036690525,0.0007039208776
2.2,-0.001889269387,6.689881571e-05,-0.001822370571,0.001478406491,0.0008994152043,0.002377821695,0.0004886133524,0.001031208914,0.001519822266,-0.0003317356743,0.0002277855366,-0.0001039501377,-0.001352173298,0.0002079218497,-0.001144251448,-0.0005037121034,9.135007585e-05,-0.0004123620276,-0.00082705677,5.67988903e-05,-0.0007702578797,-0.00055295345,0.0001039978427,-0.0004489556073,-0.0006876770108,-6.919372208e-06,-0.000694596383,-0.0002723811225,-1.471214385e-05,-0.0002870932664,-0.001149738217,-0.0002168692299,-0.001366607446,0.002281581822,-0.0006981060041,0.001583475818,5.502843838e-05,-0.000131001647,-7.597320862e-05,0.003113663016,-0.0003084597751,0.002805203241,8.173472351e-05,0.0005395882165,0.00062132294,-0.00157200065,0.0001648155667,-0.001407185083,-0.0005859922123,-0.0007349490132,-0.001320941225,-0.001117105113,0.000135159886,-0.0009819452271,-0.0005310808,0.0002681669508,-0.0002629138493,-0.0002409524917,-0.000100351486,-0.0003413039777,-5.200741266e-05,-3.194953352e-05,-8.395694618e-05,0.003564522568,-0.0001056225547,0.003458900013,0.007249090524,0.001626743898,0.008875834422,0.003811738447,0.0008124069403,0.004624145388,0.0009910281553,-0.0002655634414,0.0007254647139,0.0008432252492,-0.000353164757,0.0004900604922,-0.001173238744,-0.0004058078531,-0.001579046597,0.0002874949263,-0.0001620439618,0.0001254509645,-0.0007746914984,-4.545569674e-05,-0.0008201471951,-0.0006004996583,-0.0002520950971,-0.0008525947554,-0.001336034287,-1.073493238e-05,-0.00134676922,-0.0003239287218,-5.350485786e-05,-0.0003774335797,-0.001530896623,0.0001913723855,-0.001339524237,-0.0005337966363,0.0001947167434,-0.000339079893,-0.0009186729462,0.0002736559141,-0.0006450170321,0.0005733291909,9.695268355e-05,0.0006702818744
2.3,-0.001749343618,8.345830493e-05,-0.001665885313,0.001525497243,0.00088691053,0.002412407773,0.0005699309756,0.001029009763,0.001598940738,-0.0002983506906,0.0002108702279,-8.748046272e-05,-0.001308963533,0.0001961301645,-0.001112833369,-0.0005003118382,7.973658893e-05,-0.0004205752493,-0.0007911693954,4.861927494e-05,-0.0007425501205,-0.0005181954884,8.73977645e-05,-0.0004307977239,-0.0006589087952,-8.696536017e-06,-0.0006676053312,-0.0002447295873,-2.580337885e-05,-0.0002705329662,-0.001120349333,-0.0002306543655,-0.001351003699,0.002318050933,-0.0007314063404,0.001586644593,9.575525111e-05,-0.0001550070262,-5.925177506e-05,0.0031620228,-0.0003568365001,0.0028051863,0.0001191703777,0.0005126331169,0.0006318034946,-0.001525863907,0.0001594969041,-0.001366367002,-0.0004790722125,-0.0007768776464,-0.001255949859,-0.001083287304,0.0001341551309,-0.0009491321736,-0.0005400942763,0.0003211033308,-0.0002189909456,-0.0002259127998,-0.0001105752382,-0.000336488038,-2.085918868e-05,-3.773434013e-05,-5.859352881e-05,0.003608753526,-0.0001156782777,0.003493075248,0.007137116887,0.001559572006,0.008696688892,0.003845894455,0.0008025378164,0.004648432271,0.001045406229,-0.0002968533532,0.0007485528755,0.0009160870437,-0.0003965308424,0.0005195562013,-0.001107455274,-0.0004404974783,-0.001547952753,0.0003592867995,-0.0001760486105,0.000183238189,-0.0007255100081,-4.098038907e-05,-0.0007664903972,-0.0005648240681,-0.0002599882788,-0.0008248123469,-0.001303108375,-1.288535272e-05,-0.001315993728,-0.0003136971164,-4.98651502e-05,-0.0003635622666,-0.001482157816,0.0001917764113,-0.001290381404,-0.000503278388,0.0001757344095,-0.0003275439785,-0.0009282774548,0.0002735254421,-0.0006547520126,0.0005454788795,9.334670494e-05,0.0006388255845
2.4,-0.001592599028,0.0001036884281,-0.0014889106,0.001567960213,0.0008738280618,0.002441788275,0.0006476162068,0.001024282318,0.001671898525,-0.0002686202553,0.0001930728312,-7.554742412e-05,-0.001267871111,0.0001835333817,-0.001084337729,-0.0004974415204,6.821880541e-05,-0.000429222715,-0.0007582592299,4.005149226e-05,-0.0007182077376,-0.0004844879249,7.056712222e-05,-0.0004139208027,-0.0006308679111,-1.059749841e-05,-0.0006414654095,-0.0002197659817,-3.686815341e-05,-0.0002566341351,-0.00109173479,-0.0002448109838,-0.001336545773,0.002343224424,-0.0007630825957,0.001580141828,0.0001318589745,-0.0001782113318,-4.635235733e-05,0.003197930404,-0.0004055112952,0.002792419109,0.0001494673488,0.0004846772842,0.000634144633,-0.001479414759,0.0001537722414,-0.001325642518,-0.0003741942199,-0.0008155465657,-0.001189740786,-0.001049540062,0.0001324945537,-0.0009170455079,-0.0005504784962,0.0003721231605,-0.0001783553357,-0.0002117963936,-0.0001201136194,-0.000331910013,8.071326505e-06,-4.413493115e-05,-3.606360465e-05,0.003637587948,-0.00012656547,0.003511022478,0.007010435041,0.001490701404,0.008501136445,0.003865348043,0.0007899607877,0.004655308831,0.001097109044,-0.0003288114487,0.0007682975953,0.0009873141354,-0.0004402580722,0.0005470560632,-0.001039087207,-0.0004796479943,-0.001518735201,0.000428036731,-0.0001900621658,0.0002379745652,-0.0006788226625,-3.630770036e-05,-0.0007151303629,-0.0005307566813,-0.0002673977889,-0.0007981544701,-0.001268981509,-1.528987893e-05,-0.001284271388,-0.0003007630141,-4.648134759e-05,-0.0003472443617,-0.001432877939,0.0001918868887,-0.001240991051,-0.0004727876016,0.00015560245,-0.0003171851516,-0.0009362643908,0.0002741677629,-0.0006620966279,0.0005164970666,9.307708227e-05,0.0006095741489
2.5,-0.001419201046,0.0001276676534,-0.001291533393,0.001605422687,0.0008602558783,0.002465678565,0.0007215611217,0.001017241627,0.001738802749,-0.0002424701215,0.0001746124187,-6.785770278e-05,-0.001229193991,0.0001702746394,-0.001058919351,-0.0004954418136,5.681733918e-05,-0.0004386244744,-0.0007284002833,3.120847171e-05,-0.0006971918116,-0.0004521381681,5.362871132e-05,-0.0003985094568,-0.0006037498582,-1.258555217e-05,-0.0006163354104,-0.0001976999073,-4.782069126e-05,-0.0002455205986,-0.001064262585,-0.0002592725055,-0.00132353509,0.002356609476,-0.0007929154488,0.001563694027,0.0001628686098,-0.000200439315,-3.757070517e-05,0.003221188294,-0.0004542674934,0.0027669208,0.0001725010646,0.0004558730506,0.0006283741152,-0.001433202476,0.0001477034561,-0.00128549902,-0.0002723565294,-0.0008505569437,-0.001122913473,-0.001016352746,0.0001301613058,-0.0008861914403,-0.0005622092857,0.0004207383785,-0.0001414709072,-0.0001989712509,-0.0001289124594,-0.0003278837102,3.456023522e-05,-5.108782525e-05,-1.652759003e-05,0.00365105423,-0.0001382145439,0.003512839686,0.006870387658,0.0014207621,0.008291149758,0.003871091374,0.000774995178,0.004646086552,0.001145676084,-0.0003612677916,0.0007844082923,0.00105639523,-0.0004842519866,0.0005721432434,-0.0009691283595,-0.0005228646274,-0.001491992987,0.0004930788929,-0.0002041330155,0.0002889458774,-0.0006351795659,-3.150229993e-05,-0.0006666818659,-0.0004990192821,-0.0002741944494,-0.0007732137315,-0.001234143042,-1.78949127e-05,-0.001252037954,-0.0002857013013,-4.336237533e-05,-0.0003290636766,-0.001383372511,0.0001912925746,-0.001192079936,-0.0004431573842,0.000134731601,-0.0003084257832,-0.000942887648,0.0002754262099,-0.0006674614381,0.0004861642658,9.630286002e-05,0.0005824671258
2.6,-0.00122951588,0.0001554225849,-0.001074093295,0.00163754876,0.0008462793195,0.002483828079,0.0007916884434,0.001008117221,0.001799805665,-0.0002198339906,0.0001557045492,-6.412944139e-05,-0.001193214629,0.0001565028998,-0.001036711729,-0.0004946354584,4.555824691e-05,-0.0004490772115,-0.0007016737879,2.220141104e-05,-0.0006794723769,-0.0004214685592,3.670956746e-05,-0.0003847589918,-0.000577756677,-1.462393486e-05,-0.0005923806119,-0.0001787292518,-5.857648857e-05,-0.0002373057403,-0.001038287717,-0.0002739656587,-0.001312253376,0.002357836374,-0.0008206845507,0.001537151824,0.0001883671309,-0.0002215335108,-3.31663799e-05,0.00323172508,-0.0005028760104,0.00272884907,0.0001882316019,0.0004263783538,0.0006146099557,-0.001387763757,0.0001413516375,-0.001246412119,-0.0001745998194,-0.0008814877406,-0.00105608756,-0.0009842081873,0.0001271529216,-0.0008570552658,-0.0005752733159,0.0004665121959,-0.00010876112,-0.0001878034592,-0.0001369251389,-0.0003247285981,5.841050131e-05,-5.852111363e-05,-1.106123129e-07,0.003649304112,-0.000150543903,0.003498760209,0.006718336229,0.001350363074,0.008068699303,0.003864190882,0.0007579670253,0.004622157907,0.001190657949,-0.0003940476187,0.0007966103304,0.001122831403,-0.0005284139736,0.0005944174297,-0.000898635893,-0.0005696703734,-0.001468306266,0.0005537917758,-0.0002183151711,0.0003354766046,-0.0005951076208,-2.662654298e-05,-0.0006217341638,-0.0004703096797,-0.0002802532686,-0.0007505629483,-0.001199088786,-2.064681852e-05,-0.001219735604,-0.0002691215187,-4.050182834e-05,-0.000309623347,-0.001333936555,0.0001895574777,-0.001144379078,-0.0004152376286,0.0001135374711,-0.0003017001576,-0.0009484226004,0.0002771271182,-0.0006712954822,0.000454260669,0.000103108436,0.000557369105
2.7,-0.001024092654,0.0001869304745,-0.0008371621797,0.001664043797,0.0008319822163,0.002496026013,0.0008579499714,0.0009971491374,0.001855099109,-0.0002006586446,0.0001365585403,-6.410010429e-05,-0.001160200174,0.0001423712042,-0.001017828969,-0.0004953235497,3.447324315e-05,-0.0004608503065,-0.0006781682894,1.313881035e-05,-0.0006650294791,-0.0003928122653,1.99404579e-05,-0.0003728718074,-0.0005530964797,-1.667585865e-05,-0.0005697723384,-0.0001630392863,-6.905341267e-05,-0.000232092699,-0.00101415001,-0.0002888112976,-0.001302961308,0.002346655915,-0.0008461717972,0.001500484118,0.0002079917169,-0.0002413491425,-3.335742562e-05,0.003229589145,-0.0005510977054,0.002678491439,0.000196698797,0.0003963534526,0.0005930522495,-0.001343616073,0.0001347761537,-0.00120883992,-8.199311143e-05,-0.0009079096966,-0.000989902808,-0.0009535769426,0.0001234825684,-0.0008300943741,-0.0005896888408,0.0005090774818,-8.061135905e-05,-0.0001786533485,-0.0001441125591,-0.0003227659076,7.945090618e-05,-6.635556868e-05,1.30953375e-05,0.003632606575,-0.0001634609279,0.003469145647,0.006555643496,0.001280086132,0.007835729628,0.003845764657,0.0007392038738,0.004584968531,0.001231623114,-0.0004269745651,0.0008046485488,0.001186137967,-0.0005726387736,0.0006134991935,-0.0008287098366,-0.000619515369,-0.001448225206,0.0006096042425,-0.0002326684342,0.0003769358084,-0.000559104189,-2.173899799e-05,-0.000580843187,-0.0004452901734,-0.0002854544119,-0.0007307445853,-0.001164314238,-2.349296634e-05,-0.001187807205,-0.0002516556951,-3.787691065e-05,-0.0002895326058,-0.00128484829,0.0001862346498,-0.001098613641,-0.0003898720431,9.242575452e-05,-0.0002974462886,-0.0009531578221,0.0002790863204,-0.0006740715017,0.0004205822035,0.0001134951197,0.0005340773231
2.8,-0.0008036428007,0.0002221221859,-0.0005815206148,0.00168465717,0.0008174478302,0.002502105,0.0009203248112,0.0009845839709,0.001904908782,-0.0001849084686,0.0001173750306,-6.753343797e-05,-0.001130402326,0.0001280349932,-0.001002367333,-0.0004977823391,2.359977704e-05,-0.0004741825621,-0.0006579792653,4.125601842e-06,-0.0006538536634,-0.0003665084502,3.455170357e-06,-0.0003630532798,-0.0005299821953,-1.870446985e-05,-0.0005486866651,-0.0001508014168,-7.917270002e-05,-0.0002299741168,-0.0009921718614,-0.0003037253425,-0.001295897204,0.002322936932,-0.000869164548,0.001453772384,0.0002214355949,-0.0002597502383,-3.831464345e-05,0.003214941766,-0.0005986859763,0.00261625579,0.0001980154811,0.0003659580858,0.0005639735668,-0.001301251895,0.000128034097,-0.001173217798,4.383116995e-06,-0.000929402406,-0.000925019289,-0.0009249121041,0.0001191793092,-0.0008057327949,-0.0006055259746,0.0005481526877,-5.737328686e-05,-0.0001718709052,-0.0001504429354,-0.0003223138406,9.753543264e-05,-7.450593326e-05,2.302949938e-05,0.003601340924,-0.0001768632935,0.003424477631,0.00638365969,0.001210480872,0.007594140563,0.003816961456,0.0007190299436,0.0045359914,0.001268165934,-0.0004598746922,0.0008082912422,0.001245847438,-0.000616812499,0.000629034939,-0.0007604695756,-0.0006717892913,-0.001432258867,0.0006600000216,-0.000247257558,0.0004127424636,-0.0005276295442,-1.689362574e-05,-0.0005445231699,-0.0004245759833,-0.0002896843316,-0.0007142603149,-0.001130308209,-2.638244441e-05,-0.001156690653,-0.0002339461117,-3.544833619e-05,-0.0002693944479,-0.001236375229,0.0001808818012,-0.001055493428,-0.0003678794716,7.178108362e-05,-0.0002960983879,-0.0009573881998,0.0002811160035,-0.0006762721963,0.0003849554967,0.0001273735895,0.0005123290863
2.9,-0.0005690176155,0.000260885212,-0.0003081324035,0.001699184658,0.0008027594851,0.002501944144,0.000978818003,0.0009706710939,0.001949489097,-0.0001725678139,9.834396735e-05,-7.422384655e-05,-0.001104055876,0.0001136504687,-0.0009904054068,-0.0005022600156,1.298080069e-05,-0.0004892792149,-0.0006412075249,-4.737707529e-06,-0.0006459452325,-0.0003428966035,-1.261032456e-05,-0.0003555069281,-0.0005086292643,-2.067290305e-05,-0.0005293021674,-0.0001421709176,-8.88599123e-05,-0.0002310308299,-0.0009726551108,-0.000318619845,-0.001291274956,0.002286666425,-0.0008894587502,0.001397207674,0.0002284532033,-0.0002766083486,-4.81551453e-05,0.003188051505,-0.0006453895211,0.002542661984,0.0001923604267,0.0003353493713,0.0005277097981,-0.001261132869,0.0001211797786,-0.00113995309,8.345800402e-05,-0.0009455697691,-0.0008621117651,-0.0008986439089,0.0001142875361,-0.0007843563728,-0.000622921881,0.0005835537715,-3.936810947e-05,-0.0001677896462,-0.000155891489,-0.0003236811352,0.0001125438126,-8.288226309e-05,2.966154949e-05,0.003555989945,-0.0001906405081,0.003365349437,0.006203712871,0.001142060698,0.007345773569,0.003778941957,0.0006977616451,0.004476703602,0.00129991579,-0.0004925803422,0.0008073354483,0.001301515795,-0.0006608114476,0.0006407043476,-0.000695027243,-0.0007258359253,-0.001420863168,0.000704523719,-0.0002621504216,0.0004423732974,-0.000501097422,-1.213968897e-05,-0.0005132371109,-0.0004087232859,-0.0002928370467,-0.0007015603327,-0.001097546024,-2.926620852e-05,-0.001126812232,-0.0002166325639,-3.316109314e-05,-0.000249793657,-0.001188779892,0.0001730762713,-0.001015703621,-0.0003500396274,5.196014953e-05,-0.0002980794779,-0.000961408656,0.0002830317922,-0.0006783768638,0.0003472508008,0.0001445592979,0.0004918100988
3.0,-0.0003211846807,0.0003030665566,-1.811812412e-05,0.00170747156,0.0007880008609,0.002495472421,0.001033459818,0.0009556591013,0.001989118919,-0.0001636404365,7.964302238e-05,-8.399741413e-05,-0.001081375615,9.937294328e-05,-0.0009820026716,-0.000508973239,2.664162227e-06,-0.0005063090767,-0.0006279561204,-1.33559521e-05,-0.0006413120725,-0.0003223101789,-2.811875558e-05,-0.0003504289345,-0.0004892523563,-2.254447901e-05,-0.0005117968353,-0.0001372836357,-9.804586009e-05,-0.0002353294957,-0.000955876906,-0.0003334041505,-0.001289281056,0.002237952534,-0.0009068627134,0.001331089821,0.000228867866,-0.0002918038205,-6.293595451e-05,0.00314928987,-0.0006909552867,0.002458334584,0.0001799717345,0.000304680389,0.0004846521235,-0.001223683513,0.0001142639584,-0.001109419555,0.0001541957659,-0.000956050967,-0.000801855201,-0.0008751740092,0.000108866121,-0.0007663078881,-0.0006420849257,0.0006151996817,-2.688524402e-05,-0.0001667191264,-0.0001604401062,-0.0003271592326,0.0001243831029,-9.139121516e-05,3.299188777e-05,0.003497132974,-0.000204675593,0.003292457381,0.006017102519,0.001075299697,0.007092402216,0.003732862135,0.0006757033638,0.004408565498,0.001326546772,-0.0005249331909,0.0008016135809,0.001352732409,-0.0007045017933,0.0006482306155,-0.0006334590091,-0.000780968962,-0.001414427971,0.0007427901615,-0.0002774160396,0.0004653741219,-0.0004798645102,-7.522270897e-06,-0.0004873867811,-0.0003982176857,-0.0002948155681,-0.0006930332538,-0.001066482043,-3.209685254e-05,-0.001098578895,-0.0002003392017,-3.094604212e-05,-0.0002312852438,-0.001142322641,0.0001624271253,-0.0009798955154,-0.000337081485,3.328746486e-05,-0.0003037940202,-0.0009655075215,0.0002846597304,-0.0006808477911,0.0003073927217,0.0001647722019,0.0004721649236
3.1,-6.120400493e-05,0.0003484753684,0.0002872713635,0.001709416502,0.0007732558667,0.002482672368,0.001084305428,0.0009397924979,0.002024097926,-0.0001581463965,6.143637844e-05,-9.671001809e-05,-0.001062552262,8.535516245e-05,-0.0009771970992,-0.0005181037491,-7.298320349e-06,-0.0005254020694,-0.0006183262037,-2.164026605e-05,-0.0006399664697,-0.0003050700152,-4.293253964e-05,-0.0003480025548,-0.0004720616406,-2.428298619e-05,-0.0004963446268,-0.000136252388,-0.0001066674617,-0.0002429198497,-0.0009420853626,-0.0003479861148,-0.001290071477,0.002177028115,-0.000921202484,0.001255825631,0.0002225805283,-0.000305229667,-8.264913865e-05,0.003099126579,-0.0007351316308,0.002363994948,0.0001611401093,0.0002740992604,0.0004352393697,-0.00118928487,0.0001073328666,-0.001081952004,0.0002156229073,-0.0009605275715,-0.0007449046642,-0.0008548696151,0.0001029873491,-0.000751882266,-0.000663284414,0.0006431093975,-2.017501641e-05,-0.0001689372481,-0.0001640770578,-0.0003330143059,0.0001329893619,-9.993734821e-05,3.305201369e-05,0.00342543794,-0.0002188469813,0.003206590959,0.005825094804,0.001010630181,0.006835724985,0.003679858172,0.0006531434986,0.004333001671,0.001347786974,-0.000556786375,0.0007910005987,0.001399131575,-0.0007477401831,0.0006513913916,-0.0005767770859,-0.0008364878687,-0.001413264955,0.0007744958355,-0.0002931231561,0.0004813726794,-0.0004642212114,-3.083056046e-06,-0.0004673042675,-0.0003934646642,-0.0002955334261,-0.0006889980903,-0.00103754205,-3.482840927e-05,-0.001072370459,-0.0001856616063,-2.872247983e-05,-0.0002143840861,-0.001097262122,0.0001485849579,-0.0009486771638,-0.0003296726171,1.605182788e-05,-0.0003136207892,-0.0009699601482,0.0002858431108,-0.0006841170373,0.0002653689538,0.0001876410502,0.0004530100039
3.2,0.000209795082,0.0003968852805,0.0006066803625,0.001704975089,0.000758608068,0.002463583157,0.001131434308,0.000923308638,0.002054742946,-0.0001561174967,4.387385581e-05,-0.0001122436409,-0.001047748546,7.1745639e-05,-0.0009760029071,-0.0005297956793,-1.6851993e-05,-0.0005466476723,-0.0006124126943,-2.950900643e-05,-0.0006419217008,-0.0002914780373,-5.691511848e-05,-0.0003483931558,-0.0004572593052,-2.585296793e-05,-0.0004831122732,-0.0001391639795,-0.0001146685065,-0.000253832486,-0.0009314960945,-0.0003622733676,-0.001293769462,0.002104251773,-0.0009323288993,0.001171922873,0.0002095782139,-0.0003167979307,-0.0001072197168,0.003038122388,-0.0007776716263,0.002260450762,0.0001362012092,0.0002437484578,0.000379949667,-0.001158269198,0.0001004273961,-0.001057841801,0.0002668545668,-0.0009587299569,-0.0006918753901,-0.0008380579113,9.673523196e-05,-0.0007413226793,-0.000686827908,0.000667390544,-1.943736403e-05,-0.0001746837469,-0.0001667968596,-0.0003414806065,0.0001383284256,-0.0001084245945,2.990383105e-05,0.003341651493,-0.0002330307808,0.003108620712,0.005628918091,0.0009484408094,0.006577358901,0.003621032654,0.000630350876,0.00425138353,0.001363425988,-0.0005880055525,0.0007754204351,0.001440402495,-0.0007903752498,0.0006500272457,-0.0005259055757,-0.0008916926133,-0.001417598189,0.0007994287839,-0.0003093392588,0.0004900895251,-0.0004543858588,1.139010543e-06,-0.0004532468483,-0.0003947829588,-0.0002949164095,-0.0006896993683,-0.001011116656,-3.741626671e-05,-0.001048532922,-0.0001731549637,-2.640167861e-05,-0.0001995566423,-0.001053856123,0.0001312516125,-0.0009226045107,-0.0003284093088,5.02827097e-07,-0.0003279064817,-0.0009750244864,0.0002864491302,-0.0006885753563,0.0002212368048,0.000212711862,0.0004339486668
3.3,0.0004906353346,0.0004480365503,0.0009386718849,0.001694162508,0.0007441397942,0.002438302302,0.001174948863,0.0009064349365,0.002081383799,-0.0001575922872,2.709035981e-05,-0.0001305019274,-0.001037096388,5.868705909e-05,-0.0009784093285,-0.0005441540442,-2.594062304e-05,-0.0005700946672,-0.0006103005119,-3.688858207e-05,-0.000647189094,-0.0002818115323,-6.993283926e-05,-0.0003517443716,-0.0004450367426,-2.721998422e-05,-0.0004722567268,-0.000146077376,-0.0001220003168,-0.0002680776927,-0.0009242902487,-0.0003761746345,-0.001300464883,0.002020104487,-0.0009401252609,0.001079979227,0.0001899403389,-0.0003264472441,-0.0001365069053,0.002966918763,-0.0008183363525,0.00214858241,0.0001055270405,0.0002137640703,0.0003192911108,-0.001130916682,9.358279239e-05,-0.001037333889,0.0003071196789,-0.0009504454127,-0.0006433257338,-0.0008250212572,9.020309939e-05,-0.0007348181578,-0.0007130315492,0.0006882217009,-2.480984828e-05,-0.0001841556838,-0.0001686002328,-0.0003527559166,0.000140395344,-0.0001167579345,2.363740954e-05,0.003246587093,-0.0002471033917,0.002999483701,0.005429758182,0.0008890753487,0.006318833531,0.003557442268,0.0006075717558,0.004165014024,0.00137331924,-0.0006184686935,0.0007548505464,0.001476295448,-0.0008322498754,0.0006440455723,-0.0004816613932,-0.0009458972243,-0.001427558618,0.000817473879,-0.0003261294925,0.0004913443865,-0.0004505029067,5.107351974e-06,-0.0004453955547,-0.0004024008755,-0.0002929045503,-0.0006953054257,-0.0009875563236,-3.981719267e-05,-0.001027373516,-0.0001633239301,-2.389106461e-05,-0.0001872149948,-0.001012364407,0.0001101902982,-0.0009021741091,-0.0003338085481,-1.315209061e-05,-0.0003469606387,-0.0009809390848,0.0002863742926,-0.0006945647922,0.0001751262467,0.0002394603919,0.0004145866386
3.4,0.0007801106926,0.0005016381971,0.00128174889,0.001677054692,0.0007299311235,0.002406985816,0.001214972189,0.0008893863709,0.00210435856,-0.0001626112046,1.120559065e-05,-0.000151405614,-0.001030695483,4.631479773e-05,-0.0009843806855,-0.0005612444929,-3.450772649e-05,-0.0005957522194,-0.0006120616985,-4.371416886e-05,-0.0006557758674,-0.0002763180202,-8.185746848e-05,-0.0003581754887,-0.0004355724146,-2.835084313e-05,-0.0004639232577,-0.000157023024,-0.0001286222969,-0.0002856453209,-0.00092061399,-0.0003896010856,-0.001310215076,0.001925181982,-0.0009445141703,0.0009806678118,0.0001638408549,-0.0003341493903,-0.0001703085354,0.002886225064,-0.0008568980158,0.002029327048,6.951706773e-05,0.0001842749368,0.0002537920045,-0.001107454334,8.682881946e-05,-0.001020625514,0.0003357837181,-0.0009355261516,-0.0005997424335,-0.0008159935686,8.349086998e-05,-0.0007325026986,-0.0007421888281,0.0007058311826,-3.635764553e-05,-0.0001975050265,-0.0001694940371,-0.0003669990636,0.0001392126763,-0.0001248451141,1.436756221e-05,0.003141111657,-0.0002609442156,0.002880167441,0.005228753534,0.0008328321492,0.006061585683,0.003490087541,0.0005850276005,0.004075115142,0.001377389074,-0.0006480649482,0.0007293241254,0.00150662372,-0.000873203885,0.0006334198351,-0.0004447397026,-0.0009984437301,-0.001443183433,0.0008286128127,-0.0003435554367,0.000485057376,-0.0004526439846,8.787528978e-06,-0.0004438564557,-0.0004164551102,-0.0002894540254,-0.0007059091356,-0.0009671676135,-4.198977509e-05,-0.001009157389,-0.0001566145407,-2.109834687e-05,-0.0001777128876,-0.0009730529364,8.523496968e-05,-0.0008878179667,-0.0003463032918,-2.474884303e-05,-0.0003710521349,-0.0009879220879,0.0002855468369,-0.000702375251,0.0001272375188,0.0002673089262,0.000394546445
3.5,0.001077002924,0.0005573703071,0.001634373231,0.001653788172,0.0007160589121,0.002369847084,0.001251645221,0.0008723632858,0.002124008507,-0.000171211942,-3.676056877e-06,-0.0001748879988,-0.001028613029,3.475555359e-05,-0.0009938574754,-0.0005810940996,-4.249788621e-05,-0.0006235919858,-0.0006177533021,-4.993028598e-05,-0.0006676835881,-0.0002752103492,-9.256936781e-05,-0.000367779717,-0.0004290301127,-2.921379414e-05,-0.0004582439068,-0.0001720029173,-0.0001345023226,-0.0003065052399,-0.0009205788567,-0.0004024676179,-0.001323046475,0.00182018446,-0.0009454625053,0.0008747219544,0.0001315453088,-0.000339913161,-0.0002083678522,0.002796804788,-0.0008931427268,0.001903662061,2.858970471e-05,0.0001554018422,0.0001839915469,-0.001088056601,8.019022509e-05,-0.001007866375,0.0003523658449,-0.0009138934312,-0.0005615275863,-0.0008111578931,7.670234811e-05,-0.000734455545,-0.0007745415821,0.000720474542,-5.406704009e-05,-0.0002148376765,-0.0001694912029,-0.0003843288794,0.0001348283043,-0.0001325982181,2.230086116e-06,0.003026131944,-0.0002744381068,0.002751693837,0.00502699104,0.0007799643169,0.005806955356,0.003419905124,0.0005629136276,0.003982818752,0.001375623795,-0.0006766934022,0.0006989303932,0.001531262633,-0.0009130769465,0.0006181856866,-0.0004157027915,-0.001048717713,-0.001464420504,0.0008329200219,-0.0003616740087,0.0004712460133,-0.0004608100944,1.214691436e-05,-0.00044866318,-0.000436991227,-0.0002845387086,-0.0007215299356,-0.0009502099272,-4.389554203e-05,-0.0009941054692,-0.0001534084457,-1.793487342e-05,-0.0001713433192,-0.0009361992044,5.629903618e-05,-0.0008799001682,-0.0003662418632,-3.416503476e-05,-0.000400406898,-0.0009961696372,0.0002839255924,-0.0007122440448,7.783243441e-05,0.0002956475758,0.0003734800102
3.6,0.001380096124,0.0006148865973,0.001994982722,0.001624559048,0.0007025959666,0.002327155014,0.0012851238,0.0008555495283,0.002140673329,-0.0001834248122,-1.746543243e-05,-0.0002008902447,-0.001030883832,2.412610449e-05,-0.001006757728,-0.0006036927565,-4.985797535e-05,-0.0006535507319,-0.0006274155412,-5.549118279e-05,-0.000682906724,-0.0002786615151,-0.0001019611518,-0.0003806226669,-0.0004255571763,-2.977869977e-05,-0.000455335876,-0.0001909907903,-0.0001396169097,-0.0003306077,-0.0009242621347,-0.0004146939751,-0.00133895611,0.001705906011,-0.0009429840334,0.0007629219776,9.340321831e-05,-0.0003437848999,-0.0002503816816,0.002699462649,-0.0009268727907,0.001772589858,-1.682544953e-05,0.0001272571388,0.0001104316892,-0.001072847145,7.368748858e-05,-0.0009991596562,0.0003565498545,-0.0008855374165,-0.0005289875621,-0.0008106447456,6.994251098e-05,-0.0007407022346,-0.0008102544484,0.0007324120551,-7.784239335e-05,-0.0002362128077,-0.0001686108456,-0.0004048236532,0.0001273136753,-0.000139935037,-1.262136167e-05,0.002902582164,-0.0002874774222,0.002615104741,0.004825503037,0.0007306804546,0.005556183491,0.00334776306,0.0005413980303,0.00388916109,0.001368076081,-0.0007042621432,0.000663813938,0.001550147968,-0.0009517115591,0.0005984364087,-0.0003949719532,-0.001096164272,-0.001491136225,0.0008305564633,-0.0003805364043,0.000450020059,-0.0004749334397,1.515425808e-05,-0.0004597791816,-0.0004639643451,-0.0002781515006,-0.0007421158457,-0.0009368923916,-4.550057421e-05,-0.0009823929658,-0.0001540192703,-1.431806333e-05,-0.0001683373337,-0.0009020990187,2.338448345e-05,-0.0008787145353,-0.0003938907491,-4.131556104e-05,-0.0004352063101,-0.00100585322,0.0002814965441,-0.0007243566762,2.722142555e-05,0.0003238583298,0.0003510797554
3.7,0.001688189803,0.0006738172545,0.002362007058,0.0015896217,0.0006896104227,0.002279232123,0.001315576275,0.0008391109513,0.002154687226,-0.0001992677397,-3.008839179e-05,-0.0002293561315,-0.001037509919,1.453218795e-05,-0.001022977731,-0.0006289946427,-5.653827206e-05,-0.0006855329147,-0.0006410696328,-6.036101381e-05,-0.0007014306466,-0.0002867992911,-0.0001099413264,-0.0003967406175,-0.0004252822852,-3.001725769e-05,-0.0004552995429,-0.0002139318386,-0.000143951171,-0.0003578830096,-0.0009317064892,-0.0004262056885,-0.001357912178,0.001583225783,-0.0009371394641,0.000646086319,4.983686605e-05,-0.0003458459072,-0.0002960090411,0.002595033968,-0.0009579084791,0.001637125489,-6.629436708e-05,9.994502524e-05,3.365065817e-05,-0.001061901207,6.733790519e-05,-0.0009945633021,0.0003481922862,-0.0008505161498,-0.0005023238635,-0.0008145306516,6.331468246e-05,-0.0007512159692,-0.0008493926908,0.0007418872576,-0.0001075054332,-0.00026164163,-0.0001668785314,-0.0004285201614,0.0001167632254,-0.0001467802511,-3.001702567e-05,0.002771413999,-0.0002999637486,0.002471450251,0.004625265952,0.0006851458202,0.005310411772,0.0032744592,0.0005206217133,0.003795080913,0.001354861659,-0.0007306875019,0.000624174157,0.001563276069,-0.0009889559416,0.0005743201275,-0.0003828230301,-0.001140301464,-0.001523124494,0.0008217632904,-0.0004001865159,0.0004215767745,-0.0004948782131,1.777947691e-05,-0.0004770987362,-0.0004972388163,-0.0002703055905,-0.0007675444068,-0.0009273708644,-4.67771053e-05,-0.0009741479697,-0.0001586900849,-1.017342994e-05,-0.0001688635149,-0.0008710727947,-1.340960053e-05,-0.0008844823952,-0.000429437975,-4.61477303e-05,-0.0004755857053,-0.001017116593,0.0002782693013,-0.0007388472918,-2.424974142e-05,0.0003513382681,0.0003270885266
3.8,0.002000111417,0.0007337720164,0.002733883433,0.001549287711,0.00067716535,0.002226453061,0.001343182019,0.0008231942817,0.002166376301,-0.0002187406908,-4.148538312e-05,-0.0002602260739,-0.001048459109,6.067509535e-06,-0.001042391599,-0.0006569194159,-6.249352416e-05,-0.00071941294,-0.0006587149131,-6.451384735e-05,-0.0007232287604,-0.000299701629,-0.0001164372306,-0.0004161388597,-0.0004283127653,-2.990334411e-05,-0.0004582161094,-0.0002407417826,-0.0001474986366,-0.0003882404192,-0.0009429186531,-0.0004369348833,-0.001379853536,0.001453101626,-0.0009280344059,0.0005250672202,1.327963334e-06,-0.0003462075002,-0.0003448795369,0.002484376639,-0.0009860893662,0.001498287273,-0.0001193839802,7.356227312e-05,-4.582170709e-05,-0.00105524792,6.115697222e-05,-0.0009940909474,0.0003273310419,-0.0008089571927,-0.0004816261508,-0.0008228367224,5.691781427e-05,-0.0007659189081,-0.0008919053966,0.0007491093308,-0.0001427960658,-0.0002910856857,-0.00016432639,-0.0004554120757,0.000103295,-0.0001530664192,-4.977141923e-05,0.00263358916,-0.000311809382,0.002321779778,0.004427200297,0.0006434837687,0.005070684066,0.003200722331,0.0005006984095,0.003701420741,0.001336158685,-0.0007558932249,0.0005802654597,0.001570706662,-0.00102466669,0.000546039972,-0.00037938628,-0.001180729124,-0.001560115404,0.000806857162,-0.0004206585389,0.0003861986231,-0.0005204411204,1.999419815e-05,-0.0005004469222,-0.0005365870693,-0.0002610355965,-0.0007976226659,-0.0009217454837,-4.770452521e-05,-0.0009694500089,-0.000167591001,-5.436656465e-06,-0.0001730276575,-0.0008434672601,-5.388215034e-05,-0.0008973494105,-0.0004729939051,-4.863808514e-05,-0.0005216319903,-0.001030073351,0.0002742751136,-0.000755798237,-7.621093217e-05,0.0003775189244,0.0003013079922
3.9,0.002314728709,0.0007943434689,0.003109072178,0.001503924944,0.0006653185566,0.0021692435,0.0013681307,0.0008079262698,0.00217605697,-0.0002418198435,-5.161090732e-05,-0.0002934307508,-0.001063662935,-1.187120195e-06,-0.001064850055,-0.0006873531991,-6.768402298e-05,-0.0007550372221,-0.0006803254813,-6.793356887e-05,-0.0007482590502,-0.0003173938788,-0.0001213968004,-0.0004387906793,-0.0004347317802,-2.94134487e-05,-0.0004641452289,-0.0002713057613,-0.000150260986,-0.0004215667473,-0.0009578677625,-0.000446820978,-0.00140468874,0.001316564466,-0.0009158164715,0.0004007479947,-5.159662774e-05,-0.0003450049535,-0.0003966015812,0.002368364311,-0.001011275388,0.001357088923,-0.0001756660521,4.819891072e-05,-0.0001274671414,-0.001052872311,5.515999993e-05,-0.0009977123113,0.0002941939237,-0.0007610631404,-0.0004668692166,-0.0008355277364,5.084431354e-05,-0.0007846834228,-0.0009376179043,0.000754243237,-0.0001833746673,-0.0003244557255,-0.0001609929061,-0.0004854486316,8.705159674e-05,-0.000158734714,-7.168311729e-05,0.002490073416,-0.0003229385098,0.002167134906,0.004232170866,0.000605777355,0.004837948221,0.003127214966,0.0004817150614,0.003608930027,0.001312207245,-0.0007798094428,0.0005323978026,0.001572567265,-0.001058711328,0.0005138559372,-0.0003846503881,-0.001217132741,-0.001601783129,0.0007862276935,-0.0004419746202,0.0003442530733,-0.0005513534855,2.177328473e-05,-0.0005295802008,-0.0005816891551,-0.0002503985756,-0.0008320877306,-0.0009200596781,-4.826932248e-05,-0.0009683290006,-0.0001808169819,-5.56795592e-08,-0.0001808726614,-0.0008196508461,-9.773021841e-05,-0.0009173810645,-0.0005245890692,-4.879034569e-05,-0.0005733794149,-0.001044805974,0.0002695666503,-0.000775239324,-0.0001282766618,0.0004018809604,0.0002736042986
4.0,0.002630961503,0.0008551106245,0.003486072127,0.00145395606,0.0006541225472,0.002108078607,0.001390621612,0.0007934130266,0.002184034638,-0.0002684522539,-6.043290206e-05,-0.000328885156,-0.001083014972,-7.164504904e-06,-0.001090179477,-0.0007201498278,-7.20766787e-05,-0.0007922265065,-0.0007058471029,-7.061368311e-05,-0.000776460786,-0.0003398481244,-0.000124789135,-0.0004646372595,-0.0004445959941,-2.852707424e-05,-0.0004731230683,-0.0003054779367,-0.0001522476561,-0.0004577255929,-0.0009764843696,-0.0004558112457,-0.001432295615,0.001174709525,-0.0009006723796,0.000274037145,-0.0001083797418,-0.0003423913788,-0.0004507711207,0.002247878805,-0.001033347796,0.001214531009,-0.0002347201086,2.393866934e-05,-0.0002107814393,-0.001054717311,4.936370206e-05,-0.001005353609,0.0002492023783,-0.0007071194436,-0.0004579170653,-0.0008525124583,4.517856588e-05,-0.0008073338924,-0.0009862351344,0.0007574092817,-0.0002288258526,-0.0003616123116,-0.0001569225635,-0.0005185348752,6.820024467e-05,-0.0001637354175,-9.553517282e-05,0.002341830757,-0.0003332880619,0.002008542695,0.00404098583,0.0005720709846,0.004613056814,0.003054536627,0.0004637323944,0.003518269021,0.001283307448,-0.0008023714477,0.0004809360002,0.001569056294,-0.00109097087,0.0004780854244,-0.0003984701058,-0.001249282921,-0.001647753027,0.0007603356723,-0.0004641438656,0.0002961918067,-0.0005872863241,2.309686231e-05,-0.0005641894618,-0.0006321348324,-0.0002384748686,-0.000870609701,-0.0009223014358,-4.846403135e-05,-0.0009707654671,-0.0001983868687,6.007526243e-06,-0.0001923793424,-0.0008000055736,-0.0001445524056,-0.0009445579792,-0.0005841716771,-4.663181838e-05,-0.0006308034955,-0.001061366399,0.0002642184723,-0.0007971479268,-0.0001800550946,0.0004239645934,0.0002439094988
4.1,0.002947792139,0.0009156429042,0.003863435043,0.00139985552,0.0006436245985,0.002043480118,0.001410862403,0.0007797395361,0.002190601939,-0.0002985518207,-6.793204581e-05,-0.0003664838666,-0.00110637063,-1.181159486e-05,-0.001118182225,-0.000755132901,-7.564600153e-05,-0.0008307789026,-0.000735195119,-7.255697472e-05,-0.0008077520937,-0.0003669843678,-0.0001266041206,-0.0004935884883,-0.0004579341494,-2.722699331e-05,-0.0004851611427,-0.0003430824836,-0.0001534752799,-0.0004965577635,-0.0009986609407,-0.0004638612087,-0.001462522149,0.00102868083,-0.0008828246037,0.0001458562262,-0.0001684490015,-0.0003385321651,-0.0005069811666,0.002123800471,-0.001052210127,0.001071590344,-0.0002961364853,8.593624563e-07,-0.0002952771229,-0.001060686242,4.378727279e-05,-0.001016898969,0.0001929658967,-0.0006475025947,-0.000454536698,-0.00087364548,3.999576115e-05,-0.0008336497189,-0.001037354567,0.0007586902974,-0.0002786642694,-0.0004023686126,-0.0001521656651,-0.0005545342777,4.693126847e-05,-0.0001680282981,-0.0001210970296,0.002189816839,-0.0003428083117,0.001847008527,0.003854393974,0.000542372039,0.004396766013,0.002983226835,0.0004467857051,0.003430012541,0.001249814726,-0.0008235182647,0.000426296461,0.001560442112,-0.001121342179,0.000439099933,-0.0004205773459,-0.001277031386,-0.001697608732,0.0007297092603,-0.0004871628467,0.0002425464137,-0.0006278584844,2.395195549e-05,-0.0006039065289,-0.0006874296869,-0.000225368332,-0.0009127980189,-0.0009284068713,-4.828595726e-05,-0.0009766928285,-0.0002202446441,1.277583133e-05,-0.0002074688128,-0.0007849194365,-0.0001938540995,-0.000978773536,-0.0006516068059,-4.220742033e-05,-0.0006938142262,-0.001079777519,0.0002583268671,-0.000821450652,-0.0002311582143,0.0004433763491,0.0002122181348
4.2,0.003264273921,0.0009755045781,0.004239778499,0.001342144529,0.000633866903,0.001976011432,0.001429066928,0.0007669694127,0.002196036341,-0.0003319969927,-7.410094737e-05,-0.0004060979401,-0.001133548812,-1.50897803e-05,-0.001148638592,-0.0007920989456,-7.837487018e-05,-0.0008704738158,-0.0007682537559,-7.377499359e-05,-0.0008420287495,-0.0003986732621,-0.0001268513432,-0.0005255246053,-0.0004747467017,-2.549935322e-05,-0.0005002460549,-0.0003839160849,-0.0001539669903,-0.0005378830752,-0.001024254071,-0.000470934884,-0.001495188955,0.0008796485376,-0.0008625268819,1.712165576e-05,-0.0002312311613,-0.000333600374,-0.0005648315353,0.001996996386,-0.001067789217,0.0009292071689,-0.0003595201298,-2.096670869e-05,-0.0003804868385,-0.001070646216,3.845256326e-05,-0.001032193653,0.0001262662917,-0.0005826880324,-0.0004564217407,-0.0008987304395,3.536053095e-05,-0.0008633699085,-0.001090487492,0.0007581433463,-0.0003323441458,-0.0004464951358,-0.000146778483,-0.0005932736189,2.345485519e-05,-0.0001715829678,-0.0001481281126,0.002034971609,-0.0003514633079,0.001683508301,0.00367308015,0.0005166524758,0.004189732626,0.002913767485,0.0004308859482,0.003344653433,0.001212131966,-0.0008431906847,0.0003689412811,0.001547057199,-0.001149739857,0.0003973173416,-0.0004505955444,-0.001300305075,-0.001750900619,0.0006949354689,-0.0005110164278,0.0001839190411,-0.0006726470436,2.433313013e-05,-0.0006483139134,-0.0007470060242,-0.0002112052752,-0.0009582112993,-0.000938265623,-4.773645209e-05,-0.0009860020751,-0.0002462634248,2.02567791e-05,-0.0002260066457,-0.0007747803882,-0.0002450553615,-0.00101983575,-0.0007266762907,-3.557407257e-05,-0.0007622503632,-0.001100035222,0.0002520084329,-0.0008480267887,-0.0002812130872,0.0004597930556,0.0001785799684
4.3,0.003579537275,0.001034259566,0.004613796841,0.001281383945,0.0006248866809,0.001906270626,0.001445452396,0.0007551449697,0.002200597365,-0.0003686302649,-7.894322263e-05,-0.0004475734875,-0.001164335262,-1.697492055e-05,-0.001181310183,-0.0008308216657,-8.025504008e-05,-0.0009110767058,-0.0008048768483,-7.428735477e-05,-0.0008791642031,-0.0004347401604,-0.0001255583324,-0.0005602984928,-0.0004950063683,-2.333367777e-05,-0.000518340046,-0.0004277515918,-0.0001537516604,-0.0005815032522,-0.001053088109,-0.0004770049204,-0.00153009303,0.0007287817963,-0.00084005877,-0.0001112769738,-0.0002961651432,-0.0003277731921,-0.0006239383353,0.001868307386,-0.001080036202,0.0007882711843,-0.0004244950566,-4.147231322e-05,-0.0004659673699,-0.001084432573,3.338334766e-05,-0.001051049225,5.003369013e-05,-0.000513256393,-0.0004632227028,-0.0009275246766,3.132543742e-05,-0.0008961992392,-0.001145087329,0.0007558137552,-0.0003892735741,-0.0004937258374,-0.0001408235739,-0.0006345494113,-2.003435514e-06,-0.000174379165,-0.0001763826005,0.001878211519,-0.0003592310863,0.001518980432,0.003497659579,0.000494850469,0.003992510048,0.002846584795,0.0004160211919,0.003262605987,0.001170698872,-0.0008613285217,0.0003093703504,0.001529288384,-0.001176097666,0.0003531907187,-0.0004880561107,-0.001319099971,-0.001807156082,0.0006566455833,-0.0005356777143,0.000120967869,-0.0007211987439,2.424217221e-05,-0.0006969565717,-0.0008102379257,-0.0001961317752,-0.001006369701,-0.0009517277004,-4.682067701e-05,-0.0009985483774,-0.0002762519828,2.844319506e-05,-0.0002478087878,-0.0007699699766,-0.0002975031294,-0.001067473106,-0.000809077998,-2.679860665e-05,-0.0008358766046,-0.001122110993,0.0002453973989,-0.0008767135945,-0.0003298734909,0.0004729645251,0.0001430910341
4.4,0.003892793818,0.001091476381,0.004984270199,0.001218165616,0.0006167161218,0.001834881738,0.001460236266,0.000744287626,0.002204523892,-0.000408259183,-8.247252228e-05,-0.0004907317053,-0.001198487022,-1.7457126e-05,-0.001215944148,-0.0008710569671,-8.128741257e-05,-0.0009523443796,-0.0008448896623,-7.412086646e-05,-0.0009190105287,-0.0004749701143,-0.0001227680825,-0.0005977381968,-0.0005186592382,-2.072279681e-05,-0.000539382035,-0.0004743422516,-0.0001528630887,-0.0006272053403,-0.001084959499,-0.0004820526196,-0.001567012118,0.000577221161,-0.0008157197764,-0.0002384986153,-0.0003627143801,-0.0003212290536,-0.0006839434337,0.001738535574,-0.001088927355,0.0006496082193,-0.0004907088823,-6.059468431e-05,-0.0005513035666,-0.001101854127,2.86039531e-05,-0.001073250174,-3.468300016e-05,-0.0004398952391,-0.0004745782392,-0.0009597456621,2.792987935e-05,-0.0009318157827,-0.001200581557,0.0007517498139,-0.0004488317435,-0.0005437649774,-0.000134369866,-0.0006781348434,-2.920761473e-05,-0.0001764068042,-0.0002056144189,0.001720422091,-0.0003661034886,0.001354318603,0.003328672036,0.000476872175,0.003805544211,0.002782051399,0.0004021584467,0.003184209845,0.001125979726,-0.0008778677832,0.0002481119424,0.001507564838,-0.00120036961,0.0003071952283,-0.0005324152625,-0.001333474882,-0.001865890145,0.0006154954199,-0.0005611068205,5.438859937e-05,-0.0007730411204,2.368725764e-05,-0.0007493538628,-0.0008764584624,-0.0001803095361,-0.001056767998,-0.0009686113407,-4.554729303e-05,-0.001014158634,-0.0003099630013,3.731411475e-05,-0.0002726488866,-0.0007708547715,-0.0003504874667,-0.001121342238,-0.0008984249364,-1.595963356e-05,-0.00091438457,-0.001145955143,0.0002386417136,-0.0009073134294,-0.0003768304709,0.0004827156137,0.0001058851428
4.5,0.004203338842,0.001146733007,0.005350071849,0.001153102949,0.0006093820439,0.001762484993,0.001473633484,0.000734398664,0.002208032148,-0.000450658316,-8.471158913e-05,-0.0005353699051,-0.001235737138,-1.654033811e-05,-0.001252277476,-0.0009125482424,-8.148208445e-05,-0.0009940303268,-0.0008880912176,-7.330851852e-05,-0.0009613997361,-0.0005191130423,-0.0001185362035,-0.0006376492458,-0.0005456259458,-1.766271754e-05,-0.0005632886634,-0.0005234257682,-0.00015133909,-0.0006747648582,-0.001119640921,-0.000486067782,-0.001605708703,0.0004260545471,-0.0007898233991,-0.000363768852,-0.0004303787741,-0.0003141448238,-0.000744523598,0.001608434266,-0.00109446454,0.0005139697261,-0.0005578363948,-7.82748751e-05,-0.0006361112699,-0.0011226986,2.413771778e-05,-0.001098560882,-0.0001267477647,-0.000363394213,-0.0004901419778,-0.0009950790557,2.51998556e-05,-0.0009698792001,-0.001256401542,0.000746015541,-0.0005103860006,-0.0005962939238,-0.0001274921719,-0.0007237860957,-5.791559405e-05,-0.000177665699,-0.0002355812931,0.001562451936,-0.0003720854857,0.00119036645,0.003166577133,0.0004625936914,0.003629170824,0.002720489384,0.0003892458214,0.003109735205,0.001078451622,-0.0008927393189,0.0001857123032,0.00148234578,-0.001222530668,0.0002598151119,-0.0005830700706,-0.001343544007,-0.001926614078,0.0005721438303,-0.0005872490932,-1.510526294e-05,-0.0008276919788,2.268212351e-05,-0.0008050098553,-0.0009449763142,-0.0001639108832,-0.001108887197,-0.0009887107753,-4.392802302e-05,-0.001032638798,-0.0003471019241,4.6835875e-05,-0.0003002660491,-0.0007777759885,-0.0004032594462,-0.001181035435,-0.000994244715,-3.1523393e-06,-0.0009973970543,-0.001171500095,0.0002318979507,-0.0009396021448,-0.000421819708,0.0004889469141,6.712720613e-05
4.6,0.004510552914,0.001199621622,0.005710174536,0.001086821639,0.0006029052668,0.001689726906,0.001485854696,0.0007254603777,0.002211315073,-0.0004955714989,-8.569138638e-05,-0.0005812628853,-0.001275798619,-1.42417564e-05,-0.001290040375,-0.0009550312832,-8.085818377e-05,-0.001035889467,-0.0009342563815,-7.188837843e-05,-0.00100614476,-0.0005668880174,-0.0001129286026,-0.00067981662,-0.0005758024085,-1.415249e-05,-0.0005899548985,-0.0005747274276,-0.0001492205073,-0.0007239479348,-0.001156884306,-0.0004890483488,-0.001645932654,0.0002763001304,-0.0007626912883,-0.0004863911579,-0.0004987049368,-0.0003066927345,-0.0008053976713,0.001478702058,-0.001096675076,0.0003820269826,-0.0006255807536,-9.445772531e-05,-0.0007200384789,-0.001146737497,2.00057626e-05,-0.001126731734,-0.0002249684369,-0.0002846329344,-0.0005096013713,-0.001033187231,2.31484244e-05,-0.001010038807,-0.001312005123,0.0007386983217,-0.0005733068008,-0.0006509768957,-0.0001202700469,-0.0007712469427,-8.788182888e-05,-0.0001781650049,-0.0002660468337,0.001405109356,-0.0003771940878,0.001027915268,0.003011751895,0.0004518632428,0.003463615138,0.002662175013,0.0003772149389,0.003039389952,0.001028595544,-0.0009058700811,0.0001227254631,0.001454110158,-0.001242577038,0.0002115331201,-0.0006393727251,-0.001349467481,-0.001988840206,0.0005272342772,-0.0006140336614,-8.679938427e-05,-0.0008846661028,2.124558949e-05,-0.0008634205133,-0.001015089301,-0.000147113792,-0.001162203093,-0.001011802251,-4.197768646e-05,-0.001053779937,-0.0003873351501,5.696350537e-05,-0.0003303716448,-0.0007910381658,-0.0004550487803,-0.001246086946,-0.001095978948,1.15046404e-05,-0.001084474308,-0.001198662656,0.000225325328,-0.0009733373279,-0.0004646244806,0.0004916334832,2.700900261e-05
4.7,0.00481390322,0.001249753182,0.006063656402,0.001019951417,0.0005972997659,0.001617251183,0.001497105926,0.0007174376399,0.002214543566,-0.0005427137812,-8.545030786e-05,-0.0006281640891,-0.001318366868,-1.059115646e-05,-0.001328958024,-0.0009982382638,-7.944354223e-05,-0.001077681806,-0.0009831371967,-6.990247705e-05,-0.001053039674,-0.0006179862154,-0.0001060203616,-0.000724006577,-0.0006090599046,-1.019415463e-05,-0.0006192540592,-0.0006279618543,-0.0001465502582,-0.0007745121125,-0.001196422233,-0.0004909998963,-0.00168742213,0.0001288976985,-0.0007346476919,-0.0006057499934,-0.0005672926817,-0.000299037475,-0.0008663301567,0.001349981517,-0.001095611013,0.0002543705041,-0.0006936714967,-0.0001090930229,-0.0008027645196,-0.001173729807,1.622624156e-05,-0.001157503566,-0.000328125154,-0.0002045615489,-0.0005326867029,-0.001073716679,2.177646056e-05,-0.001051940219,-0.00136688973,0.0007299098229,-0.0006369799071,-0.0007074649407,-0.0001127861843,-0.000820251125,-0.0001188578387,-0.0001779224628,-0.0002967803016,0.001249162009,-0.0003814570233,0.0008677049859,0.002864491172,0.0004445035971,0.003308994769,0.002607345267,0.0003659835504,0.002973328817,0.0009768911533,-0.0009171862679,5.970488544e-05,0.00142335014,-0.001260525839,0.0001628243013,-0.0007006426218,-0.001351439789,-0.002052082411,0.0004813827023,-0.0006413723939,-0.0001599896916,-0.0009434789594,1.940149042e-05,-0.0009240774689,-0.001086094083,-0.0001300974345,-0.001216191518,-0.001037647264,-3.971505243e-05,-0.001077362316,-0.0004302966114,6.764235285e-05,-0.0003626542586,-0.000810895849,-0.0005050815869,-0.001315977436,-0.001202982995,2.786160365e-05,-0.001175121391,-0.00122734464,0.0002190796144,-0.001008265026,-0.000505075065,0.0004908221194,-1.425294559e-05
4.8,0.005112944946,0.001296761847,0.006409706793,0.0009531191594,0.0005925716926,0.001545690852,0.001507589618,0.0007102798183,0.002217869436,-0.0005917730512,-8.403349029e-05,-0.0006758065415,-0.001363120635,-5.630138243e-06,-0.001368750773,-0.001041900638,-7.727428527e-05,-0.001119174923,-0.001034463466,-6.739579573e-05,-0.001101859262,-0.0006720731985,-9.789548231e-05,-0.0007699686809,-0.0006452447672,-5.792798502e-06,-0.0006510375657,-0.0006828337068,-0.0001433725342,-0.0008262062409,-0.001237968124,-0.0004919350689,-0.001729903193,-1.52929807e-05,-0.0007060144401,-0.0007213074208,-0.0006357968919,-0.0002913342049,-0.0009271310968,0.001222861033,-0.00109134801,0.0001315130228,-0.0007618599708,-0.0001221377715,-0.0008839977423,-0.001203424279,1.281379316e-05,-0.001190610486,-0.0004349946635,-0.0001241751068,-0.0005591697703,-0.001116303602,2.107373776e-05,-0.001095229864,-0.001420596945,0.0007197814156,-0.0007008155292,-0.0007653984787,-0.0001051245872,-0.0008705230658,-0.0001505913445,-0.0001769634703,-0.0003275548148,0.001095338769,-0.0003849112976,0.0007104274719,0.002725010307,0.0004403146829,0.00316532499,0.002556205392,0.0003554582607,0.002911663652,0.0009238137091,-0.000926616213,-2.802503864e-06,0.001390568202,-0.001276414138,0.0001141540642,-0.0007661777744,-0.00134967581,-0.002115853584,0.0004351708604,-0.0006691585156,-0.0002339876552,-0.001003648629,1.717878029e-05,-0.0009864698486,-0.001157293697,-0.0001130378082,-0.001270331505,-0.001065993637,-3.716392934e-05,-0.001103157566,-0.0004755925944,7.880962087e-05,-0.0003967829736,-0.0008375370114,-0.0005525993206,-0.001390136332,-0.001314527963,4.573166516e-05,-0.001268796298,-0.001257432776,0.0002133081564,-0.00104412462,-0.0005430464495,0.0004866276133,-5.641883614e-05
4.9,0.005407322405,0.001340309093,0.006747631497,0.0008869429193,0.0005887183671,0.001475661286,0.001517506289,0.0007039228721,0.002221429161,-0.0006424119254,-8.149224896e-05,-0.0007239041744,-0.001409722477,5.886740134e-07,-0.001409133803,-0.001085751305,-7.439435261e-05,-0.001160145658,-0.001087943235,-6.441541342e-05,-0.001152358648,-0.0007287917144,-8.86465155e-05,-0.0008174382299,-0.000684178294,-9.566205598e-07,-0.0006851349146,-0.0007390382521,-0.0001397321525,-0.0008787704046,-0.001281216336,-0.0004918729762,-0.001773089313,-0.0001554903836,-0.0006771068963,-0.00083259728,-0.0007039256203,-0.0002837275881,-0.0009876532084,0.001097877173,-0.001083984023,1.389314986e-05,-0.0008299138262,-0.0001335590167,-0.0009634728429,-0.001235560471,9.778749855e-06,-0.001225781721,-0.0005443690532,-4.448494958e-05,-0.0005888540028,-0.001160578403,2.102076272e-05,-0.00113955764,-0.001472711461,0.0007084569615,-0.0007642544992,-0.0008244096858,-9.736862383e-05,-0.0009217783096,-0.0001828255312,-0.0001753200008,-0.0003581455321,0.0009443320104,-0.0003876016282,0.0005567303822,0.002593448806,0.0004390763576,0.003032525164,0.002508936116,0.0003455372375,0.002854473353,0.0008698305832,-0.0009340917196,-6.426113638e-05,0.001356275163,-0.001290297129,6.597803413e-05,-0.0008352679154,-0.00134439468,-0.002179662596,0.0003891412569,-0.0006972644369,-0.00030812318,-0.00106469801,1.461154012e-05,-0.00105008647,-0.001228005482,-9.6102915e-05,-0.001324108397,-0.001096576225,-3.435358131e-05,-0.001130929807,-0.0005228056055,9.039558779e-05,-0.0004324100177,-0.0008710646812,-0.0005968783035,-0.001467942985,-0.00142980722,6.488853364e-05,-0.001364918686,-0.001288799486,0.0002081468924,-0.001080652594,-0.0005784555214,0.0004792275352,-9.922798614e-05
5.0,0.005696769182,0.001380087295,0.007076856477,0.0008220261158,0.0005857273973,0.001407753513,0.001527055806,0.0006982914614,0.002225347267,-0.0006942706024,-7.78835983e-05,-0.0007721542007,-0.001457819958,8.002499092e-06,-0.001449817459,-0.001129526617,-7.085487523e-05,-0.001200381492,-0.001143263987,-6.100975108e-05,-0.001204273738,-0.0007877658222,-7.837339387e-05,-0.0008661392161,-0.0007256573949,4.303137422e-06,-0.0007213542575,-0.0007962627169,-0.0001356739842,-0.0009319367011,-0.001325843268,-0.0004908385277,-0.001816681796,-0.0002909898425,-0.0006482309999,-0.0009392208425,-0.0007714360693,-0.000276351121,-0.00104778719,0.0009755153563,-0.001073637908,-9.812255197e-05,-0.0008976121864,-0.0001433368561,-0.001040949042,-0.001269869246,7.125926247e-06,-0.00126274332,-0.0006550698291,3.350927773e-05,-0.0006215605514,-0.001206170364,2.159159502e-05,-0.001184578769,-0.001522858036,0.0006960859322,-0.0008267721033,-0.0008841258924,-8.959902847e-05,-0.0009737249209,-0.0002152996665,-0.0001730294825,-0.0003883291491,0.0007967987717,-0.0003895787407,0.000407220031,0.002469873907,0.0004405512879,0.002910425195,0.002465699434,0.0003361127827,0.002801812217,0.0008153962818,-0.0009395484688,-0.000124152187,0.001320986228,-0.001302245735,1.874049287e-05,-0.0009072102892,-0.001335803142,-0.002243013431,0.0003437903484,-0.0007255394146,-0.0003817490662,-0.001126158846,1.17388513e-05,-0.001114419995,-0.001297570838,-7.944782346e-05,-0.001377018662,-0.001129118673,-3.131827239e-05,-0.001160436946,-0.0005714984693,0.0001023245065,-0.0004691739628,-0.0009114805971,-0.0006372480286,-0.001548728626,-0.001547948493,8.506994257e-05,-0.00146287855,-0.001321305215,0.0002037189462,-0.001117586269,-0.0006112573786,0.0004688546384,-0.0001424027402
5.1,0.005981106578,0.001415822623,0.007396929201,0.000758951408,0.0005835760707,0.001342527479,0.001536437612,0.0006933010217,0.002229738634,-0.0007469709241,-7.326974254e-05,-0.0008202406666,-0.0015070483,1.653938537e-05,-0.001490508914,-0.001172968612,-6.671335132e-05,-0.001239681963,-0.001200095075,-5.722779701e-05,-0.001257322872,-0.0008486064199,-6.718174351e-05,-0.0009157881635,-0.0007694562155,9.972447359e-06,-0.0007594837681,-0.0008541887943,-0.0001312424162,-0.0009854312104,-0.001371509995,-0.0004888617076,-0.001860371702,-0.000421164741,-0.0006196810532,-0.001040845794,-0.0008381298368,-0.0002693261957,-0.001107456033,0.0008562081173,-0.001060447902,-0.0002042397844,-0.0009647424895,-0.000151467597,-0.001116210087,-0.001306073527,4.853274664e-06,-0.001301220253,-0.0007659619738,0.0001088462491,-0.0006571157248,-0.0012527132,2.275728729e-05,-0.001229955913,-0.001570699279,0.0006828188494,-0.0008878804299,-0.0009441743906,-8.189197599e-05,-0.001026066367,-0.0002477514663,-0.0001701337986,-0.0004178852648,0.000653360145,-0.0003908976414,0.0002624625036,0.002354283743,0.0004444879417,0.002798771685,0.002426642475,0.0003270737105,0.002753716186,0.0007609465321,-0.0009429266544,-0.0001819801223,0.001285213881,-0.001312344277,-2.713039613e-05,-0.0009813272388,-0.001324081164,-0.002305408402,0.0002995594331,-0.000753808319,-0.0004542488859,-0.00118757792,8.604574376e-06,-0.001178973346,-0.001365366494,-6.321051073e-05,-0.001428577004,-0.001163336616,-2.8096446e-05,-0.001191433062,-0.0006212194724,0.0001145152906,-0.0005067041818,-0.0009586745558,-0.0006731066466,-0.001631781202,-0.00166803084,0.0001059867041,-0.001562044136,-0.001354801684,0.0002001334073,-0.001154668277,-0.0006414398145,0.0004557860469,-0.0001856537676
5.2,0.006260240004,0.00144727723,0.007707517233,0.0006982743593,0.0005822311289,0.001280505488,0.001545849802,0.0006888598264,0.002234709628,-0.000800121416,-6.77174226e-05,-0.0008678388386,-0.001557034469,2.611935592e-05,-0.001530915113,-0.001215827563,-6.203264848e-05,-0.001277860211,-0.001258091396,-5.311828187e-05,-0.001311209678,-0.0009109174756,-5.518164884e-05,-0.0009660991244,-0.0008153286803,1.603488026e-05,-0.0007992938001,-0.0009124961827,-0.0001264808708,-0.001038977053,-0.001417866385,-0.0004859768569,-0.001903843242,-0.0005454702484,-0.0005917379656,-0.001137208214,-0.0009038483803,-0.0002627609848,-0.001166609365,0.0007403315577,-0.001044569979,-0.000304238421,-0.001031099315,-0.0001579668352,-0.00118906615,-0.001343890041,2.95093503e-06,-0.001340939106,-0.0008759727343,0.0001806301093,-0.000695342625,-0.001299851226,2.448907112e-05,-0.001275362155,-0.001615934971,0.0006688041874,-0.0009471307835,-0.001004188354,-7.43173608e-05,-0.001078505714,-0.0002799209051,-0.0001666784867,-0.0004465993918,0.0005145989945,-0.0003916160254,0.0001229829692,0.002246610383,0.0004506237344,0.002697234117,0.002391899506,0.0003183075342,0.002710207041,0.0007068921849,-0.0009441720705,-0.0002372798856,0.001249458189,-0.001320688602,-7.123041355e-05,-0.001056983083,-0.001309373019,-0.002366356103,0.0002568246222,-0.0007818725858,-0.0005250479636,-0.001248524663,5.256942352e-06,-0.00124326772,-0.001430815884,-4.750911195e-05,-0.001478324996,-0.001198942186,-2.472988891e-05,-0.001223672074,-0.0006715087164,0.0001268820839,-0.0005446266325,-0.00101242143,-0.000703932588,-0.001716354018,-0.001789104742,0.0001273352361,-0.001661769506,-0.001389135165,0.000197483131,-0.001191652034,-0.0006690163987,0.0004403295916,-0.000228686807
5.3,0.006534153475,0.001474250736,0.00800840421,0.0006405172432,0.0005816489939,0.001222166237,0.001555487317,0.0006848710323,0.002240358349,-0.0008533228971,-6.129709606e-05,-0.0009146199932,-0.001607402237,3.665569801e-05,-0.001570746539,-0.001257864691,-5.687990648e-05,-0.001314744597,-0.00131689795,-4.872888033e-05,-0.001365626831,-0.0009743019557,-4.248750775e-05,-0.001016789463,-0.0008630116689,2.24720411e-05,-0.0008405396278,-0.0009708667137,-0.0001214314013,-0.001092298115,-0.001464556195,-0.0004822220203,-0.001946778216,-0.0006634476904,-0.0005646679536,-0.001228115644,-0.0009684692902,-0.0002567494313,-0.001225218722,0.000628201382,-0.001026176144,-0.0003979747623,-0.001096484942,-0.0001628716965,-0.001259356638,-0.001383032264,1.400989559e-06,-0.001381631275,-0.0009841145203,0.0002480574999,-0.0007360570204,-0.001347245339,2.676044176e-05,-0.001320484897,-0.00165830163,0.0006541831641,-0.001004118466,-0.001063813145,-6.693734591e-05,-0.00113075049,-0.0003115547465,-0.0001627120446,-0.0004742667911,0.0003810566296,-0.0003917928481,-1.073621851e-05,0.002146723361,0.0004586883514,0.002605411712,0.002361592515,0.0003097024776,0.002671294993,0.0006536133107,-0.0009432372413,-0.0002896239306,0.001214195798,-0.001327384578,-0.0001131887794,-0.001133596676,-0.001291786322,-0.002425382998,0.000215887737,-0.0008095137184,-0.0005936259814,-0.001308598725,1.747880717e-06,-0.001306850845,-0.001493399076,-3.244058462e-05,-0.001525839661,-0.001235649549,-2.126266762e-05,-0.001256912217,-0.0007219054941,0.0001393348994,-0.0005825705947,-0.001072386203,-0.0007292914248,-0.001801677628,-0.001910213957,0.0001488112345,-0.001761402722,-0.001424148883,0.0001958411425,-0.00122830774,-0.0006940203685,0.0004228094301,-0.0002712109383
5.4,0.006802902672,0.001496581015,0.008299483687,0.0005861634172,0.0005817764175,0.001167939835,0.001565539809,0.0006812346548,0.002246774464,-0.0009061742033,-5.408201932e-05,-0.0009602562226,-0.001657777486,4.805633431e-05,-0.001609721152,-0.001298854745,-5.132538855e-05,-0.001350180134,-0.001376154765,-4.410551135e-05,-0.001420260276,-0.001038366889,-2.921856742e-05,-0.001067585457,-0.0009122283628,2.926401562e-05,-0.0008829643472,-0.001028988426,-0.0001161343387,-0.001145122765,-0.001511222357,-0.0004776383564,-0.001988860714,-0.0007747268209,-0.0005387216444,-0.001313448465,-0.001031903198,-0.0002513706148,-0.001283273813,0.0005200702366,-0.001005452655,-0.0004853824187,-0.001160711019,-0.0001662415411,-0.00132695256,-0.00142321402,1.777843141e-07,-0.001423036236,-0.001089506841,0.000310439603,-0.0007790672378,-0.001394578064,2.954787853e-05,-0.001365030186,-0.001697570855,0.0006390798574,-0.001058490998,-0.001122711988,-5.980522977e-05,-0.001182517218,-0.0003424107966,-0.0001582851837,-0.0005006959803,0.0002532293995,-0.0003914869775,-0.000138257578,0.002054434437,0.0004684071959,0.002522841632,0.002335831095,0.0003011492765,0.002636980372,0.0006014539398,-0.0009400823727,-0.0003386284328,0.001179869289,-0.001332546746,-0.0001526774569,-0.001210646481,-0.001271399525,-0.002482046006,0.0001769702302,-0.0008364990379,-0.0006595288076,-0.001367435842,-1.867885061e-06,-0.001369303727,-0.001552660172,-1.808034549e-05,-0.001570740517,-0.001273180892,-1.773949835e-05,-0.001290920391,-0.0007719562531,0.0001517806315,-0.0006201756216,-0.001138136154,-0.0007488377563,-0.00188697391,-0.002030418331,0.0001701235792,-0.001860294752,-0.001459683609,0.0001952557218,-0.001264427887,-0.0007165012719,0.0004035534774,-0.0003129477946
5.5,0.007066607273,0.001514144268,0.00858075154,0.0005356527565,0.0005825514221,0.001118204179,0.001576189825,0.0006778494535,0.002254039278,-0.0009582775255,-4.614732222e-05,-0.001004424848,-0.00170779287,6.022520173e-05,-0.001647567668,-0.001338588018,-4.544128295e-05,-0.001384029301,-0.001435501527,-3.92917272e-05,-0.001474793254,-0.001102727435,-1.549918258e-05,-0.001118226617,-0.0009626912525,3.638980072e-05,-0.0009263014518,-0.001086558877,-0.0001106279672,-0.001197186844,-0.001557511581,-0.0004722695863,-0.002029781168,-0.0008790236465,-0.0005141333762,-0.001393157023,-0.001094090162,-0.0002466889036,-0.001340779065,0.0004161279405,-0.0009825980614,-0.0005664701208,-0.001223600605,-0.0001681570458,-0.001391757651,-0.001464152815,-7.515466451e-07,-0.001464904361,-0.001191392614,0.000367214997,-0.0008241776168,-0.001441557112,3.283048831e-05,-0.001408726624,-0.001733546157,0.0006235881504,-0.001109958007,-0.001180569948,-5.296469085e-05,-0.001233534639,-0.0003722608392,-0.00015344999,-0.0005257108291,0.0001315662752,-0.0003907559512,-0.000259189676,0.001969504144,0.000479504855,0.002449008999,0.002314712352,0.0002925427079,0.002607255059,0.0005507183219,-0.0009346763756,-0.0003839580536,0.001146878746,-0.001336296995,-0.0001894182483,-0.001287667178,-0.001248275854,-0.002535943032,0.0001402124524,-0.0008625890831,-0.0007223766307,-0.001424710663,-5.533804672e-06,-0.001430244468,-0.001608211571,-4.482519383e-06,-0.001612694091,-0.001311271818,-1.420362111e-05,-0.001325475439,-0.0008212222424,0.0001641246168,-0.0006570976256,-0.001209157752,-0.0007623136964,-0.001971471449,-0.002148816182,0.0001910079527,-0.001957808229,-0.001495576163,0.0001957449546,-0.001299831208,-0.0007365241522,0.0003828840257,-0.0003536401265
5.6,0.00732544329,0.001526854412,0.008852297702,0.0004893785699,0.0005839044264,0.001073282996,0.001587611909,0.00067461476,0.002262226669,-0.001009242951,-3.756913444e-05,-0.001046812086,-0.001757091048,7.306357979e-05,-0.001684027468,-0.001376871417,-3.930046963e-05,-0.001416171887,-0.001494581417,-3.432816339e-05,-0.00152890958,-0.001167009791,-1.458176238e-06,-0.001168467967,-0.001014104469,4.3827657e-05,-0.0009702768123,-0.001143287213,-0.0001049482703,-0.001248235483,-0.001603077707,-0.0004661614942,-0.002069239202,-0.00097613292,-0.0004911205746,-0.001467253495,-0.001154994216,-0.0002427552333,-0.001397749449,0.0003165053661,-0.0009578210046,-0.0006413156386,-0.001284989991,-0.0001687178704,-0.001453707862,-0.001505572246,-1.426561087e-06,-0.001506998807,-0.001289145851,0.0004179531704,-0.0008711926804,-0.001487916884,3.658892852e-05,-0.001451327955,-0.001766059245,0.0006077597313,-0.001158299514,-0.00123709569,-4.644945668e-05,-0.001283545147,-0.0004008917055,-0.0001482590789,-0.0005491507844,1.646795581e-05,-0.0003896550175,-0.0003731870617,0.001891650172,0.0004917084804,0.002383358652,0.002298321136,0.0002837827892,0.002582103925,0.0005016697133,-0.0009269984123,-0.000425328699,0.001115577084,-0.001338763155,-0.0002231860706,-0.001364239559,-0.001222479901,-0.00258671946,0.0001056794831,-0.0008875458325,-0.0007818663494,-0.001480136369,-9.192454282e-06,-0.001489328823,-0.001659734944,8.319112817e-06,-0.001651415831,-0.001349675099,-1.069462158e-05,-0.001360369721,-0.000869285705,0.0001762725772,-0.0006930131278,-0.001284874079,-0.0007695468689,-0.002054420948,-0.002264563674,0.0002112387438,-0.002053324931,-0.001531656756,0.0001972923276,-0.001334364428,-0.0007541695282,0.0003611117913,-0.0003930577369
5.7,0.00757963582,0.001534661901,0.009114297722,0.0004476860133,0.0005857595499,0.001033445563,0.001599972769,0.0006714322772,0.002271405046,-0.00105869219,-2.842379508e-05,-0.001087115985,-0.001805326386,8.647132963e-05,-0.001718855057,-0.001413528514,-3.297533325e-05,-0.001446503847,-0.00155304399,-2.925209702e-05,-0.001582296087,-0.001230853095,1.277274885e-05,-0.001218080346,-0.001066165554,5.155534011e-05,-0.001014610214,-0.00119889515,-9.912881561e-05,-0.001298023966,-0.001647583955,-0.0004593615333,-0.002106945489,-0.00106591675,-0.0004698831876,-0.001535799937,-0.00121459588,-0.0002396092602,-0.001454205141,0.0002212812051,-0.0009313379572,-0.0007100567521,-0.001344730196,-0.0001680389681,-0.001512769165,-0.001547203386,-1.892947496e-06,-0.001549096334,-0.001382269007,0.0004623510993,-0.0009199179078,-0.001533417815,4.080384492e-05,-0.001492613971,-0.001794966284,0.0005915962681,-0.001203370016,-0.001292021517,-4.028338883e-05,-0.001332304906,-0.0004281049194,-0.0001427648395,-0.0005708697589,-9.171299294e-05,-0.0003882366034,-0.0004799495963,0.001820556807,0.0005047510152,0.002325307822,0.002286730237,0.0002747756385,0.002561505875,0.0004545317955,-0.0009170400988,-0.0004625083033,0.001086269202,-0.00134007749,-0.0002538082875,-0.001439977512,-0.001194093423,-0.002634070935,7.337209126e-05,-0.0009111406879,-0.0008377685966,-0.001533462377,-1.278646767e-05,-0.001546248844,-0.001706979721,2.030926109e-05,-0.00168667046,-0.00138816248,-7.246605961e-06,-0.001395409086,-0.0009157542001,0.0001881325981,-0.0007276216021,-0.00136465967,-0.0007704496542,-0.002135109324,-0.002376889032,0.0002306374358,-0.002146251596,-0.001567746496,0.0001998446684,-0.001367901827,-0.0007695328871,0.0003385330377,-0.0004309998493
5.8,0.007829451945,0.001537552058,0.009367004003,0.0004108714555,0.0005880361083,0.0009989075639,0.001613432017,0.0006682078007,0.002281639817,-0.001106261967,-1.878717239e-05,-0.00112504914,-0.001852165931,0.0001003480227,-0.001751817908,-0.001448398877,-2.653670574e-05,-0.001474935582,-0.00161054754,-2.409719708e-05,-0.001634644738,-0.00129391113,2.706124692e-05,-0.001266849883,-0.001118567163,5.955026577e-05,-0.001059016897,-0.001253117609,-9.320076262e-05,-0.001346318371,-0.001690704855,-0.0004519185425,-0.002142623398,-0.001148292849,-0.0004506031639,-0.001598896013,-0.001272883838,-0.0002372814354,-0.001510165274,0.0001304895793,-0.0009033711844,-0.0007728816051,-0.001402688331,-0.0001662457637,-0.001568934094,-0.00158878552,-2.20179419e-06,-0.001590987315,-0.001470381783,0.0005002262764,-0.0009701555064,-0.001577844414,4.545416329e-05,-0.001532390251,-0.001820143748,0.0005750467231,-0.001245097025,-0.001345102884,-3.448092213e-05,-0.001379583806,-0.0004537161026,-0.0001370187705,-0.0005907348731,-0.0001926721586,-0.0003865501584,-0.000579222317,0.001755884216,0.0005183742014,0.002274258418,0.002279999795,0.000265434035,0.00254543383,0.0004094914373,-0.0009048081769,-0.0004953167395,0.001059213275,-0.001340375106,-0.0002811618314,-0.001514516326,-0.001163228499,-0.002677744825,4.323897518e-05,-0.0009331613615,-0.0008899223863,-0.001584472085,-1.625961396e-05,-0.001600731699,-0.001749760597,3.14884922e-05,-0.001718272105,-0.001426524989,-3.886933298e-06,-0.001430411923,-0.0009602638605,0.000199616831,-0.0007606470295,-0.00144785374,-0.0007650187657,-0.002212872506,-0.002485101281,0.0002490764283,-0.002236024852,-0.001603656132,0.0002033126877,-0.001400343444,-0.000782723963,0.0003154293339,-0.0004672946291
5.9,0.008075193103,0.001535542993,0.009610736097,0.000379182068,0.0005906502346,0.0009698323026,0.001628142787,0.0006648527655,0.002292995553,-0.001151607693,-8.734111541e-06,-0.001160341805,-0.001897290716,0.0001145939599,-0.001782696756,-0.001481337236,-2.00529179e-05,-0.001501390154,-0.001666761572,-1.889347214e-05,-0.001685655044,-0.001355854715,4.127687253e-05,-0.001314577843,-0.001170999175,6.77897335e-05,-0.001103209442,-0.001305703809,-8.719287852e-05,-0.001392896688,-0.001732128662,-0.000443882504,-0.002176011166,-0.001223225982,-0.0004334439273,-0.00165666991,-0.001329847336,-0.000235794107,-0.001565641443,4.41263992e-05,-0.0008741469892,-0.00083002059,-0.001458748902,-0.0001634689492,-0.001622217851,-0.00163006691,-2.408610021e-06,-0.00163247552,-0.001553207759,0.0005315101767,-0.001021697583,-0.001621003556,5.051575068e-05,-0.001570487805,-0.001841484654,0.0005580107699,-0.001283473884,-0.001396118443,-2.904780663e-05,-0.00142516625,-0.0004775551839,-0.0001310709001,-0.000608626084,-0.0002861543864,-0.0003846422076,-0.000670796594,0.001697276532,0.0005323312949,0.002229607826,0.002278175439,0.0002556777417,0.002533853181,0.0003667010405,-0.00089032753,-0.0005236264895,0.00103462179,-0.001339792338,-0.000305170548,-0.001587505378,-0.001130037353,-0.002717542731,1.518592561e-05,-0.0009534170951,-0.0009382311694,-0.001632981932,-1.955822446e-05,-0.001652540157,-0.001787955227,4.187018368e-05,-0.001746085044,-0.00146457234,-6.356089198e-07,-0.001465207949,-0.001002482725,0.0002106425816,-0.0007918401438,-0.001533775083,-0.0007533333303,-0.002287108413,-0.002588594344,0.0002664780499,-0.002322116294,-0.001639187117,0.0002075740747,-0.001431613043,-0.0007938670986,0.0002920698265,-0.0005017972721
6.0,0.008317186442,0.001528683143,0.009845869584,0.0003528152265,0.0005935164761,0.0009463317026,0.001644251731,0.0006612855455,0.002305537276,-0.001194407606,1.662018175e-06,-0.001192745588,-0.001940398016,0.000129111112,-0.001811286904,-0.001512212963,-1.358885842e-05,-0.001525801821,-0.001721369726,-1.366733145e-05,-0.001735037057,-0.001416375033,5.529388926e-05,-0.001361081143,-0.001223151393,7.625128146e-05,-0.001146900112,-0.001356419174,-8.113145878e-05,-0.001437550633,-0.001771560526,-0.0004353042596,-0.002206864785,-0.00129072423,-0.0004185496391,-0.001709273869,-0.00138547054,-0.0002351615403,-0.001620632081,-3.784661059e-05,-0.0008438940226,-0.0008817406332,-0.001512815017,-0.000159839875,-0.001672654892,-0.001670806165,-2.572124626e-06,-0.00167337829,-0.001630565287,0.0005562444018,-0.001074320885,-0.001662724264,5.59608452e-05,-0.001606763418,-0.00185889744,0.0005403494109,-0.001318548029,-0.001444871021,-2.398213144e-05,-0.001468853152,-0.0004994677251,-0.0001249693434,-0.0006244370684,-0.0003719560763,-0.0003825564791,-0.0007545125554,0.001644368294,0.0005463894256,0.00219075772,0.002281285218,0.0002454336622,0.00252671888,0.0003262792849,-0.0008736443908,-0.0005473651059,0.00101266084,-0.001338465185,-0.0003258043448,-0.001658606732,-0.001094717855,-0.002753324587,-1.092066368e-05,-0.0009717418478,-0.0009826625115,-0.001678841987,-2.263300566e-05,-0.001701474993,-0.001821502525,5.147737635e-05,-0.001770025149,-0.001502131722,2.494662415e-06,-0.00149963706,-0.001042114391,0.0002211324746,-0.0008209819163,-0.001621739864,-0.0007355508835,-0.002357290748,-0.002686846861,0.0002828087994,-0.002404038062,-0.001674136047,0.000212479512,-0.001461656535,-0.0008031030866,0.0002687153082,-0.0005343877784
6.1,0.008555775161,0.001517048522,0.01007282368,0.0003319177566,0.000596549287,0.0009284670437,0.001661898297,0.0006574325006,0.002319330798,-0.001234367012,1.232976473e-05,-0.001222037247,-0.001981204443,0.0001438040302,-0.001837400413,-0.001540910058,-7.204983735e-06,-0.001548115042,-0.001774073109,-8.441684447e-06,-0.001782514794,-0.001475187703,6.899455315e-05,-0.00140619315,-0.001274716689,8.49131283e-05,-0.001189803561,-0.001405047824,-7.504016724e-05,-0.001480087991,-0.001808726147,-0.0004262351664,-0.002234961313,-0.001350839551,-0.0004060438232,-0.001756883374,-0.001439729779,-0.000235389096,-0.001675118875,-0.0001154999854,-0.0008128414542,-0.0009283414396,-0.001564809656,-0.0001554870638,-0.00172029672,-0.001710774371,-2.75301109e-06,-0.001713527382,-0.001702363443,0.000574578202,-0.001127785241,-0.001702859225,6.175830752e-05,-0.001641100918,-0.001872308835,0.0005219023616,-0.001350406473,-0.001491189322,-1.927556284e-05,-0.001510464885,-0.0005193169986,-0.0001187600612,-0.0006380770599,-0.0004499280532,-0.0003803340363,-0.0008302620895,0.001596789432,0.0005603315812,0.002157121014,0.002289335902,0.0002346359147,0.002523971816,0.0002883100046,-0.0008548292151,-0.0005665192104,0.0009934476296,-0.001336527886,-0.0003430802566,-0.001727499927,-0.001057513473,-0.002785013399,-3.525496371e-05,-0.0009879959735,-0.001023250937,-0.001721937546,-2.544097843e-05,-0.001747378525,-0.001850401099,6.03396195e-05,-0.001790061479,-0.001539046206,5.497816977e-06,-0.001533548389,-0.001078901385,0.0002310138408,-0.0008478875446,-0.001711080508,-0.0007119015696,-0.002422982078,-0.002779417619,0.0002980693566,-0.002481348262,-0.001708302386,0.0002178616706,-0.001490440716,-0.0008105906866,0.000245621658,-0.0005649690286
6.2,0.00879130845,0.001500739891,0.01029204834,0.0003165853703,0.0005996644993,0.0009162498696,0.001681213543,0.0006532287907,0.002334442334,-0.001271221925,2.320011252e-05,-0.001248021812,-0.002019449292,0.0001585807576,-0.001860868534,-0.001567327593,-9.563238452e-07,-0.001568283917,-0.001824593633,-3.236076073e-06,-0.001827829709,-0.001532037168,8.227284326e-05,-0.001449764325,-0.001325394295,9.375459566e-05,-0.001231639699,-0.0014513951,-6.893989592e-05,-0.001520334996,-0.001843375241,-0.0004167267242,-0.002260101965,-0.001403670998,-0.0003960268857,-0.001799697884,-0.00149259366,-0.0002364717128,-0.001729065373,-0.0001889353298,-0.0007812170035,-0.0009701523333,-0.001614677074,-0.0001505336944,-0.001765210769,-0.001749757758,-3.012672439e-06,-0.00175277043,-0.001768598875,0.0005867646908,-0.001181834184,-0.00174128743,6.787450208e-05,-0.001673412928,-0.001881669894,0.0005025098687,-0.001379160025,-0.001534929698,-1.491462488e-05,-0.001549844323,-0.0005369860399,-0.0001124867636,-0.0006494728035,-0.0005199779896,-0.000378013318,-0.0008979913077,0.001554169383,0.0005739582289,0.002128127611,0.002302309541,0.0002232259255,0.002525535467,0.0002528400431,-0.0008339786297,-0.0005811385865,0.0009770472722,-0.001334111527,-0.0003570642546,-0.001793891624,-0.001018707775,-0.002812599399,-5.803368853e-05,-0.001002067704,-0.001060101392,-0.001762190687,-2.794705156e-05,-0.001790137739,-0.001874706771,6.84898849e-05,-0.001806216886,-0.001575172658,8.373079999e-06,-0.001566799578,-0.001112627781,0.000240218055,-0.0008724097262,-0.001801162513,-0.0006826811789,-0.002483843692,-0.002865937028,0.0003122819893,-0.002553655039,-0.001741497425,0.0002235457569,-0.001517951668,-0.0008165056544,0.0002230402712,-0.0005934653831
6.3,0.009024132003,0.001479879951,0.01050401195,0.0003068628426,0.0006027809426,0.0009096437852,0.001702318919,0.0006486189527,0.002350937872,-0.001304741422,3.420709452e-05,-0.001270534327,-0.002054897317,0.0001733537142,-0.001881543603,-0.001591380249,5.108417653e-06,-0.001586271831,-0.001872676784,1.933110554e-06,-0.001870743673,-0.001586700657,9.503811161e-05,-0.001491662545,-0.001374892713,0.0001027564301,-0.001272136283,-0.0014952894,-6.284871379e-05,-0.001558138113,-0.001875283937,-0.0004068301929,-0.00228211413,-0.00144936842,-0.00038857228,-0.0018379407,-0.001544024639,-0.0002383922171,-0.001782416856,-0.0002582829675,-0.0007492449193,-0.001007527887,-0.00166238357,-0.0001450957207,-0.001807479291,-0.001787560264,-3.412123474e-06,-0.001790972388,-0.001829349434,0.0005931543599,-0.001236195074,-0.00177791681,7.427454671e-05,-0.001703642263,-0.001886963079,0.0004820352338,-0.001404927845,-0.001575977023,-1.088179709e-05,-0.00158685882,-0.0005523787155,-0.0001061907851,-0.0006585695006,-0.0005820712462,-0.0003756299565,-0.0009577012027,0.001516141206,0.0005870886053,0.002103229811,0.002320161194,0.0002111526073,0.002531313802,0.0002198779341,-0.0008112164294,-0.0005913384953,0.0009634705395,-0.001331342379,-0.0003678718393,-0.00185752641,-0.0009786161985,-0.002836142608,-7.951504628e-05,-0.001013875007,-0.001093390054,-0.001799560447,-3.012477869e-05,-0.001829685226,-0.001894528094,7.596190311e-05,-0.00181856619,-0.001610378844,1.112282247e-05,-0.001599256021,-0.001143120874,0.0002486805684,-0.0008944403059,-0.001891396431,-0.0006482442149,-0.002539640646,-0.002946096242,0.0003254776701,-0.002620618572,-0.001773551345,0.0002293590952,-0.00154419225,-0.0008210372096,0.0002012154552,-0.0006198217544
6.4,0.00925458015,0.001454610604,0.01070919075,0.0003027455692,0.000605822277,0.0009085678462,0.001725325639,0.0006435572324,0.002368882872,-0.001334728267,4.528843593e-05,-0.001289439831,-0.002087340062,0.0001880404836,-0.001899299578,-0.001612998474,1.094758583e-05,-0.001602050888,-0.001918093317,7.052409532e-06,-0.001911040908,-0.001638990981,0.0001072179843,-0.001531772997,-0.001422931808,0.0001119009928,-0.001311030815,-0.001536582719,-5.678189372e-05,-0.001593364613,-0.001904255387,-0.0003965961728,-0.00230085156,-0.001488134523,-0.0003837216016,-0.001871856124,-0.001593979824,-0.0002411205735,-0.001835100398,-0.0003236970585,-0.0007171439307,-0.001040840989,-0.001707916336,-0.000139280578,-0.001847196914,-0.001824004999,-4.011038077e-06,-0.001828016037,-0.001884763579,0.000594186086,-0.001290577493,-0.001812685497,8.092358058e-05,-0.001731761916,-0.001888208961,0.0004603849824,-0.001427823979,-0.001614243926,-7.156301774e-06,-0.001621400228,-0.0005654190594,-9.99108147e-05,-0.0006653298741,-0.0006362293131,-0.0003732163471,-0.00100944566,0.001482346328,0.0005995616857,0.002081908014,0.002342818422,0.0001983725924,0.002541191015,0.000189395291,-0.0007866940646,-0.0005972987735,0.0009526744604,-0.001328339847,-0.0003756653863,-0.001918193843,-0.000937578755,-0.002855772598,-9.999279e-05,-0.001023366999,-0.001123359789,-0.001834040805,-3.195611835e-05,-0.001865996923,-0.00191001928,8.278819735e-05,-0.001827231083,-0.001644539775,1.374997795e-05,-0.001630789797,-0.001170251582,0.0002563417261,-0.0009139098556,-0.001981244564,-0.000608997958,-0.002590242522,-0.003019635961,0.0003376849236,-0.002681951038,-0.001804316315,0.0002351379658,-0.001569178349,-0.0008243834459,0.0001803805971,-0.0006440028488
6.5,0.009482970256,0.001425090306,0.01090806056,0.000304182906,0.0006087189212,0.0009129018272,0.001750335017,0.0006380077125,0.002388342729,-0.001361017727,5.638615697e-05,-0.00130463157,-0.002116595319,0.0002025644461,-0.001914030872,-0.001632127929,1.65270842e-05,-0.001615600844,-0.001960639667,1.211107514e-05,-0.001948528592,-0.001688757932,0.0001187603561,-0.001569997576,-0.001469243988,0.0001211723146,-0.001348071674,-0.00157514982,-5.075199276e-05,-0.001625901813,-0.001930118491,-0.0003860741347,-0.002316192626,-0.001520224168,-0.0003814795227,-0.00190170369,-0.001642409437,-0.0002446151088,-0.001887024546,-0.0003853483797,-0.0006851252161,-0.001070473596,-0.001751279753,-0.0001331866154,-0.001884466369,-0.00185893369,-4.867228338e-06,-0.001863800918,-0.001935046665,0.000590376481,-0.001344670184,-0.001845560551,8.778755588e-05,-0.001757772995,-0.001885473084,0.0004375260793,-0.001447947005,-0.001649668384,-3.714711799e-06,-0.001653383096,-0.0005760489151,-9.368254846e-05,-0.0006697314635,-0.0006825259566,-0.0003708011165,-0.001053327073,0.001452439822,0.0006112368257,0.002063676647,0.0023701824,0.0001848504311,0.002555032831,0.0001613316294,-0.0007605908735,-0.0005992592441,0.0009445669223,-0.001325214232,-0.0003806473098,-0.001975728678,-0.0008959554971,-0.002871684175,-0.0001197855686,-0.001030523858,-0.001150309427,-0.001865656924,-3.343040937e-05,-0.001899087333,-0.001921370955,8.899862189e-05,-0.001832372333,-0.001677534298,1.625588265e-05,-0.001661278415,-0.001193933128,0.0002631478678,-0.0009307852602,-0.00207022437,-0.0005653972796,-0.00263562165,-0.003086336381,0.0003489215205,-0.00273741486,-0.001833665799,0.0002407317029,-0.001592934096,-0.000826747131,0.0001607550195,-0.0006659921115
6.6,0.009709599322,0.001391491581,0.0111010909,0.0003110830035,0.0006114099139,0.0009224929174,0.001777439552,0.0006319442972,0.002409383849,-0.001383475051,6.744710923e-05,-0.001316027942,-0.002142505181,0.0002168552593,-0.001925649922,-0.00164872835,2.182067257e-05,-0.001626907677,-0.002000137409,1.710098298e-05,-0.001983036426,-0.001735888879,0.00012963495,-0.001606253929,-0.001513574919,0.0001305560364,-0.001383018882,-0.001610886603,-4.476899921e-05,-0.001655655603,-0.001952725561,-0.0003753119472,-0.002328037509,-0.001545941716,-0.0003818097347,-0.001927751451,-0.001689252946,-0.0002488258953,-0.001938078841,-0.00044341659,-0.0006533905875,-0.001096807178,-0.001792489769,-0.0001269033367,-0.001919393106,-0.001892204263,-6.03669743e-06,-0.00189824096,-0.001980445304,0.0005823079749,-0.001398137329,-0.00187653414,9.483321353e-05,-0.001781700926,-0.001878873779,0.0004134997437,-0.001465374036,-0.001682210487,-5.316894512e-07,-0.001682742177,-0.0005842248856,-8.753843852e-05,-0.0006717633241,-0.0007210823027,-0.0003684086544,-0.001089490957,0.001426095368,0.0006219940718,0.00204808944,0.002402129784,0.0001705586899,0.002572688474,0.0001356016405,-0.0007331138839,-0.0005975122434,0.0009390144706,-0.001322064718,-0.0003830502474,-0.00203000505,-0.0008541238476,-0.002884128898,-0.0001392235624,-0.001035355253,-0.001174578815,-0.001894461181,-3.454309279e-05,-0.001929004273,-0.001928800429,9.461928858e-05,-0.001834181141,-0.00170924341,1.863932177e-05,-0.001690604088,-0.001214118287,0.00026905221,-0.0009450660768,-0.002157911007,-0.0005179387187,-0.002675849726,-0.003146009497,0.0003591894576,-0.00278682004,-0.001861492175,0.000246005136,-0.001615487039,-0.000828332482,0.0001425421784,-0.0006857903036
