Time,S1D1HbO,S1D1HbR,S1D1HbT,S2D2HbO,S2D2HbR,S2D2HbT,S3D3HbO,S3D3HbR,S3D3HbT,S4D4HbO,S4D4HbR,S4D4HbT,S5D5HbO,S5D5HbR,S5D5HbT,S6D6HbO,S6D6HbR,S6D6HbT,S7D7HbO,S7D7HbR,S7D7HbT,S8D8HbO,S8D8HbR,S8D8HbT,S9D9HbO,S9D9HbR,S9D9HbT,S10D10HbO,S10D10HbR,S10D10HbT,S11D11HbO,S11D11HbR,S11D11HbT,S12D12HbO,S12D12HbR,S12D12HbT,S13D13HbO,S13D13HbR,S13D13HbT,S14D14HbO,S14D14HbR,S14D14HbT,S15D15HbO,S15D15HbR,S15D15HbT,S16D16HbO,S16D16HbR,S16D16HbT,S17D17HbO,S17D17HbR,S17D17HbT,S18D18HbO,S18D18HbR,S18D18HbT,S19D19HbO,S19D19HbR,S19D19HbT,S20D20HbO,S20D20HbR,S20D20HbT,S21D21HbO,S21D21HbR,S21D21HbT,S22D22HbO,S22D22HbR,S22D22HbT,S23D23HbO,S23D23HbR,S23D23HbT,S24D24HbO,S24D24HbR,S24D24HbT,S25D25HbO,S25D25HbR,S25D25HbT,S26D26HbO,S26D26HbR,S26D26HbT,S27D27HbO,S27D27HbR,S27D27HbT,S28D28HbO,S28D28HbR,S28D28HbT,S29D29HbO,S29D29HbR,S29D29HbT,S30D30HbO,S30D30HbR,S30D30HbT,S31D31HbO,S31D31HbR,S31D31HbT,S32D32HbO,S32D32HbR,S32D32HbT,S33D33HbO,S33D33HbR,S33D33HbT,S34D34HbO,S34D34HbR,S34D34HbT,S35D35HbO,S35D35HbR,S35D35HbT,S36D36HbO,S36D36HbR,S36D36HbT
0.0,-2.459588745e-05,-0.0004961655863,-0.0005207614738,0.001314914277,0.0004234449534,0.00173835923,0.0009375161724,8.938537929e-06,0.0009464547103,0.0001439360369,0.0001164288238,0.0002603648607,0.0004703752758,3.675473819e-05,0.000507130014,0.001330974895,0.0002917625915,0.001622737487,0.001370329398,-0.00021080479,0.001159524608,0.001393259938,-0.0002396638946,0.001153596043,0.001154798024,-0.0003698681967,0.0007849298272,0.001625010284,-9.78793419e-05,0.001527130942,0.001300852312,0.0001360740826,0.001436926395,-0.0008685198753,0.002838271489,0.001969751614,0.002878522006,0.0005349241025,0.003413446108,0.001794459231,0.0002084354683,0.002002894699,0.001428330871,0.0003934622341,0.001821793105,0.001143803325,0.0005507028711,0.001694506196,0.0005837658366,0.0007294248135,0.00131319065,0.001944863756,5.117145995e-05,0.001996035216,0.001233034928,5.441194793e-05,0.001287446876,0.001910463375,0.0001908136271,0.002101277002,0.001547629171,1.511810814e-05,0.001562747279,0.003090164101,-8.816190537e-05,0.003002002196,0.000129902033,5.172546359e-05,0.0001816274966,-0.001112069752,-0.0001963425222,-0.001308412274,0.001314586555,0.0001440060022,0.001458592558,0.001012583773,0.0002430598366,0.00125564361,0.001181661331,-2.368422349e-05,0.001157977107,0.00231626719,9.102477431e-05,0.002407291965,0.001555344723,0.0003120307831,0.001867375506,0.001179627133,-2.352526215e-05,0.001156101871,0.002344850869,0.0003869251415,0.00273177601,0.002484713531,0.001058145164,0.003542858695,0.001910731828,-0.0003186304762,0.001592101351,0.001763452712,0.001033087137,0.002796539849,0.001606088868,0.001486876377,0.003092965245,0.003073039315,-0.0004139352383,0.002659104076
0.1,0.0002354505856,-0.0004616119581,-0.0002261613725,0.00154511929,0.0004744787709,0.002019598061,0.00104687749,6.290054543e-06,0.001053167544,0.0002358407158,0.000115322268,0.0003511629839,0.000606341732,1.711549947e-05,0.0006234572315,0.001488480739,0.0002756807865,0.001764161526,0.00154231846,-0.000226742665,0.001315575795,0.001543853067,-0.0002645013857,0.001279351682,0.0013246615,-0.0003876592333,0.0009370022669,0.001795597284,-0.0001184040768,0.001677193208,0.001440843813,0.0001139100784,0.001554753892,-0.0008717318349,0.002953064026,0.002081332192,0.003026358346,0.0005961439337,0.00362250228,0.001932371327,0.0002100534628,0.00214242479,0.00158321012,0.0003893734084,0.001972583529,0.001327669146,0.0005706944856,0.001898363632,0.0007238343728,0.0007549383546,0.001478772727,0.002093951678,5.301079437e-05,0.002146962472,0.001334542436,6.52566142e-05,0.00139979905,0.002073302013,0.0001940821352,0.002267384148,0.001699117822,-2.378651094e-05,0.001675331311,0.003333612017,-6.560801073e-05,0.003268004006,0.0002121175999,5.413719489e-05,0.0002662547948,-0.001146886676,-0.0002177314137,-0.00136461809,0.001464854844,0.0001367629462,0.00160161779,0.001151918723,0.0002405704071,0.00139248913,0.001285023729,-2.052670633e-05,0.001264497023,0.002587254567,8.969380666e-05,0.002676948373,0.001709286516,0.0003198896167,0.002029176132,0.001278605685,-3.169076487e-05,0.001246914921,0.002560693284,0.0004032613296,0.002963954613,0.002634460644,0.001083118593,0.003717579237,0.002092787035,-0.0003356380866,0.001757148948,0.002094181461,0.0008885967625,0.002982778224,0.001797803773,0.001547051043,0.003344854816,0.003275438425,-0.0004370342833,0.002838404142
0.2,0.0004922543047,-0.0004294054996,6.284880511e-05,0.001774503936,0.0005252957307,0.002299799667,0.001152615349,1.932858103e-06,0.001154548207,0.0003252153854,0.0001135799628,0.0004387953482,0.0007406051067,-4.115313405e-06,0.0007364897933,0.001643933243,0.0002581589112,0.001902092154,0.001712579069,-0.0002431965204,0.001469382549,0.001692106662,-0.0002890279952,0.001403078667,0.001497314081,-0.0004053760106,0.00109193807,0.001965291749,-0.0001392930277,0.001825998722,0.001579136168,9.080147359e-05,0.001669937642,-0.0008623529594,0.003054886771,0.002192533812,0.00316966033,0.0006599717238,0.003829632054,0.00206877431,0.0002114988924,0.002280273202,0.001741778475,0.0003821371128,0.002123915588,0.001508826408,0.0005891939507,0.002098020358,0.000859215068,0.0007772666982,0.001636481766,0.002233044252,5.591113916e-05,0.002288955392,0.001430182978,7.683286789e-05,0.001507015846,0.002234451486,0.0001962347681,0.002430686254,0.001844063293,-6.451862236e-05,0.00177954467,0.003574947432,-4.033063033e-05,0.003534616802,0.0002955748921,5.61296035e-05,0.0003517044956,-0.001188573589,-0.0002409246348,-0.001429498224,0.001615510267,0.000128802116,0.001744312383,0.001291731865,0.0002376450881,0.001529376953,0.001384442982,-1.62369832e-05,0.001368205999,0.002856203266,9.013226338e-05,0.00294633553,0.00186099882,0.0003261490999,0.00218714792,0.001375013651,-4.189780333e-05,0.001333115847,0.002772681324,0.0004176908558,0.00319037218,0.002788105668,0.001106897841,0.003895003509,0.002267418516,-0.0003511326514,0.001916285865,0.00242041152,0.0007402771565,0.003160688676,0.001985219407,0.001602350869,0.003587570276,0.003467440791,-0.0004571787099,0.003010262081
0.3,0.0007438724453,-0.0004000657343,0.0003438067109,0.00200217434,0.0005757499804,0.00257792432,0.001253630524,-4.360026541e-06,0.001249270498,0.0004114643074,0.000111154823,0.0005226191303,0.0008725323412,-2.69102464e-05,0.0008456220948,0.00179652882,0.0002394744426,0.002036003263,0.001880347481,-0.0002601167089,0.001620230772,0.001837265055,-0.0003132298075,0.001524035248,0.00167185981,-0.000422987861,0.001248871949,0.002133297234,-0.0001605109763,0.001972786258,0.001715125094,6.680924956e-05,0.001781934343,-0.0008392708094,0.003143121057,0.002303850247,0.003308085141,0.0007259245422,0.004034009683,0.002203486595,0.0002126878695,0.002416174464,0.001903226137,0.0003719750923,0.002275201229,0.001686479098,0.0006061872301,0.002292666328,0.0009893986457,0.000796255955,0.001785654601,0.002361379049,5.989306751e-05,0.002421272117,0.001519288912,8.917036374e-05,0.001608459275,0.002393230315,0.0001971335563,0.002590363872,0.001981518918,-0.0001069724311,0.001874546486,0.003813255712,-1.240389395e-05,0.003800851818,0.000379943356,5.76934842e-05,0.0004376368402,-0.00123726601,-0.0002658975579,-0.001503163568,0.001765968902,0.0001201526992,0.001886121601,0.001431697671,0.0002343184858,0.001666016157,0.001479283543,-1.063175322e-05,0.00146865179,0.003121702897,9.235747416e-05,0.003214060371,0.002009864367,0.0003307005603,0.002340564928,0.001468458082,-5.405811527e-05,0.001414399967,0.002979898507,0.0004300536661,0.003409952173,0.002945060741,0.001128971777,0.004074032518,0.002433593222,-0.0003644924721,0.00206910075,0.002739710682,0.0005901905766,0.003329901259,0.002167098445,0.00165294766,0.003820046105,0.003647707857,-0.0004744010528,0.003173306804
0.4,0.0009883382108,-0.0003741254937,0.0006142127171,0.002227258075,0.0006257010972,0.002852959173,0.001348757561,-1.284258186e-05,0.001335914979,0.0004939797855,0.0001079892676,0.0006019690531,0.001001486636,-5.123651827e-05,0.0009502501182,0.001945446343,0.0002199157692,0.002165362112,0.002044850723,-0.0002774554743,0.001767395248,0.001978545777,-0.0003370960361,0.001641449741,0.001847329212,-0.0004404759144,0.001406853298,0.002298790662,-0.0001820247524,0.00211676591,0.00184819225,4.199549329e-05,0.001890187743,-0.0008015778152,0.00321737517,0.002415797355,0.003441334524,0.0007934759199,0.004234810443,0.002336350188,0.0002135373613,0.00254988755,0.002066647965,0.0003591511025,0.002425799067,0.001859842293,0.0006216835754,0.002481525868,0.001113954018,0.0008118153937,0.001925769411,0.002478288737,6.495749491e-05,0.002543246231,0.001601241005,0.0001022854094,0.001703526415,0.002548942279,0.0001966508345,0.002745593114,0.002110555918,-0.0001510370443,0.001959518874,0.004047648627,1.804891601e-05,0.004065697543,0.0004648658095,5.881843014e-05,0.0005236842396,-0.001293031323,-0.000292608267,-0.00158563959,0.001915633238,0.0001108605529,0.002026493791,0.001571505629,0.0002306340736,0.001802139703,0.001568898637,-3.527381566e-06,0.001565371255,0.003382369203,9.638450513e-05,0.003478753708,0.002155253739,0.000333462604,0.002488716343,0.001558539121,-6.804831003e-05,0.001490490811,0.003181418227,0.0004402220983,0.003621640325,0.003104639345,0.001148798763,0.004253438107,0.002590320675,-0.0003750788732,0.002215241801,0.003049599643,0.0004404784617,0.003490078104,0.002342344725,0.00169900257,0.004041347295,0.003815032438,-0.0004888153418,0.003326217096
0.5,0.001223679723,-0.0003521270075,0.0008715527155,0.002448908389,0.0006750139786,0.003123922368,0.001436776314,-2.379322581e-05,0.001412983088,0.0005721456105,0.0001040157037,0.0006761613142,0.001126834238,-7.705535603e-05,0.001049778882,0.002089856591,0.0001997748828,0.002289631474,0.002205312502,-0.0002951665264,0.001910145976,0.002115143312,-0.0003606150507,0.001754528261,0.002022684894,-0.0004578332277,0.001564851666,0.002460927446,-0.0002038029585,0.002257124488,0.0019777107,1.642375241e-05,0.001994134452,-0.0007485789107,0.003277457522,0.002528878611,0.003569166563,0.0008620487393,0.004431215302,0.002467225065,0.0002139694123,0.002681194477,0.002231050693,0.0003439611411,0.002575011834,0.002028152206,0.000635708469,0.002663860675,0.00123252292,0.0008239213929,0.002056444313,0.002583203251,7.108246015e-05,0.002654285711,0.001675476513,0.0001161765693,0.001791653082,0.002700880461,0.000194669921,0.002895550382,0.002230269888,-0.0001965946839,0.002033675204,0.004277267572,5.085444765e-05,0.00432812202,0.0005499676387,5.949497962e-05,0.0006094626183,-0.001355865629,-0.0003209966996,-0.001676862329,0.0020638993,0.0001009913817,0.002164890681,0.001710860036,0.0002266433693,0.001937503405,0.001652637256,5.254357494e-06,0.001657891614,0.003636865533,0.0001022248953,0.003739090428,0.002296525104,0.0003343865872,0.002630911691,0.001644845953,-8.370570724e-05,0.001561140246,0.003376303323,0.000448103767,0.00382440709,0.003266058565,0.001165823515,0.004431882081,0.002736666308,-0.0003822573174,0.002354408991,0.003347577695,0.0002933273616,0.003640905056,0.002510005549,0.00174066151,0.004250667059,0.003968348986,-0.0005006057239,0.003467743262
0.6,0.001447939397,-0.0003346173885,0.001113322008,0.002666307573,0.000723558474,0.003389866047,0.001516424186,-3.751141436e-05,0.001478912772,0.0006453403965,9.915748337e-05,0.0007444978799,0.001247950593,-0.0001043212397,0.001143629354,0.002228933763,0.0001793387184,0.002408272481,0.002360958386,-0.0003132045906,0.002047753796,0.002246233721,-0.000383770607,0.001862463114,0.00219682788,-0.0004750646805,0.001721763199,0.002618846657,-0.0002258157489,0.002393030908,0.002103050369,-9.840618771e-06,0.00209320975,-0.0006798008409,0.003323350492,0.002643549651,0.003691400779,0.0009310119392,0.004622412718,0.002595981853,0.0002139153929,0.002809897246,0.002395364499,0.0003267247374,0.002722089237,0.002190673816,0.0006482966375,0.002838970454,0.001344811502,0.0008326159036,0.002177427405,0.002675649855,7.822021281e-05,0.002753870068,0.001741493462,0.0001308218207,0.001872315283,0.002848331862,0.0001910834896,0.003039415351,0.002339787662,-0.0002435197587,0.002096267903,0.004501284202,8.578960186e-05,0.004587073804,0.0006348660541,5.971687648e-05,0.0006945829306,-0.001425690687,-0.0003509837757,-0.001776674463,0.002210162741,9.063331469e-05,0.002300796055,0.001849477919,0.0002224048348,0.002071882754,0.001729853455,1.588022666e-05,0.001745733682,0.003883924423,0.0001098840124,0.003993808435,0.002433025243,0.0003334602584,0.002766485502,0.001726953501,-0.0001008266011,0.0016261269,0.003563610385,0.0004536409552,0.00401725134,0.003428453972,0.001179482762,0.004607936734,0.002871762239,-0.0003854172332,0.002486345006,0.003631148402,0.000150929155,0.003782077557,0.00266926587,0.001778053809,0.004447319679,0.004106737199,-0.0005100110485,0.003596726151
0.7,0.001659193874,-0.0003221436216,0.001337050252,0.002878669717,0.0007712090076,0.003649878725,0.001586410149,-5.431359818e-05,0.001532096551,0.0007129420067,9.333019147e-05,0.0008062721982,0.001364226767,-0.0001329811749,0.001231245592,0.002361868007,0.0001588810166,0.002520749024,0.002511021183,-0.0003315251578,0.002179496026,0.002370981125,-0.0004065387524,0.001964442372,0.002368605202,-0.0004921868149,0.001876418387,0.002771677211,-0.0002480347838,0.002523642427,0.002223584535,-3.673021775e-05,0.002186854317,-0.000595011637,0.003355200241,0.002760188604,0.003807917956,0.0009996825736,0.004807600529,0.002722492982,0.0002133208116,0.002935813794,0.002558460915,0.0003077771245,0.00286623804,0.002346706075,0.0006594860461,0.003006192121,0.001450579087,0.0008380010094,0.002288580096,0.00275525081,8.629630287e-05,0.002841547113,0.001798853241,0.0001461763925,0.001945029634,0.002990582446,0.0001857913729,0.003176373819,0.00243827508,-0.0002916783647,0.002146596715,0.004718900185,0.0001225836905,0.004841483875,0.0007191796043,5.9483264e-05,0.0007786628683,-0.001502350421,-0.0003824704276,-0.001884820849,0.002353824784,7.989768975e-05,0.002433722474,0.00198708624,0.0002179828216,0.002205069061,0.001799917902,2.849899966e-05,0.001828416902,0.004122367111,0.0001193582553,0.004241725367,0.002564093515,0.0003307088283,0.002894802343,0.00180442223,-0.0001191677135,0.001685254517,0.003742398411,0.0004568085471,0.004199206958,0.003590902055,0.001189206808,0.004780108863,0.002994816819,-0.0003839917362,0.002610825083,0.003897848404,1.54358511e-05,0.003913284255,0.002819439317,0.001811290161,0.004630729478,0.004229423392,-0.0005173102913,0.003712113101
0.8,0.001855574962,-0.0003152471957,0.001540327766,0.003085243471,0.0008178443287,0.003903087799,0.001645431427,-7.45286712e-05,0.001570902756,0.0007743343112,8.644311102e-05,0.0008607774222,0.001475077071,-0.0001629740952,0.001312102976,0.002487878052,0.000138656155,0.002626534207,0.002654747324,-0.0003500844033,0.002304662921,0.002488547006,-0.0004288855858,0.00205966142,0.002536819119,-0.000509227696,0.002027591423,0.002918545776,-0.000270433347,0.002648112429,0.002338698094,-6.417546431e-05,0.00227452263,-0.0004942523358,0.003373327351,0.002879075015,0.003918656289,0.001067333974,0.004985990263,0.002846623615,0.0002121498578,0.003058773473,0.0027191775,0.0002874607369,0.003006638237,0.00249558588,0.0006693132617,0.003164899142,0.001549625456,0.0008402321557,0.002389857612,0.002821718806,9.521126217e-05,0.002916930068,0.001847183112,0.0001621713629,0.002009354475,0.003126922229,0.0001786998994,0.003305622128,0.00252494636,-0.0003409282762,0.002184018084,0.004929347461,0.0001609230316,0.005090270493,0.0008025379246,5.88005634e-05,0.000861338488,-0.001585606961,-0.0004153365701,-0.002000943531,0.002494299352,6.891728403e-05,0.002563216636,0.002123419894,0.0002134466534,0.002336866547,0.001862231381,4.323512105e-05,0.001905466502,0.00435111803,0.0001306337506,0.004481751781,0.002689069496,0.000326193289,0.003015262785,0.001876800982,-0.0001384499476,0.001738351034,0.00391173953,0.0004576127818,0.004369352312,0.003752442264,0.001194430409,0.004946872673,0.003105125284,-0.0003774787296,0.002727646554,0.004145281828,-0.0001110902944,0.004034191533,0.002959960153,0.001840458245,0.004800418398,0.004335783512,-0.0005228116619,0.00381297185
0.9,0.002035291792,-0.0003144583207,0.001720833471,0.003285315503,0.0008633474326,0.004148662936,0.001692192524,-9.84929513e-05,0.001593699572,0.0008289165209,7.840085639e-05,0.0009073173773,0.001579947938,-0.0001942304256,0.001385717513,0.002606223447,0.0001188950035,0.00272511845,0.002791404251,-0.0003688391599,0.002422565091,0.002598102535,-0.0004507658432,0.002147336692,0.002700237765,-0.0005262267474,0.002174011017,0.003058586246,-0.0002929865189,0.002765599727,0.002447797357,-9.210459112e-05,0.002355692766,-0.0003778730978,0.003378249173,0.003000376075,0.004023601637,0.001133212329,0.005156813965,0.002968223564,0.00021038792,0.003178611484,0.002876345778,0.0002661167364,0.003142462514,0.002636691714,0.0006778100856,0.0033145018,0.001641777763,0.0008395119851,0.002481289748,0.00287485168,0.0001048436544,0.002979695335,0.001886178962,0.0001787135157,0.002064892478,0.003256650333,0.0001697236516,0.003426373984,0.002599075063,-0.0003911198027,0.002207955261,0.005131889349,0.0002004577994,0.005332347149,0.0008845910511,5.768384456e-05,0.0009422748957,-0.001675136984,-0.0004494401591,-0.002124577144,0.002631021094,5.784240863e-05,0.002688863503,0.002258221339,0.0002088695699,0.002467090909,0.00191623999,6.018359612e-05,0.001976423587,0.00456921372,0.0001436867851,0.004712900505,0.00280730332,0.0003200064774,0.003127309797,0.001943630687,-0.0001583628258,0.001785267861,0.004070729883,0.0004560914094,0.004526821292,0.003912092766,0.001194618495,0.005106711261,0.003202082592,-0.0003654625617,0.00283662003,0.004371160938,-0.0002267297584,0.00414443118,0.003090377823,0.001865616839,0.004955994663,0.004425348934,-0.0005268453023,0.003898503632
1.0,0.002196653816,-0.000320289562,0.001876364254,0.003478214812,0.0009076057769,0.004385820589,0.001725424954,-0.0001265447494,0.001598880205,0.00087611397,6.91052733e-05,0.0009452192433,0.001678326793,-0.000226671812,0.001451654981,0.002716215209,9.980262669e-05,0.002816017836,0.002920287927,-0.0003877469646,0.002532540962,0.002698842944,-0.0004721224136,0.00222672053,0.002857606512,-0.0005432344452,0.002314372067,0.003190949807,-0.0003156713181,0.002875278489,0.002550320049,-0.0001204437828,0.002429876266,-0.0002465615978,0.003370700372,0.003124138774,0.004122769131,0.001196562697,0.005319331828,0.003087120491,0.0002080405564,0.003295161047,0.003028816837,0.0002440789061,0.003272895743,0.00276944698,0.000685001096,0.003454448076,0.001726877825,0.0008360850804,0.002562962906,0.002914528053,0.0001150535236,0.003029581576,0.001915607466,0.0001956866764,0.002111294143,0.003379079666,0.0001587891617,0.003537868827,0.002660005245,-0.000442097585,0.00221790766,0.005325822206,0.0002408101951,0.005566632401,0.000965017209,5.615763994e-05,0.001021174849,-0.001770529565,-0.0004846165495,-0.002255146115,0.002763452137,4.683597096e-05,0.002810288108,0.002391241285,0.0002043271391,0.002595568424,0.001961451075,7.940650584e-05,0.002040857581,0.004775807436,0.0001584848018,0.004934292238,0.002918166567,0.000312267598,0.003230434165,0.002004447405,-0.0001785689235,0.001825878481,0.004218499727,0.0004523141067,0.004670813833,0.00406885995,0.001189298667,0.005258158616,0.003285197092,-0.0003476330042,0.002937564087,0.004573352227,-0.0003297587225,0.004243593504,0.003210353517,0.00188679035,0.005097143867,0.004497811535,-0.0005297573605,0.003968054175
1.1,0.002338093785,-0.0003332288834,0.002004864901,0.003663317462,0.0009505119292,0.004613829391,0.001743905931,-0.0001590186879,0.001584887243,0.0009153887876,5.845760271e-05,0.0009738463903,0.001769749188,-0.0002602110741,0.001509538113,0.002817223311,8.155795535e-05,0.002898781266,0.003040729354,-0.0004067662975,0.002633963057,0.002790002176,-0.000492887123,0.002297115053,0.00300765926,-0.0005603117675,0.002447347493,0.003314814445,-0.0003384667825,0.002976347663,0.002645744054,-0.000149117425,0.002496626629,-0.0001013567511,0.003351643759,0.003250287008,0.00421617914,0.001256660086,0.005472839226,0.003203114125,0.0002051290248,0.00340824315,0.003175481016,0.000221670429,0.003397151445,0.002893322524,0.0006909017811,0.003584224305,0.001804770242,0.0008302327863,0.002635003029,0.002940704193,0.0001256867932,0.003066390986,0.001935306529,0.0002129545828,0.002148261111,0.003493540896,0.0001458390169,0.003639379913,0.002707160895,-0.0004937029472,0.002213457948,0.005510477177,0.0002815832696,0.005792060447,0.001043528187,5.425622659e-05,0.001097784413,-0.001871286387,-0.0005206783738,-0.002391964761,0.00289108577,3.606806775e-05,0.002927153838,0.002522239168,0.0001998950782,0.002722134246,0.001997448071,0.0001009300393,0.002098378111,0.004970170054,0.0001749869243,0.005145156979,0.003021061935,0.0003031159211,0.003324177856,0.002058784848,-0.000198708683,0.001860076165,0.004354222243,0.000446382008,0.004800604251,0.004221748513,0.001178086823,0.005399835336,0.003354102232,-0.0003237986799,0.003030303552,0.004749926235,-0.0004186981433,0.004331228092,0.00331965719,0.001903965666,0.005223622856,0.004553021202,-0.0005319018533,0.004021119348
1.2,0.00245818994,-0.0003537323017,0.002104457638,0.003840051234,0.000991964613,0.004832015847,0.001746475235,-0.0001962399778,0.001550235257,0.0009462496985,4.636073786e-05,0.0009926104364,0.001853803208,-0.000294752476,0.001559050732,0.002908680915,6.431486863e-05,0.002972995784,0.003152099537,-0.0004258570818,0.002726242455,0.00287086598,-0.0005129827061,0.002357883274,0.003149129301,-0.0005775293415,0.002571599959,0.003429393314,-0.0003613539576,0.003068039357,0.002733594091,-0.0001780483285,0.002555545762,5.635221455e-05,0.003322268554,0.003378620769,0.004303834204,0.001312838622,0.005616672827,0.003315971066,0.0002016844201,0.003517655486,0.003315281941,0.0001992016808,0.003514483621,0.003007837952,0.000695517022,0.003703354974,0.001875291947,0.000822266913,0.00269755886,0.002953412001,0.000136581097,0.003089993098,0.001945183829,0.000230364993,0.002175548822,0.00359938618,0.0001308347604,0.00373022094,0.002740052801,-0.0005457765022,0.002194276298,0.005685221882,0.0003223700342,0.006007591916,0.001119872023,5.202335408e-05,0.001171895378,-0.001976824446,-0.0005574161116,-0.002534240558,0.003013447265,2.571019118e-05,0.003039157456,0.00265098239,0.0001956468172,0.002846629207,0.002023902385,0.0001247409214,0.002148643306,0.005151687932,0.0001931430687,0.005344831001,0.003115431202,0.0002927043796,0.003408135581,0.002106177205,-0.0002184059814,0.001887771224,0.004477120888,0.0004384262352,0.004915547124,0.00436977735,0.001160700349,0.005530477699,0.003408563544,-0.0002938940294,0.003114669515,0.004899207454,-0.0004923558474,0.004406851607,0.003418162713,0.001917092852,0.005335255565,0.004590971933,-0.0005336274531,0.00405734448
1.3,0.002555687099,-0.000382216398,0.002173470702,0.004007899939,0.001031870013,0.005039769952,0.00173205067,-0.0002385188092,0.001493531861,0.0009682612543,3.272144568e-05,0.0010009827,0.001930131307,-0.0003301923541,0.001599938953,0.002990086833,4.820369525e-05,0.003038290528,0.003253813124,-0.0004449814076,0.002808831716,0.002940782504,-0.0005323252354,0.002408457269,0.003280760024,-0.0005949663079,0.002685793717,0.003533942267,-0.0003843157602,0.003149626507,0.002813446565,-0.000207157834,0.002606288731,0.0002248405057,0.003283973021,0.003508813527,0.004385699839,0.001364515164,0.005750215002,0.003425419829,0.0001977428563,0.003623162685,0.003447227952,0.0001769671043,0.003624195056,0.003112562497,0.0006988394153,0.003811401912,0.001938265,0.0008125207364,0.002750785736,0.002952758521,0.0001475720624,0.003100330584,0.001945214419,0.0002477542478,0.002192968666,0.003695993298,0.0001137585499,0.003809751848,0.002758283543,-0.0005981611631,0.00216012238,0.005849462452,0.0003627623645,0.006212224816,0.001193833382,4.951135669e-05,0.001243344739,-0.002086480631,-0.000594599453,-0.002681080084,0.003130093066,1.592962656e-05,0.003146022693,0.002777244226,0.0001916512029,0.002968895428,0.002040581452,0.0001507828114,0.002191364264,0.005319859904,0.0002128906087,0.005532750513,0.003200762057,0.0002811937859,0.003481955842,0.002146162974,-0.000237274408,0.001908888566,0.004586475854,0.000428605415,0.005015081269,0.004511995497,0.001136967098,0.005648962595,0.003448478858,-0.000257979466,0.003190499392,0.005019818127,-0.0005498593447,0.004469958782,0.00350583781,0.001926091596,0.005431929405,0.004611780054,-0.0005352593932,0.004076520661
1.4,0.002629516896,-0.0004190507548,0.002210466142,0.004166407554,0.001070143335,0.005236550889,0.001699643134,-0.0002861448997,0.001413498235,0.0009810533156,1.745264193e-05,0.0009985059576,0.001998430643,-0.0003664200507,0.001632010592,0.003061007435,3.33330534e-05,0.003094340488,0.003345331555,-0.0004641043803,0.002881227175,0.002999170785,-0.000550826347,0.002448344438,0.003401316242,-0.0006127090378,0.002788607205,0.003627767444,-0.0004073367536,0.00322043069,0.002884933634,-0.0002363658787,0.002648567755,0.0004020793361,0.003238326612,0.003640405949,0.004461687421,0.00141120812,0.005872895541,0.00353114614,0.0001933428982,0.003724489038,0.003570404076,0.0001552411671,0.003725645243,0.003207117025,0.0007008470589,0.003907964083,0.001993494593,0.0008013365768,0.00279483117,0.002938927798,0.0001584981103,0.003097425908,0.001935438832,0.0002649518155,0.002200390648,0.003782770076,9.461526677e-05,0.003877385343,0.002761552161,-0.000650705728,0.002110846433,0.006002646731,0.0004023592747,0.006405006006,0.001265232305,4.677965551e-05,0.00131201196,-0.002199517281,-0.0006319794463,-0.002831496728,0.003240609287,6.884814154e-06,0.003247494102,0.002900801116,0.0001879706424,0.003088771759,0.002047353921,0.0001789539381,0.002226307859,0.005474294717,0.0002341491626,0.00570844388,0.003276594221,0.0002687483294,0.00354534255,0.00217829085,-0.0002549242833,0.001923366567,0.004681630648,0.000417101609,0.005098732257,0.0046474877,0.001106841175,0.005754328875,0.003473871758,-0.0002162343385,0.00325763742,0.005110710019,-0.0005906759327,0.004520034087,0.003582727791,0.001930864725,0.005513592516,0.004615661827,-0.0005370798632,0.004078581964
1.5,0.002678817577,-0.0004645501617,0.002214267416,0.00431518269,0.001106710748,0.005421893438,0.001648372169,-0.0003393821895,0.00130898998,0.0009843314199,4.758856026e-07,0.0009848073055,0.002058453116,-0.0004033190953,0.00165513402,0.003121078595,1.979266028e-05,0.003140871255,0.003426166533,-0.0004831950097,0.002942971524,0.003045528045,-0.0005683950682,0.002477132976,0.003509596844,-0.0006308498552,0.002878746989,0.003710233752,-0.0004304029201,0.003279830832,0.002947747514,-0.000265591206,0.002682156308,0.0005857901862,0.003187006907,0.003772797093,0.004531638171,0.001452553291,0.005984191462,0.003632788874,0.0001885252619,0.003821314136,0.003683984751,0.0001342751832,0.003818259934,0.003291177717,0.0007015015644,0.003992679282,0.002040771592,0.0007890522285,0.002829823821,0.002912185962,0.000169202027,0.003081387989,0.001915962731,0.0002817852049,0.002197747936,0.003859158466,7.343634631e-05,0.003932594813,0.00274965944,-0.0007032686284,0.002046390811,0.006144269153,0.0004407744231,0.006585043576,0.001333921811,4.389272912e-05,0.00137781454,-0.002315128271,-0.0006692912501,-0.002984419521,0.003344610256,-1.278386874e-06,0.003343331869,0.00302143038,0.0001846598439,0.003206090224,0.002044193893,0.0002091061956,0.002253300088,0.005614707814,0.0002568155828,0.005871523397,0.003342524822,0.0002555323197,0.003598057142,0.002202128613,-0.0002709707688,0.001931157845,0.004762000221,0.0004041140466,0.005166114268,0.004775368722,0.001070423683,0.005845792404,0.003484880545,-0.0001689437723,0.003315936773,0.005171181261,-0.0006146151964,0.004556566065,0.003648937008,0.001931316563,0.005580253572,0.004602915099,-0.0005393111019,0.004063603998
1.6,0.002702953483,-0.0005189664052,0.002183987078,0.004453903751,0.001141511789,0.00559541554,0.001577481804,-0.0003984636774,0.001179018127,0.0009778878794,-1.827590245e-05,0.000959611977,0.002110005464,-0.0004407686356,0.001669236828,0.003170008395,7.656823164e-06,0.003177665218,0.00349588403,-0.0005022270855,0.002993656944,0.003079436167,-0.0005849393867,0.00249449678,0.003604448769,-0.0006494857337,0.002954963035,0.003780774193,-0.0004535014371,0.003327272756,0.003001645047,-0.0002947517954,0.002706893252,0.000773524663,0.003131711725,0.003905236388,0.004595310768,0.001488316196,0.006083626964,0.003729936796,0.0001833342734,0.003913271069,0.003787243574,0.0001142968511,0.003901540425,0.003364480161,0.0007007477635,0.004065227925,0.002079875946,0.0007759905423,0.002855866488,0.002872889043,0.0001795289962,0.003052418039,0.001886957751,0.000298085911,0.002185043662,0.003924638111,5.028447098e-05,0.003974922582,0.002722513284,-0.0007557209949,0.001966792289,0.006273876923,0.0004776431525,0.006751520076,0.001399784149,4.091760294e-05,0.001440701752,-0.002432445786,-0.0007062572273,-0.003138703013,0.00344173781,-8.430320581e-06,0.00343330749,0.003138908649,0.0001817650482,0.003320673697,0.002031185034,0.0002410452195,0.002272230253,0.005740917388,0.0002807596493,0.006021677037,0.003398213052,0.0002417069511,0.003639920003,0.002217274588,-0.0002850431368,0.001932231451,0.004827081627,0.0003898506251,0.005216932252,0.004894776121,0.001027975761,0.005922751883,0.003481745347,-0.0001164826493,0.003365262698,0.005200879768,-0.000621812059,0.004579067709,0.003704612386,0.001927370995,0.005631983382,0.00457390501,-0.0005421036854,0.004031801325
1.7,0.002701533791,-0.0005824797211,0.00211905407,0.004582324548,0.001174502063,0.005756826611,0.00148635561,-0.0004635863852,0.001022769225,0.0009616124825,-3.885560548e-05,0.000922756877,0.002152948552,-0.0004786451398,0.001674303412,0.003207581591,-3.013067759e-06,0.003204568524,0.003554108118,-0.0005211799696,0.003032928148,0.003100567292,-0.0006003680796,0.002500199213,0.003684781382,-0.0006687167398,0.003016064642,0.003838898944,-0.0004766203377,0.003362278606,0.003046451305,-0.0003237654225,0.002722685883,0.0009627627171,0.00307405788,0.004036820597,0.004652376165,0.001518397681,0.006170773846,0.003822125848,0.0001778199495,0.003999945797,0.003879555284,9.551323413e-05,0.003975068518,0.003426822264,0.000698515752,0.004125338016,0.002110577216,0.0007624548982,0.002873032114,0.002821490688,0.0001893227191,0.003010813407,0.001848662231,0.0003136962113,0.002162358442,0.003978729712,2.525704516e-05,0.004003986757,0.00268013263,-0.000807948505,0.001872184125,0.006391075883,0.000512629744,0.006903705627,0.001462725125,3.792086332e-05,0.001500645988,-0.002550548336,-0.0007425902243,-0.00329313856,0.003531661554,-1.4461697e-05,0.003517199857,0.003253010342,0.0001793234172,0.003432333759,0.00200852248,0.0002745318911,0.002283054371,0.005852842423,0.0003058188933,0.006158661316,0.003443384239,0.0002274260412,0.00367081028,0.002223370056,-0.0002967943302,0.001926575726,0.004876466045,0.0003745181514,0.005250984196,0.005004868886,0.0009799168359,0.005984785722,0.003464795656,-5.930128025e-05,0.003405494376,0.005199798709,-0.0006126949045,0.004587103804,0.003749929041,0.001918985634,0.005668914675,0.004529051988,-0.0005455303322,0.003983521656
1.8,0.00267442974,-0.0006551901996,0.002019239541,0.004700279422,0.001205655779,0.005905935201,0.001374530133,-0.0005349062977,0.0008396238358,0.0009355012149,-6.129897829e-05,0.0008742022366,0.00218719465,-0.0005168243075,0.001670370343,0.003233665821,-1.216849147e-05,0.003221497329,0.00360052365,-0.00054003919,0.00306048446,0.003108688523,-0.0006145934532,0.00249409507,0.003749580143,-0.0006886440032,0.00306093614,0.003884202867,-0.000499747925,0.003384454942,0.003082060982,-0.000352550204,0.002729510778,0.001151011542,0.003015486633,0.004166498175,0.004702419913,0.001542830296,0.006245250209,0.003908837263,0.0001720387908,0.004080876054,0.003960388982,7.811616055e-05,0.004038505143,0.003478065451,0.0006947248034,0.004172790254,0.002132631456,0.0007487299041,0.002881361361,0.002758546276,0.0001984221429,0.002956968419,0.00180138113,0.0003284752439,0.002129856374,0.004020998491,-1.513021705e-06,0.00401948547,0.002622648848,-0.0008598521128,0.001762796735,0.006495534566,0.0005454347541,0.00704096932,0.001522666396,3.496528276e-05,0.001557631678,-0.002668470294,-0.0007779970273,-0.003446467321,0.003614079706,-1.928836754e-05,0.003594791339,0.003363505232,0.0001773622595,0.003540867492,0.00197650928,0.0003092866153,0.002285795895,0.005950503972,0.0003317919803,0.006282295952,0.003477833019,0.0002128315459,0.003690664565,0.002220110895,-0.0003059093604,0.001914201535,0.00490984939,0.0003583129961,0.005268162386,0.005104828367,0.0009268136231,0.00603164199,0.003434440321,2.083871303e-06,0.003436524193,0.005168268338,-0.0005879449089,0.004580323429,0.003785075651,0.001906162756,0.005691238407,0.004468820739,-0.0005495837629,0.003919236976
1.9,0.002621789439,-0.0007371093338,0.001884680106,0.004807686539,0.001234967535,0.006042654074,0.001241707081,-0.0006125329445,0.0006291741365,0.0008996618923,-8.562156592e-05,0.0008140403264,0.002212702308,-0.0005551830101,0.001657519298,0.003248217776,-1.977606733e-05,0.003228441709,0.003634877306,-0.0005587967055,0.0030760806,0.003103665527,-0.0006275350811,0.002476130446,0.003797919048,-0.0007093671914,0.003088551857,0.003916370782,-0.0005228718997,0.003393498882,0.003108437305,-0.0003810250464,0.002727412259,0.001335886597,0.002957192508,0.004293079105,0.004744948093,0.001561766643,0.006306714736,0.003989497991,0.0001660516357,0.004155549626,0.004029296958,6.228728329e-05,0.004091584242,0.003518134378,0.000689288397,0.004207422775,0.002145777626,0.0007350841938,0.00288086182,0.002684711576,0.0002066605989,0.002891372175,0.001745485936,0.0003423023888,0.002087788325,0.004051057698,-2.985946925e-05,0.004021198229,0.002550304676,-0.0009113479059,0.00163895677,0.00658698633,0.0005758008932,0.007162787223,0.001579536539,3.210632874e-05,0.001611642867,-0.002785212858,-0.0008121820197,-0.003597394878,0.003688720255,-2.285620016e-05,0.003665864055,0.003470154822,0.0001758980395,0.003646052862,0.001935546908,0.0003449965725,0.002280543481,0.00603402632,0.000358432232,0.006392458552,0.003501425112,0.0001980506036,0.003699475716,0.002207257932,-0.0003121118375,0.001895146095,0.004927039589,0.0003414135047,0.005268453093,0.005193853201,0.0008693700766,0.006063223277,0.0033911605,6.709502108e-05,0.003458255522,0.005106944173,-0.0005484511454,0.004558493027,0.003810238907,0.001888959728,0.005699198634,0.004393709682,-0.0005541762497,0.003839533432
2.0,0.002544049574,-0.000828151673,0.001715897901,0.004904548214,0.001262452957,0.00616700117,0.001087765729,-0.0006965232931,0.0003912424358,0.0008543167793,-0.000111815571,0.0007425012082,0.002229469781,-0.0005936010637,0.001635868717,0.003251287229,-2.582095487e-05,0.003225466274,0.003656977362,-0.0005774507303,0.003079526631,0.003085464711,-0.0006391239249,0.002446340786,0.003828972217,-0.0007309816413,0.003097990576,0.003935180862,-0.0005459782293,0.003389202633,0.003125609392,-0.000409109983,0.002716499409,0.001515166106,0.002900080582,0.004415246688,0.004779393834,0.001575462389,0.006354856223,0.004063485478,0.0001599182635,0.004223403742,0.004085905133,4.820020794e-05,0.004134105341,0.003547015343,0.0006821198725,0.004229135216,0.002149738416,0.0007217718647,0.002871510281,0.00260073632,0.0002138675402,0.00281460386,0.001681415709,0.0003550773312,0.00203649304,0.004068572292,-5.958698651e-05,0.004008985306,0.002463451344,-0.0009623660073,0.001501085336,0.006665230319,0.0006035161865,0.007268746506,0.001633262582,2.938897489e-05,0.001662651557,-0.002899756028,-0.000844851075,-0.003744607103,0.003755342276,-2.514520247e-05,0.003730197074,0.003572708057,0.0001749353675,0.003747643425,0.001886122979,0.0003813241888,0.002267447168,0.006103633385,0.0003854437373,0.006489077122,0.003514097793,0.000183194762,0.003697292555,0.002184647102,-0.0003151694689,0.001869477633,0.004927960306,0.0003239747453,0.005251935051,0.005271145821,0.0008084236282,0.006079569449,0.003335503524,0.0001350978599,0.003470601383,0.005016791551,-0.0004952691534,0.004521522398,0.003825589437,0.001867498635,0.005693088072,0.004304242404,-0.0005591407579,0.003745101646
2.1,0.002441943834,-0.0009281265202,0.001513817314,0.004990947805,0.001288148112,0.006279095917,0.0009127772169,-0.0007868748423,0.0001259023746,0.0007998034035,-0.0001398469806,0.0006599564229,0.00223752892,-0.0006319627303,0.00160556619,0.003243017696,-3.030970505e-05,0.003212707991,0.003666693164,-0.0005960050018,0.003070688162,0.003054154395,-0.0006493060996,0.002404848295,0.003842025516,-0.0007535753821,0.003088450134,0.003940507155,-0.0005690497761,0.003371457379,0.003133669542,-0.0004367263835,0.002696943158,0.001686823104,0.002844749329,0.004531572433,0.004805127074,0.001584254037,0.006389381111,0.004130138123,0.0001536895105,0.004283827633,0.004129908437,3.601936481e-05,0.004165927802,0.003564753257,0.0006731386184,0.004237891875,0.002144227635,0.0007090305585,0.002853258194,0.002507454447,0.0002198718289,0.002727326276,0.00160967948,0.0003667178644,0.001976397344,0.004073263548,-9.04762513e-05,0.003982787296,0.002362544606,-0.001012848333,0.001349696273,0.006730131532,0.0006284150444,0.007358546577,0.001683763896,2.684521077e-05,0.001710609106,-0.003011071008,-0.000875715749,-0.003886786757,0.00381373721,-2.617215561e-05,0.003787565055,0.003670897466,0.0001744660628,0.003845363529,0.001828799228,0.0004179148374,0.002246714066,0.006159638735,0.0004124824909,0.006572121226,0.003515859677,0.0001683608036,0.00368422048,0.002152200563,-0.0003148999775,0.001837300586,0.004912652097,0.0003061253767,0.005218777474,0.005335896369,0.0007449443405,0.00608084071,0.003268074989,0.0002054112116,0.003473486201,0.004899067903,-0.0004295919487,0.004469475954,0.003831273905,0.001841970452,0.005673244357,0.004200965048,-0.0005642368548,0.003636728193
2.2,0.002316508118,-0.001036729831,0.001279778287,0.005067043553,0.001312107803,0.006379151356,0.0007170214022,-0.0008835180951,-0.0001664966929,0.0007365749377,-0.0001696532735,0.0005669216642,0.002236941334,-0.0006701579253,0.001566783409,0.003223643511,-3.327075963e-05,0.003190372751,0.00366395526,-0.000614467393,0.003049487867,0.003009905784,-0.0006580457099,0.002351860074,0.003836488788,-0.0007772262418,0.003059262546,0.003932322092,-0.0005920646754,0.003340257416,0.003132771486,-0.0004637970189,0.002668974467,0.001849043726,0.002791496668,0.004640540394,0.004821472392,0.001588530509,0.006410002901,0.004188770916,0.0001473979011,0.004336168817,0.004161071515,2.589676467e-05,0.00418696828,0.003571447331,0.0006622767187,0.00423372405,0.002128962033,0.0006970761322,0.002826038165,0.002405772608,0.0002245053759,0.002630277983,0.001530859152,0.0003771566008,0.001908015753,0.004064915192,-0.000122288278,0.003942626914,0.002248140368,-0.001062745291,0.001185395076,0.006781619989,0.0006503785078,0.007431998497,0.001730949574,2.449243533e-05,0.001755442009,-0.003118132711,-0.0009044977797,-0.00402263049,0.003863729667,-2.599138157e-05,0.003837738286,0.003764436623,0.0001744680915,0.003938904715,0.001764200322,0.0004544033168,0.002218603639,0.006202430926,0.0004391639394,0.006641594866,0.003506789838,0.0001536326378,0.003660422476,0.002109938009,-0.0003111776982,0.001798760311,0.00488127278,0.0002879655304,0.005169238311,0.005387273164,0.0006800266942,0.006067299858,0.003189528446,0.0002773233781,0.003466851824,0.00475529941,-0.00035273204,0.00440256737,0.00382741691,0.001812629643,0.005640046553,0.004084452198,-0.0005691635431,0.003515288655
2.3,0.002169082028,-0.001153536728,0.0010155453,0.005133060177,0.001334402705,0.006467462881,0.000501005028,-0.000986308797,-0.000485303769,0.0006652004257,-0.0002011418064,0.0004640586193,0.002227797374,-0.0007080831319,0.001519714242,0.003193484019,-3.475225295e-05,0.003158731766,0.003648756381,-0.0006328478949,0.003015908486,0.002952993723,-0.0006653264051,0.002287667318,0.003811908271,-0.0008019991245,0.003009909146,0.003910698994,-0.0006149944976,0.003295704497,0.003123129368,-0.0004902460523,0.002632883315,0.002000234333,0.002740350396,0.004740584729,0.004827736136,0.001588700256,0.006416436391,0.004238694128,0.0001410476455,0.004379741773,0.004179234684,1.796676288e-05,0.004197201446,0.003567246105,0.0006494855156,0.004216731621,0.00210367454,0.0006860949107,0.002789769451,0.002296657422,0.0002276064231,0.002524263845,0.001445611306,0.0003863368705,0.001831948177,0.004043380418,-0.0001547671565,0.003888613261,0.002120890193,-0.001112011785,0.001008878409,0.006819689759,0.0006693333526,0.007489023111,0.001774718979,2.233266681e-05,0.001797051646,-0.003219932515,-0.0009309336971,-0.004150866212,0.003905177077,-2.469351346e-05,0.003880483564,0.003853018782,0.000174904263,0.004027923045,0.001693002624,0.0004904201304,0.002183422754,0.006232456243,0.0004650764422,0.006697532686,0.003487035357,0.0001390840287,0.003626119386,0.00205798545,-0.0003039394774,0.001754045973,0.004834098258,0.000269564344,0.005103662602,0.005424427309,0.0006148635633,0.006039290872,0.00310055416,0.0003501128311,0.003450666991,0.004587245136,-0.0002661014538,0.004321143682,0.003814131828,0.001779780167,0.005593911994,0.00395531926,-0.0005735772627,0.003381741998
2.4,0.002001305423,-0.001277995145,0.000723310278,0.005189278855,0.00135511546,0.006544394315,0.0002654785046,-0.001095020446,-0.0008295419417,0.0005863636929,-0.0002341887659,0.000352174927,0.002210216891,-0.0007456420219,0.001464574869,0.003152936264,-3.481888148e-05,0.003118117383,0.003621152558,-0.0006511561898,0.002969996368,0.002883796144,-0.0006711516453,0.002212644498,0.00376797802,-0.0008279434678,0.002940034552,0.003875813691,-0.0006378023161,0.003238011375,0.003105016236,-0.0005159991326,0.002589017104,0.002139014468,0.002691121573,0.00483013604,0.004823241044,0.001585158251,0.006408399295,0.004279232878,0.0001346048302,0.004413837709,0.004184324843,1.233777247e-05,0.004196662615,0.003552342363,0.0006347411443,0.004187083507,0.002068127598,0.0006762349592,0.002744362557,0.002181121346,0.0002290225725,0.002410143919,0.001354665609,0.0003942079584,0.001748873567,0.004008588187,-0.000187641481,0.003820946706,0.001981536442,-0.00116060302,0.000820933422,0.006844398931,0.0006852486211,0.007529647552,0.001814963966,2.035239882e-05,0.001835316365,-0.003315491611,-0.0009547791706,-0.004270270782,0.003937967407,-2.24024147e-05,0.003915564992,0.003936315411,0.000175721012,0.004112036423,0.001615921803,0.0005255987317,0.002141520534,0.00625019955,0.0004897984441,0.006739997994,0.003456806905,0.0001247813753,0.00358158828,0.001996578783,-0.0002931882559,0.001703390528,0.004771523023,0.0002509566957,0.005022479718,0.005446514943,0.0005506978373,0.00599721278,0.003001868319,0.0004230692473,0.003424937566,0.004396847419,-0.0001711805023,0.004225666916,0.003791536086,0.001743757096,0.005535293181,0.003814235987,-0.0005771111292,0.003237124858
2.5,0.001815108562,-0.001409421108,0.0004056874535,0.005236025703,0.001374336076,0.006610361779,1.144875541e-05,-0.001209337623,-0.001197888868,0.0005008593269,-0.0002686385733,0.0002322207535,0.002184350177,-0.0007827457844,0.001401604392,0.00310246681,-3.354939846e-05,0.003068917412,0.003581263425,-0.0006693991378,0.002911864287,0.002802791148,-0.0006755438508,0.002127247297,0.00370454918,-0.0008550908712,0.002849458309,0.003827944221,-0.0006604408397,0.003167503382,0.003078760961,-0.0005409837425,0.002537777218,0.002264198312,0.002643469999,0.00490766831,0.004807364496,0.001578258766,0.006385623262,0.004309746586,0.0001279890186,0.004437735605,0.004176368712,9.081444431e-06,0.004185450156,0.003526968038,0.0006180480707,0.004145016109,0.002022125358,0.0006675988473,0.002689724205,0.002060206919,0.0002286144463,0.002288821365,0.001258818149,0.0004007202164,0.001659538365,0.00396054784,-0.0002206260714,0.003739921768,0.001830906684,-0.001208470908,0.0006224357763,0.006855870414,0.000698129447,0.007553999861,0.001851571322,1.852295314e-05,0.001870094275,-0.003403874781,-0.00097581274,-0.004379687521,0.003962014717,-1.927085888e-05,0.003942743859,0.004013973375,0.0001768477183,0.004190821094,0.001533698885,0.0005595836012,0.002093282486,0.006256164047,0.0005129154789,0.006769079525,0.003416373507,0.0001107852803,0.003527158788,0.001926061084,-0.0002789936538,0.001647067431,0.004694058289,0.0002321401282,0.004926198418,0.005452734885,0.0004887556997,0.005941490584,0.002894202388,0.0004955127251,0.003389715113,0.004186176915,-6.948051342e-05,0.004116696401,0.003759766189,0.001704907325,0.005464673515,0.003661936572,-0.0005793920115,0.00308254456
2.6,0.001612694714,-0.001546996332,6.569838185e-05,0.005273658647,0.001392157052,0.0066658157,-0.0002598130901,-0.001328850667,-0.001588663757,0.0004095849051,-0.0003043037925,0.0001052811126,0.002150378153,-0.0008193131817,0.001331064971,0.003042601965,-3.103428674e-05,0.003011567678,0.003529271239,-0.0006875784727,0.002841692766,0.002710551455,-0.0006785424611,0.002032008994,0.003621636556,-0.0008834529078,0.002738183648,0.003767468162,-0.0006828507337,0.003084617428,0.003044743387,-0.0005651297744,0.002479613613,0.002374777224,0.00259696437,0.004971741593,0.004779573013,0.001568300289,0.006347873303,0.004329647908,0.0001210680293,0.004450715938,0.004155503714,8.222703444e-06,0.004163726417,0.003491388754,0.000599440177,0.004090828931,0.001965522474,0.0006602411443,0.002625763618,0.001934969747,0.0002262604879,0.002161230235,0.001158920422,0.0004058202969,0.001564740719,0.003899351917,-0.0002534252253,0.003645926691,0.001669907414,-0.001255561707,0.0004143457068,0.006854291956,0.0007080098939,0.007562301849,0.001884424743,1.680117327e-05,0.001901225916,-0.003484203826,-0.000993838766,-0.004478042592,0.003977253368,-1.547579575e-05,0.003961777572,0.004085610745,0.0001781966388,0.004263807384,0.001447086087,0.0005920376702,0.002039123757,0.006250852329,0.0005340328459,0.006784885175,0.003366058017,9.715033041e-05,0.003463208347,0.001846874402,-0.0002614895582,0.001585384844,0.004602326122,0.0002130737243,0.004815399847,0.00544237281,0.0004301745452,0.005872547355,0.002778291978,0.0005668107274,0.003345102705,0.003957383015,3.748804751e-05,0.003994871063,0.003718988896,0.001663571723,0.005382560619,0.003499225608,-0.0005800545081,0.002919171099
2.7,0.001396514429,-0.001689768951,-0.0002932545219,0.00530255286,0.001408668527,0.006711221387,-0.0005467692223,-0.001453052181,-0.001999821404,0.000313529779,-0.0003409657468,-2.743596783e-05,0.002108512041,-0.0008552703516,0.001253241689,0.002973916046,-2.73726086e-05,0.002946543437,0.00346541885,-0.0007056888775,0.002759729972,0.002607736706,-0.0006802008367,0.001927535869,0.003519422543,-0.0009130192007,0.002606403342,0.003694857853,-0.0007049592558,0.002989898597,0.003003388429,-0.0005883701839,0.002415018245,0.002469914037,0.002551125819,0.005021039856,0.004739445945,0.001555525427,0.006294971372,0.004338420943,0.0001136575447,0.004452078487,0.004121983188,9.733903626e-06,0.004131717091,0.003445897615,0.0005789798767,0.004024877492,0.00189822748,0.000654172627,0.002552400107,0.00180646132,0.0002218623873,0.002028323707,0.00105586621,0.0004094465507,0.001465312761,0.003825177289,-0.0002857369476,0.003539440342,0.001499517317,-0.001301814862,0.0001977024543,0.006839914201,0.0007149464064,0.007554860607,0.001913406388,1.513027265e-05,0.00192853666,-0.003555669563,-0.001008689631,-0.004564359194,0.003983632224,-1.121375191e-05,0.003972418472,0.004150812563,0.0001796632259,0.004330475789,0.001356834748,0.0006226477289,0.001979482477,0.006234751752,0.0005527825167,0.006787534268,0.003306233961,8.392343059e-05,0.003390157391,0.001759548296,-0.0002408690242,0.001518679272,0.004497049283,0.0001936800693,0.004690729352,0.005414839411,0.0003759432678,0.005790782678,0.002654866512,0.0006363909471,0.003291257459,0.003712652734,0.0001482386297,0.003860891364,0.003669406265,0.001620070452,0.005289476717,0.003326980524,-0.000578752736,0.002748227788
2.8,0.0011692309,-0.001836658225,-0.000667427325,0.005323085647,0.001423953469,0.006747039116,-0.0008476177222,-0.001581335782,-0.002428953505,0.00021376139,-0.0003783760763,-0.0001646146863,0.00205899338,-0.0008905503934,0.001168442987,0.002897018963,-2.266831173e-05,0.002874350651,0.003390007246,-0.0007237164847,0.002666290762,0.00249508449,-0.0006805820673,0.001814502423,0.003398258703,-0.0009437559511,0.002454502752,0.003610674189,-0.0007266793759,0.002883994813,0.002955160107,-0.0006106416516,0.002344518456,0.002548946407,0.00250545837,0.005054404777,0.004686687703,0.001540132731,0.006226820434,0.004335638924,0.0001055260271,0.004441164952,0.004076175917,1.353309335e-05,0.00408970901,0.003390808808,0.0005567562535,0.003947565062,0.001820201152,0.0006493700789,0.002469571231,0.001675712438,0.0002153506109,0.001891063049,0.0009505777179,0.0004115254916,0.00136210321,0.003738284726,-0.0003172568545,0.003421027872,0.001320780328,-0.001347162272,-2.638194419e-05,0.00681304735,0.0007190119809,0.007532059331,0.001938398267,1.344070298e-05,0.00195183897,-0.003617541736,-0.001020227271,-0.004637769008,0.003981110231,-6.696653176e-06,0.003974413578,0.004209128536,0.0001811266842,0.00439025522,0.001263686529,0.0006511275453,0.001914814075,0.006208326201,0.0005688258872,0.006777152088,0.003237323585,7.114125954e-05,0.003308464844,0.001664687747,-0.0002173772969,0.00144731045,0.004379037931,0.0001738503374,0.004552888269,0.005369692384,0.0003268686801,0.005696561064,0.00252464204,0.0007037471094,0.003228389149,0.003454173947,0.0002613277447,0.003715501692,0.003611255626,0.001574691247,0.005185946873,0.003146149,-0.0005751705749,0.002570978425
2.9,0.0009336762605,-0.00198646386,-0.0010527876,0.005335622168,0.001438082957,0.006773705125,-0.001160300717,-0.001712997566,-0.002873298283,0.0001114099995,-0.000416259382,-0.0003048493825,0.002002095002,-0.000925092795,0.001077002207,0.002812545392,-1.702732791e-05,0.002795518064,0.003303393161,-0.0007416378427,0.002561755319,0.00237340088,-0.0006797541223,0.001693646758,0.003258664999,-0.0009756051249,0.002283059874,0.003515559432,-0.0007479095855,0.002767649847,0.002900556092,-0.0006318853117,0.002268670781,0.002611389727,0.002459477454,0.005070867181,0.00462113295,0.001522294386,0.006143427336,0.004320981403,9.640420532e-05,0.004417385609,0.004018561927,1.948428964e-05,0.004038046216,0.003326452658,0.0005328828206,0.003859335478,0.001731453751,0.0006457873996,0.00237724115,0.001543717438,0.0002066898529,0.001750407291,0.0008439906766,0.0004119708567,0.001255961533,0.003639017256,-0.0003476815222,0.003291335733,0.001134798444,-0.001391527364,-0.0002567289198,0.006774057555,0.0007202906015,0.007494348157,0.001959283511,1.165105296e-05,0.001970934564,-0.003669177207,-0.001028344105,-0.004697521313,0.003969654219,-2.148334963e-06,0.003967505884,0.004260074289,0.0001824508252,0.004442525114,0.001168367258,0.0006772190139,0.001845586272,0.006172014304,0.0005818547438,0.006753869048,0.003159796336,5.882729058e-05,0.003218623626,0.001562961718,-0.0001913039638,0.001371657754,0.004249174405,0.0001534522667,0.004402626672,0.005306639944,0.0002835717318,0.005590211676,0.002388317703,0.000768437108,0.003156754811,0.003184101405,0.0003753732184,0.003559474623,0.003544808776,0.001527678578,0.005072487354,0.002957739743,-0.0005690307348,0.002388709008
3.0,0.0006927994081,-0.002137880464,-0.001445081056,0.005340503175,0.001451111778,0.006791614953,-0.001482519728,-0.001847240831,-0.003329760558,7.65191587e-06,-0.0004543170503,-0.0004466651344,0.001938122604,-0.000958842776,0.0009792798276,0.002721147094,-1.055660234e-05,0.002710590492,0.003205986717,-0.0007594194756,0.002446567241,0.002243550853,-0.0006777853904,0.001565765463,0.003101326183,-0.001008484329,0.002092841854,0.003410228837,-0.0007685345756,0.002641694261,0.002840102292,-0.0006520476035,0.002188054688,0.002656937227,0.00241273999,0.005069677217,0.004542748443,0.001502173337,0.006044921781,0.004294249353,8.599824087e-05,0.004380247594,0.003949726151,2.739868969e-05,0.003977124841,0.003253173038,0.0005074948073,0.003760667845,0.001632045602,0.0006433637983,0.0022754094,0.001411419593,0.0001958836927,0.001607303286,0.0007370376582,0.000410685979,0.001147723637,0.00352779791,-0.0003767122447,0.003151085665,0.000942723749,-0.001434824054,-0.0004921003051,0.006723362962,0.0007188720821,0.007442235044,0.001975947209,9.669122428e-06,0.001985616331,-0.003710027748,-0.001032963484,-0.004742991231,0.00394923901,2.198223764e-06,0.003951437234,0.00430313665,0.0001834853606,0.004486622011,0.001071581887,0.0007006918509,0.001772273738,0.006126231532,0.0005915923933,0.006717823925,0.003074166773,4.698880965e-05,0.003121155583,0.00145509161,-0.0001629747079,0.001292116902,0.00410839586,0.0001323412173,0.004240737077,0.005225530715,0.0002465088721,0.005472039587,0.002246575335,0.0008300754451,0.00307665078,0.002904529843,0.0004890689568,0.0033935988,0.003470373214,0.001479222626,0.00494959584,0.00276280704,-0.0005601025843,0.002202704456
3.1,0.0004496067625,-0.002289517474,-0.001839910711,0.005338035137,0.001463074682,0.006801109819,-0.001811760043,-0.001983184596,-0.003794944638,-9.630970113e-05,-0.0004922323093,-0.0005885420105,0.001867415845,-0.0009917505815,0.0008756652639,0.002623488195,-3.365049822e-06,0.002620123145,0.003098248526,-0.0007770180956,0.002321230431,0.002106448454,-0.0006747417675,0.001431706687,0.002927084612,-0.00104228719,0.001884797422,0.003295460321,-0.0007884268986,0.002507033423,0.002774346445,-0.0006710811859,0.002103265259,0.00268546051,0.002364870759,0.005050331268,0.004451633162,0.00147993348,0.005931566642,0.004255375911,7.400598285e-05,0.004329381894,0.003870350071,3.703746806e-05,0.003907387539,0.003171326122,0.0004807457952,0.003652071917,0.001522091176,0.0006420289656,0.002164120141,0.001279698354,0.0001829773945,0.001462675749,0.0006306293146,0.000407569101,0.001038198416,0.003405127278,-0.0004040602365,0.003001067042,0.0007457490442,-0.001476956307,-0.0007312072628,0.006661428568,0.0007148475084,0.007376276077,0.001988276649,7.393339006e-06,0.001995669988,-0.003739648842,-0.001034039943,-0.004773688785,0.003919849375,6.103469708e-06,0.003925952845,0.004337782116,0.0001840678356,0.004521849952,0.0009740088693,0.0007213429083,0.001695351778,0.006071372785,0.0005977964634,0.006669169249,0.002980991031,3.561455097e-05,0.003016605582,0.001341838044,-0.0001327425179,0.001209095526,0.003957674213,0.0001103741412,0.004068048354,0.005126336553,0.0002160099713,0.005342346524,0.002100083,0.0008883215811,0.002988404581,0.00261747694,0.0006011936711,0.003218670611,0.003388294094,0.001429449067,0.004817743161,0.002562430434,-0.0005482072159,0.002014223218
3.2,0.0002070981609,-0.002439924487,-0.002232826326,0.005328482343,0.001473983499,0.006802465842,-0.002145324785,-0.002119876248,-0.004265201033,-0.0001992675447,-0.0005296764304,-0.000728943975,0.001790348192,-0.001023770684,0.0007665775075,0.002520241721,4.434580098e-06,0.002524676302,0.002980685618,-0.0007943812701,0.002186304348,0.001963046023,-0.0006706854969,0.001292360526,0.002736929039,-0.001076884027,0.001660045013,0.003172081603,-0.0008074496004,0.002364632003,0.002703850015,-0.0006889458037,0.002014904211,0.00269700966,0.002315583065,0.005012592726,0.004348018262,0.001455739,0.005803757261,0.004204431509,6.013528629e-05,0.004264566795,0.003781201047,4.811689695e-05,0.003829317944,0.003081278712,0.0004528040519,0.003534082764,0.001401763202,0.0006417081699,0.002043471372,0.001149358878,0.0001680585778,0.001317417455,0.0005256343279,0.0004025208978,0.0009281552258,0.003271580738,-0.0004294534363,0.002842127302,0.0005450970505,-0.001517819217,-0.0009727221665,0.006588759757,0.0007083049927,0.007297064749,0.001996161238,4.714607831e-06,0.002000875846,-0.003757710146,-0.001031559585,-0.004789269731,0.003881483465,9.324508808e-06,0.003890807974,0.004363467212,0.0001840264872,0.0045474937,0.0008762926777,0.0007389965009,0.001615289179,0.006007813028,0.0006002639662,0.006608076994,0.002880861365,2.467371471e-05,0.002905535079,0.001223985784,-0.0001009782827,0.001123007501,0.003797995056,8.742434527e-05,0.003885419402,0.005009135904,0.0001923194879,0.005201455391,0.001949502059,0.0009428660514,0.002892368111,0.002324873141,0.0007106150603,0.003035488202,0.003298953099,0.001378412568,0.004677365667,0.002357691837,-0.0005332184159,0.001824473421
3.3,-3.179893488e-05,-0.002587621317,-0.002619420252,0.005312060628,0.001483825164,0.006795885792,-0.002480377843,-0.002256308402,-0.004736686245,-0.0003000360838,-0.0005663157947,-0.0008663518785,0.001707325612,-0.001054860812,0.0006524648002,0.002412085702,1.272415601e-05,0.002424809858,0.002853846158,-0.0008114481715,0.002042397987,0.001814321944,-0.0006656749728,0.001148646971,0.002531979646,-0.00111212281,0.001419856836,0.003040955088,-0.0008254596802,0.002215495408,0.002629178589,-0.0007056090502,0.001923569539,0.002691811464,0.002264696084,0.004956507547,0.00423226798,0.00142974459,0.005662012569,0.004141623448,4.412248668e-05,0.004185745934,0.003683120272,6.031548753e-05,0.003743435759,0.002983405733,0.0004238492664,0.003407254999,0.001271294262,0.0006423290426,0.001913623304,0.001021124395,0.0001512562055,0.0011723806,0.0004228597817,0.0003954533473,0.000818313129,0.003127804736,-0.0004526438732,0.002675160863,0.0003420084871,-0.001557301847,-0.001215293359,0.006505894683,0.0006993261047,0.007205220788,0.001999492762,1.518605222e-06,0.002001011368,-0.003764007133,-0.001025540742,-0.004789547875,0.003834157579,1.161950419e-05,0.003845777084,0.004379650017,0.0001831842842,0.004562834301,0.0007790344273,0.0007535064679,0.001532540895,0.005935905274,0.0005988374769,0.006534742751,0.002774398651,1.411694119e-05,0.002788515592,0.001102328406,-6.806144037e-05,0.001034266966,0.003630338995,6.339373947e-05,0.003693732734,0.004874108023,0.0001756232091,0.005049731232,0.001795493663,0.0009934187426,0.002788912406,0.00202855497,0.0008162927393,0.002844847709,0.003202760054,0.001326098923,0.004528858977,0.00214965311,-0.0005150597468,0.001634593363
3.4,-0.0002642926784,-0.002731131264,-0.002995423943,0.005288933164,0.001492560852,0.006781494016,-0.002813993943,-0.00239143973,-0.005205433672,-0.0003974782549,-0.0006018193863,-0.0009992976411,0.001618784968,-0.001084980815,0.000533804153,0.002299697955,2.138025622e-05,0.002321078212,0.002718313874,-0.0008281501706,0.001890163704,0.001661267268,-0.0006597648596,0.001001502409,0.002313470353,-0.00114783061,0.001165639744,0.002902961905,-0.000842312138,0.002060649767,0.002550891913,-0.0007210470539,0.001829844859,0.002670270408,0.002212146087,0.004882416495,0.004104880386,0.001402082745,0.00550696313,0.004067290088,2.574922686e-05,0.004093039315,0.003577010558,7.328241285e-05,0.003650292971,0.002878087826,0.0003940701626,0.003272157989,0.001130975127,0.0006438299963,0.001774805124,0.0008956324997,0.0001327379398,0.00102837044,0.0003230334651,0.0003862992699,0.000709332735,0.002974511507,-0.0004734138261,0.002501097681,0.0001377293421,-0.001595291026,-0.001457561684,0.00641339563,0.000687984471,0.007101380101,0.001998166657,-2.31153134e-06,0.001995855126,-0.003758472463,-0.001016034754,-0.004774507217,0.003777912129,1.275307442e-05,0.003790665204,0.00438580303,0.0001813641674,0.004567167198,0.0006827819751,0.000764759325,0.0014475413,0.005855977641,0.0005934095478,0.006449387189,0.002662243315,3.879469618e-06,0.002666122785,0.0009776548442,-3.437178159e-05,0.0009432830626,0.003455667394,3.82211907e-05,0.003493888585,0.004721544404,0.000166049064,0.004887593468,0.001638720696,0.001039703891,0.002678424587,0.001730261512,0.0009172825439,0.002647544056,0.003100135463,0.00127243957,0.004372575033,0.001939335801,-0.0004936983482,0.001445637453
3.5,-0.0004877829968,-0.002869015352,-0.003356798349,0.005259209669,0.001500126662,0.006759336332,-0.003143213649,-0.002524218888,-0.005667432537,-0.0004905293452,-0.0006358661314,-0.001126395477,0.001525192939,-0.001114091537,0.0004111014024,0.002183749461,3.027711022e-05,0.002214026571,0.002574703447,-0.0008444113352,0.001730292112,0.001504872365,-0.0006530066252,0.00085186574,0.002082729797,-0.001183815718,0.0008989140792,0.002758986985,-0.0008578643197,0.001901122665,0.002469534914,-0.0007352450944,0.00173428982,0.002632973472,0.002157986554,0.004790960026,0.003966485096,0.001372854694,0.00533933979,0.003981889409,4.857032211e-06,0.003986746442,0.003463824094,8.664678616e-05,0.00355047088,0.002765710121,0.0003636628708,0.003129372992,0.0009811499505,0.000646170154,0.001627320105,0.0007734358492,0.0001127058026,0.0008861416519,0.0002267885768,0.0003750224604,0.0006018110372,0.002812472146,-0.000491579521,0.002320892625,-6.65024477e-05,-0.001631674888,-0.001698177336,0.006311840053,0.0006743475446,0.006986187597,0.001992084625,-6.892256249e-06,0.001985192368,-0.003741184952,-0.001003126448,-0.0047443114,0.003712818479,1.250247874e-05,0.003725320957,0.004381428059,0.0001783951116,0.004559823171,0.0005880213487,0.0007726768695,0.001360698218,0.005768332517,0.000583922907,0.006352255424,0.002545045996,-6.113765745e-06,0.002538932231,0.000850738477,-2.825738234e-07,0.0008504559032,0.003274912342,1.188803279e-05,0.003286800375,0.004551872764,0.0001636462436,0.004715519008,0.001479845147,0.001081462508,0.002561307655,0.001431632666,0.001012745233,0.002444377899,0.002991487788,0.001217336792,0.00420882458,0.001727704567,-0.0004691371652,0.001258567402
3.6,-0.0006999071448,-0.002999905016,-0.003699812161,0.00522295034,0.001506436248,0.006729386588,-0.003465100589,-0.002653609857,-0.006118710446,-0.0005782155209,-0.0006681514979,-0.001246367019,0.00142704566,-0.001142153915,0.0002848917459,0.002064896807,3.929206137e-05,0.002104188869,0.002423657594,-0.0008601490586,0.001563508535,0.001346114439,-0.0006454496533,0.0007006647854,0.00184116186,-0.001219870438,0.000621291422,0.00260990634,-0.0008719802191,0.001737926121,0.002385630339,-0.0007481980583,0.001637432281,0.002580685409,0.002102381347,0.004683066756,0.003817834963,0.001342129518,0.005159964481,0.003885982026,-1.864036391e-05,0.003867341662,0.003344549542,0.0001000274177,0.00344457696,0.002646662392,0.0003328293846,0.002979491777,0.0008222095321,0.0006493400108,0.001471549543,0.0006550057048,9.139121801e-05,0.0007463969228,0.0001346511883,0.0003616277495,0.0004962789378,0.002642508314,-0.0005069926839,0.002135515631,-0.0002694708913,-0.001666345395,-0.001935816286,0.006201812524,0.0006584808419,0.006860293365,0.001981158403,-1.233665101e-05,0.001968821752,-0.003712374367,-0.0009869339206,-0.004699308288,0.003638985935,1.066480412e-05,0.003649650739,0.004366073253,0.0001741183412,0.004540191595,0.0004951706676,0.0007772169742,0.001272387642,0.005673248576,0.0005703671467,0.006243615722,0.002423459325,-1.594195631e-05,0.002407517368,0.0007223274863,3.384623236e-05,0.0007561737186,0.003088970144,-1.557854827e-05,0.003073391596,0.004365682211,0.0001683576659,0.004534039877,0.001319523336,0.001118459205,0.002437982541,0.001134204312,0.001101962417,0.00223616673,0.002877193527,0.001160692345,0.004037885872,0.001515656937,-0.0004414091525,0.001074247784
3.7,-0.0008985729045,-0.003122531089,-0.004021103993,0.005180174594,0.001511385434,0.006691560028,-0.003776798143,-0.002778616555,-0.006555414699,-0.0006596669236,-0.0006983929958,-0.001358059919,0.001324868138,-0.001169128423,0.0001557397151,0.001943774772,4.831128431e-05,0.001992086056,0.002265845315,-0.0008752749541,0.001390570361,0.001185945498,-0.0006371423151,0.000548803183,0.001590225875,-0.001255774347,0.0003344515288,0.002456576335,-0.0008845343998,0.001572041936,0.002299672466,-0.0007599106262,0.00153976184,0.002514318112,0.002045601242,0.004559919353,0.00365979033,0.001309952358,0.004969742688,0.003780210175,-4.474759045e-05,0.003735462585,0.003220197411,0.0001130426078,0.003333240019,0.002521339954,0.0003017754312,0.002823115385,0.0006545848489,0.0006533700878,0.001307954937,0.0005407356258,6.905092864e-05,0.0006097865544,4.70315097e-05,0.0003461687916,0.0003932003013,0.002465482471,-0.0005195412735,0.001945941198,-0.000469996692,-0.001699199883,-0.002169196575,0.006083898074,0.0006404530617,0.006724351136,0.001965313973,-1.87516537e-05,0.00194656232,-0.003672421311,-0.0009676073451,-0.004640028656,0.003556567979,7.065025311e-06,0.003563633004,0.004339351047,0.0001683930337,0.00450774408,0.0004045768782,0.0007783724146,0.001182949293,0.005570983288,0.0005527748291,0.006123758117,0.002298131092,-2.568223089e-05,0.002272448862,0.0005931347394,6.767557023e-05,0.0006608103096,0.002898697524,-4.410469859e-05,0.002854592825,0.004163739505,0.0001799995443,0.00434373905,0.001158401392,0.00115048956,0.002308890952,0.0008393978043,0.00118435725,0.002023755055,0.002757585883,0.001102432165,0.003860018047,0.001304020214,-0.0004105758655,0.0008934443487
3.8,-0.001081979721,-0.003235747878,-0.004317727599,0.005130873247,0.001514858356,0.006645731603,-0.004075583238,-0.002898304984,-0.006973888222,-0.0007341272774,-0.0007263345509,-0.001460461828,0.001219211934,-0.001194974826,2.423710813e-05,0.001820990079,5.723336332e-05,0.001878223442,0.00210196006,-0.0008896960277,0.001212264032,0.001025279377,-0.0006281319058,0.0003971474711,0.001331416284,-0.001291297721,4.011856247e-05,0.002299823956,-0.0008954153169,0.00140440864,0.002212120917,-0.0007703971854,0.001441723732,0.00243487365,0.001988027141,0.004422900792,0.003493297422,0.00127635789,0.004769655312,0.003665275457,-7.338237483e-05,0.003591893083,0.003091782262,0.0001253200402,0.003217102302,0.002390144195,0.0002707076393,0.002660851835,0.0004787418102,0.0006583345536,0.001137076364,0.0004309438831,4.596388133e-05,0.0004769077644,-3.57805952e-05,0.000328751977,0.0002929713818,0.002282286172,-0.0005291502729,0.001753135899,-0.0006669530438,-0.001730142047,-0.002397095091,0.005958676452,0.0006203409887,0.006579017441,0.001944495542,-2.623550901e-05,0.001918260033,-0.003621852453,-0.0009453267463,-0.004567179199,0.003465767187,1.563656725e-06,0.003467330844,0.004300954792,0.0001611010738,0.004462055866,0.0003165153117,0.0007761681027,0.001092683414,0.005461774175,0.0005312184413,0.005992992616,0.0021696983,-3.540432203e-05,0.002134293978,0.0004638271447,0.0001008946794,0.0005647218241,0.002704909245,-7.357184801e-05,0.002631337397,0.003946991634,0.0001982537722,0.004145245407,0.0009971128013,0.001177385352,0.002174498153,0.0005485093058,0.001259509657,0.001808018963,0.002632951532,0.001042525178,0.00367547671,0.001093552732,-0.0003767299063,0.0007168228252
3.9,-0.001248629894,-0.003338552168,-0.004587182061,0.005075022114,0.001516734336,0.00659175645,-0.004358915511,-0.00301182197,-0.007370737482,-0.0008009622044,-0.0007517499445,-0.001552712149,0.001110650083,-0.001219652132,-0.0001090020491,0.001697117028,6.5969637e-05,0.001763086665,0.001932716862,-0.0009033161136,0.001029400748,0.0008649767792,-0.000618463068,0.0002465137112,0.001066241908,-0.001326204937,-0.0002599630287,0.002140437369,-0.0009045280057,0.001235909363,0.002123394136,-0.0007796815624,0.001343712574,0.002343378367,0.001930153624,0.004273531991,0.003319364503,0.001241382846,0.00456074735,0.00354191799,-0.0001043752643,0.003437542726,0.002960301354,0.0001365072322,0.003096808586,0.002253481989,0.0002398303709,0.00249331236,0.000295176918,0.0006643485989,0.0009595255168,0.0003258745576,2.242815749e-05,0.0003483027151,-0.0001136173273,0.0003095375731,0.0001959202458,0.002093826592,-0.0005357824861,0.001558044106,-0.0008592821782,-0.00175908275,-0.002618364928,0.005826716543,0.0005982340345,0.006424950578,0.001918669097,-3.487531306e-05,0.001883793784,-0.003561331765,-0.0009202988082,-0.004481630574,0.003366838831,-5.937566292e-06,0.003360901265,0.004250672453,0.0001521506454,0.004402823098,0.0002311917624,0.0007706572708,0.001001849033,0.005345839323,0.0005058074791,0.005851646802,0.002038782028,-4.516670374e-05,0.001993615324,0.0003350156997,0.0001332272153,0.000468242915,0.002508376302,-0.0001038212972,0.002404555005,0.003716556286,0.000222671197,0.003939227483,0.0008362776872,0.001199017707,0.002035295395,0.0002627078513,0.001327155153,0.001589863005,0.002503532182,0.0009809987195,0.003484530902,0.000884946376,-0.0003399997219,0.000544946654
4.0,-0.001397332524,-0.003430097634,-0.004827430158,0.005012595509,0.001516894828,0.006529490338,-0.004624480449,-0.003118410308,-0.007742890758,-0.0008596672361,-0.0007744456051,-0.001634112841,0.0009997693488,-0.001243118694,-0.000243349345,0.001572695045,7.444169792e-05,0.001647136742,0.001758848285,-0.0009160375243,0.0008428107611,0.0007058288699,-0.0006081755876,9.765328234e-05,0.0007962054877,-0.0013602577,-0.0005640522124,0.001979156956,-0.0009117961785,0.001067360778,0.002033863029,-0.0007877966397,0.001246066389,0.002240829951,0.001872582247,0.004113412198,0.003139038361,0.001205073668,0.004344112029,0.003410898505,-0.0001374739863,0.003273424519,0.002826711794,0.0001462821053,0.002972993899,0.002111764281,0.0002093423862,0.002321106668,0.0001044146264,0.0006715592809,0.0007759739073,0.000225697408,-1.242496519e-06,0.0002244549115,-0.0001864343949,0.0002887402724,0.0001023058775,0.001901012327,-0.0005394388571,0.00136157347,-0.001046011856,-0.00178594064,-0.002831952497,0.005688570784,0.0005742386824,0.006262809466,0.001887825767,-4.474458394e-05,0.001843081183,-0.003491648298,-0.000892752952,-0.00438440125,0.003260093028,-1.549229786e-05,0.00324460073,0.004188397184,0.0001414785919,0.004329875776,0.0001487462352,0.0007619172994,0.0009106635346,0.005223377551,0.0004766853856,0.005700062936,0.001905983634,-5.501445285e-05,0.001850969181,0.0002072468374,0.0001644363725,0.0003716832098,0.002309824874,-0.0001346614372,0.002175163436,0.003473705709,0.0002526815379,0.003726387247,0.0006765004683,0.001215301048,0.001891801516,-1.69545871e-05,0.001387165151,0.001370210563,0.002369529416,0.0009179524196,0.003287481836,0.00067882919,-0.0003005555218,0.0003782736682
4.1,-0.001527201801,-0.003509705215,-0.005036907016,0.004943578736,0.001515230112,0.006458808848,-0.004870224981,-0.003217420402,-0.008087645383,-0.0009098750588,-0.0007942629979,-0.001704138057,0.0008871609567,-0.001265332472,-0.0003781715149,0.001448227597,8.257777483e-05,0.001530805372,0.001581099589,-0.0009277627481,0.0006533368411,0.0005485414666,-0.0005973028757,-4.876140905e-05,0.000522784473,-0.001393218105,-0.0008704336318,0.001816667754,-0.0009171637544,0.0008995039996,0.00194384593,-0.0007947838243,0.001149062106,0.002128171123,0.001815995385,0.003944166508,0.002953381571,0.001167489324,0.004120870894,0.003272984089,-0.0001723514142,0.003100632675,0.002691910474,0.0001543618752,0.002846272349,0.001965405352,0.0001794329142,0.002144838266,-9.299070898e-05,0.0006801293315,0.0005871386225,0.0001305068063,-2.472249532e-05,0.000105784311,-0.0002543132223,0.0002666297883,1.231656598e-05,0.001704739941,-0.0005401580291,0.001164581912,-0.001226270551,-0.001810642332,-0.003036912883,0.005544770243,0.0005484827933,0.006093253037,0.001851985388,-5.590095416e-05,0.001796084434,-0.003413700778,-0.0008629370282,-0.004276637806,0.003145895183,-2.710776751e-05,0.003118787416,0.004114135472,0.0001290517001,0.004243187172,6.925729472e-05,0.0007500457773,0.000819303072,0.005094567343,0.0004440271611,0.005538594504,0.001771882623,-6.497875038e-05,0.001706903872,8.099507395e-05,0.0001943298243,0.0002753248983,0.002109936721,-0.0001658769661,0.001944059755,0.003219847938,0.0002876082337,0.003507456172,0.0005183622988,0.001226201077,0.001744563376,-0.0002895242321,0.001439516251,0.001149992019,0.002231112171,0.0008535701264,0.003084682297,0.0004757671867,-0.0002586149945,0.0002171521922
4.2,-0.001637649765,-0.003576869768,-0.005214519533,0.004867979171,0.001511645519,0.00637962469,-0.00509438417,-0.00330831849,-0.00840270266,-0.0009513607959,-0.0008110806292,-0.001762441425,0.0007734112613,-0.001286251436,-0.0005128401752,0.001324181854,9.031009867e-05,0.001414491953,0.00140022362,-0.0009383959816,0.0004618276387,0.0003937222586,-0.0005858716754,-0.0001921494168,0.0002474140141,-0.001424851528,-0.001177437514,0.001653594237,-0.000920595859,0.000732998378,0.001853606068,-0.0008006923143,0.001052913753,0.002006289227,0.001761110501,0.003767399727,0.002763451127,0.00112870092,0.003892152046,0.003128937913,-0.0002086164623,0.00292032145,0.002556719965,0.0001605090392,0.002717229004,0.001814824106,0.0001502768143,0.001965100921,-0.0002964456515,0.0006902142859,0.0003937686344,4.032099505e-05,-4.767887853e-05,-7.357883485e-06,-0.0003174620649,0.0002435303562,-7.393170869e-05,0.001505882619,-0.0005380152693,0.0009678673498,-0.001399299917,-0.001833122231,-0.003232422149,0.005395821483,0.0005211191842,0.005916940667,0.001811200638,-6.83841232e-05,0.001742816515,-0.00332847945,-0.0008311129739,-0.004159592424,0.003024665053,-4.074420269e-05,0.00298392085,0.004028013344,0.0001148673001,0.004142880644,-7.253574326e-06,0.0007351570836,0.0007279035093,0.004959563917,0.000408038255,0.005367602172,0.001637036182,-7.507789857e-05,0.001561958283,-4.334218709e-05,0.0002227638289,0.0001794216418,0.001909351264,-0.0001972384903,0.001712112774,0.002956505552,0.0003266879096,0.003283193461,0.0003624084462,0.001231746864,0.00159415531,-0.0005541235486,0.00148425891,0.0009301353612,0.00208842416,0.0007881294255,0.002876553586,0.0002762637125,-0.000214446991,6.181672157e-05
4.3,-0.00172837376,-0.003631263132,-0.005359636893,0.004785835503,0.001506066917,0.00629190242,-0.005295498729,-0.003390691507,-0.008686190236,-0.0009840444764,-0.000824815476,-0.001808859952,0.0006590933696,-0.001305834074,-0.0006467407049,0.001200988293,9.757456154e-05,0.001298562855,0.001216975569,-0.000947844416,0.0002691311534,0.000241872498,-0.000573902592,-0.0003320300941,-2.85274457e-05,-0.00145492937,-0.001483456815,0.00149049772,-0.0009220793652,0.0005684183546,0.001763351872,-0.0008055781768,0.0009577736949,0.001876029878,0.001708627719,0.003584657597,0.002570279989,0.00108878917,0.003659069159,0.002979512588,-0.0002458277659,0.002733684822,0.002421879275,0.0001645354511,0.002586414726,0.001660446806,0.0001220296019,0.001782476408,-0.0005053025026,0.0007019357049,0.0001966332023,-4.491701093e-05,-6.977696246e-05,-0.0001146939734,-0.0003762131535,0.0002198175537,-0.0001563955997,0.00130528147,-0.0005331210911,0.0007721603788,-0.001564463892,-0.001853322493,-0.003417786384,0.005242206017,0.0004923273744,0.005734533391,0.001765561639,-8.2214104e-05,0.001683347535,-0.003237046146,-0.0007975526014,-0.004034598747,0.002896875072,-5.631581745e-05,0.002840559255,0.003930280436,9.895351821e-05,0.004029233955,-8.081737433e-05,0.0007173794705,0.0006365620962,0.004818495105,0.0003689550331,0.005187450138,0.001501979441,-8.531956714e-05,0.001416659874,-0.0001654462219,0.0002496444885,8.419826659e-05,0.001708668293,-0.000228510968,0.001480157325,0.002685289305,0.0003690925858,0.003054381891,0.0002091350997,0.001232042868,0.001441177968,-0.0008099325965,0.001521493646,0.0007115610492,0.001941587736,0.0007220093185,0.002663597055,8.075501867e-05,-0.0001683704929,-8.761547427e-05
4.4,-0.001799339881,-0.003672733641,-0.005472073522,0.004697224334,0.001498444993,0.006195669326,-0.005472424705,-0.003464248719,-0.008936673424,-0.001007990905,-0.0008354237476,-0.001843414652,0.0005447596842,-0.001324039896,-0.0007792802118,0.001079038595,0.000104312998,0.001183351593,0.001032107057,-0.0009560193737,7.608768373e-05,9.33831043e-05,-0.0005614109161,-0.0004680278118,-0.0003037301732,-0.00148323152,-0.001786961693,0.001327875626,-0.0009216230077,0.0004062526183,0.001673239473,-0.0008095032745,0.0008637361982,0.00173821033,0.00165918883,0.00339739916,0.002374861714,0.001047840839,0.003422702553,0.002825445886,-0.000283509827,0.002541936059,0.002288035462,0.0001663060646,0.002454341526,0.001502708906,9.482384798e-05,0.001597532754,-0.00071884432,0.0007153554786,-3.488841377e-06,-0.0001253369703,-9.068734256e-05,-0.0002160243129,-0.0004310153546,0.0001959119119,-0.0002351034427,0.001103739132,-0.0005256202423,0.0005781188897,-0.001721254754,-0.001871193554,-0.003592448308,0.005084382442,0.0004623122795,0.005546694722,0.001715200386,-9.738974975e-05,0.001617810636,-0.003140513813,-0.0007625334351,-0.003903047248,0.002763048251,-7.369386222e-05,0.002689354389,0.003821310708,8.136923126e-05,0.003902679939,-0.0001515124484,0.0006968525394,0.000545340091,0.004671457648,0.0003270467074,0.004998504355,0.001367224378,-9.570365879e-05,0.001271520719,-0.0002850749756,0.0002749248432,-1.015013241e-05,0.001508449241,-0.0002594604857,0.001248988755,0.002407863599,0.0004139514635,0.002821815062,5.898053825e-05,0.001227275761,0.001286256299,-0.001056179058,0.001551358649,0.0004951795904,0.001790703536,0.0006556956858,0.002446399222,-0.0001103973649,-0.0001207468423,-0.0002311442072
4.5,-0.001850764247,-0.003701302162,-0.005552066409,0.00460226305,0.001488757891,0.006091020941,-0.005624337265,-0.003528820448,-0.009153157712,-0.001023407999,-0.000842901131,-0.001866309131,0.0004309346639,-0.001340829866,-0.0009098952023,0.0009586805184,0.0001104774087,0.001069157927,0.0008463586335,-0.0009628374159,-0.0001164787824,-5.146586538e-05,-0.0005484075079,-0.0005998733733,-0.000576963209,-0.00150954837,-0.002086511579,0.001166161473,-0.0009192570115,0.0002469044618,0.00158337624,-0.0008125340083,0.0007708422314,0.001593621826,0.001613359842,0.003206981668,0.002178135723,0.001005946566,0.003184082289,0.002667457625,-0.0003211706022,0.002346287022,0.002155734002,0.0001657421331,0.002321476135,0.001342054181,6.876775853e-05,0.00141082194,-0.0009362778408,0.0007304562986,-0.0002058215422,-0.0002011382179,-0.0001100941552,-0.0003112323731,-0.0004824241588,0.0001722700715,-0.0003101540872,0.0009020149728,-0.0005156918548,0.000386323118,-0.001869296722,-0.001886695435,-0.003755992157,0.004922790031,0.0004312997106,0.005354089742,0.001660293962,-0.0001138876766,0.001546406286,-0.003040026055,-0.0007263344118,-0.003766360467,0.002623755581,-9.271215576e-05,0.002531043425,0.003701597972,6.220362972e-05,0.003763801602,-0.0002194592694,0.0006737252811,0.0004542660117,0.004518516174,0.0002826169207,0.004801133095,0.001233255627,-0.0001062251757,0.001127030452,-0.0004020594864,0.0002985984146,-0.0001034610718,0.001309215332,-0.0002898595976,0.001019355734,0.002125904941,0.0004603693358,0.002586274277,-8.767866098e-05,0.001217714679,0.001130036018,-0.001292139364,0.001574027411,0.0002818880472,0.001635849078,0.0005897810892,0.002225630168,-0.000296915574,-7.196602466e-05,-0.0003688815987
4.6,-0.001883093589,-0.003717154987,-0.005600248577,0.004501108545,0.001477012016,0.005978120561,-0.005750729983,-0.003584354285,-0.009335084267,-0.00103064458,-0.000847282749,-0.001877927329,0.0003181072982,-0.001356166721,-0.001038059422,0.0008402106392,0.0001160344662,0.0009562451054,0.0006604500013,-0.0009682214434,-0.000307771442,-0.000192503286,-0.0005348996443,-0.0007274029303,-0.0008470828128,-0.001533682218,-0.002380765031,0.001005724893,-0.0009150321627,9.069272991e-05,0.00149382465,-0.0008147398009,0.0006790848492,0.001443018579,0.001571636165,0.003014654744,0.00198097128,0.0009632022619,0.002944173542,0.002506247068,-0.0003583189673,0.002147928101,0.002025410112,0.0001628217612,0.002188231873,0.001178931018,4.394534863e-05,0.001222876366,-0.001156739084,0.0007471315578,-0.000409607526,-0.0002725855012,-0.000127704849,-0.0004002903501,-0.0005310901352,0.0001493740747,-0.0003817160605,0.0007008209012,-0.0005035505954,0.0001972703058,-0.002008347317,-0.001899799711,-0.003908147028,0.004757851538,0.0003995302733,0.005157381811,0.001601065567,-0.0001316618529,0.001469403715,-0.002936736346,-0.000689231391,-0.003625967737,0.002479612183,-0.0001131747045,0.002366437479,0.003571745195,4.157522231e-05,0.003613320417,-0.000284815923,0.0006481549793,0.0003633390563,0.004359707421,0.0002360017225,0.004595709143,0.001100523243,-0.000116876662,0.0009836465813,-0.0005163003903,0.0003206908118,-0.0001956095785,0.001111442108,-0.0003194914312,0.0007919506772,0.00184105989,0.0005074402909,0.00234850018,-0.0002305287641,0.001203706564,0.0009731777996,-0.001517150597,0.001589712156,7.256155903e-05,0.001477080401,0.0005249539312,0.002002034333,-0.000478614177,-2.243002802e-05,-0.0005010442051
4.7,-0.001896986188,-0.003720634071,-0.005617620259,0.004393952398,0.001463241224,0.005857193622,-0.005851409976,-0.003630909208,-0.009482319184,-0.001030187688,-0.0008486429281,-0.001878830616,0.0002067235273,-0.001370015148,-0.001163291621,0.0007238674575,0.0001209685804,0.0008448360379,0.0004750681678,-0.0009721017967,-0.0004970336289,-0.0003296624249,-0.0005208918827,-0.0008505543076,-0.001113039213,-0.001555448107,-0.00266848732,0.0008468718685,-0.0009090183522,-6.214648368e-05,0.001404606574,-0.0008161913393,0.0005884152347,0.001287100612,0.001534458352,0.002821558964,0.001784152141,0.0009197131625,0.002703865303,0.00234249064,-0.0003944806407,0.001948009999,0.001897385216,0.0001575755186,0.002054960735,0.001013786845,2.041718674e-05,0.001034204032,-0.001379311615,0.0007651856065,-0.0006141260085,-0.0003400027257,-0.0001432616146,-0.0004832643403,-0.0005777455028,0.0001277185284,-0.0004500269744,0.0005008171807,-0.0004894475972,1.136958346e-05,-0.0021382965,-0.00191049163,-0.00404878813,0.004589973621,0.0003672536912,0.004957227312,0.001537782972,-0.0001506440767,0.001387138895,-0.002831786621,-0.0006514926403,-0.003483279261,0.002331270561,-0.0001348638194,0.002196406741,0.003432448412,1.963003853e-05,0.00345207845,-0.0003477742918,0.0006203070564,0.0002725327647,0.004195050816,0.0001875621195,0.004382612935,0.0009694342235,-0.0001276501035,0.00084178412,-0.0006277643663,0.0003412508833,-0.000286513483,0.0009155511384,-0.0003481526731,0.0005673984653,0.001554907628,0.0005542587845,0.002109166412,-0.0003693179857,0.00118566687,0.0008163488839,-0.001730630596,0.001598669565,-0.0001319610311,0.001314437383,0.0004619758793,0.001776413263,-0.0006554068772,2.746310109e-05,-0.0006279437761
4.8,-0.001893293723,-0.003712225094,-0.005605518817,0.004281013842,0.001447504958,0.0057285188,-0.005926488496,-0.003668647928,-0.009595136424,-0.001022658337,-0.0008470946475,-0.001869752984,9.717957303e-05,-0.001382341836,-0.001285162263,0.0006098271606,0.0001252826139,0.0007351097745,0.0002908548992,-0.0009744174129,-0.0006835625137,-0.0004629728074,-0.0005063871924,-0.0009693599998,-0.0013738812,-0.001574674339,-0.002948555539,0.0006898460234,-0.0009013027359,-0.0002114567126,0.001315708682,-0.0008169587329,0.0004987499493,0.001126499866,0.001502226008,0.002628725874,0.001588365818,0.0008755970529,0.002463962871,0.002176839846,-0.0004292115421,0.001747628304,0.001771871097,0.0001500766122,0.00192194771,0.0008470617748,-1.778532831e-06,0.000845283242,-0.001603052656,0.0007843425249,-0.0008187101311,-0.0004037638385,-0.000156553516,-0.0005603173545,-0.0006231883028,0.0001077952939,-0.0005153930089,0.0003026085311,-0.0004736698141,-0.000171061283,-0.002259163069,-0.001918771755,-0.004177934824,0.004419545265,0.000334724264,0.004754269529,0.001470754776,-0.0001707453356,0.001300009441,-0.002726285533,-0.0006133745455,-0.003339660079,0.002179410381,-0.0001575473282,0.002021863052,0.003284477895,-3.461079457e-06,0.003281016816,-0.0004085564715,0.0005903559549,0.0001817994833,0.004024563449,0.0001376730696,0.004162236518,0.0008403450322,-0.0001385385574,0.0007018064748,-0.0007364796668,0.0003603426242,-0.0003761370426,0.0007219006616,-0.0003756554904,0.0003462451712,0.001268926328,0.0005999338368,0.001868860165,-0.0005038528026,0.001164064901,0.000660212098,-0.001932099725,0.001601204781,-0.0003308949435,0.001147948868,0.0004016532262,0.001549602094,-0.0008273084269,7.733117785e-05,-0.0007499772491
4.9,-0.001873043844,-0.003692543749,-0.005565587593,0.004162532007,0.001429885873,0.00559241788,-0.005976366529,-0.003697827768,-0.009674194298,-0.001008803798,-0.0008427883066,-0.001851592104,-1.01826021e-05,-0.001393115405,-0.001403298007,0.0004982031651,0.0001289961337,0.0006271992988,0.0001083955825,-0.0009751170737,-0.0008667214912,-0.000592547918,-0.0004913884655,-0.001083936384,-0.001628758117,-0.001591202924,-0.003219961041,0.0005348317108,-0.0008919876306,-0.0003571559198,0.001227089574,-0.0008171097599,0.0004099798145,0.0009617746813,0.001475303676,0.002437078357,0.001394200229,0.0008309838155,0.002225184044,0.002009918814,-0.0004621078621,0.001547810952,0.001648981531,0.0001404270489,0.00178940858,0.000679182441,-2.262423626e-05,0.0006565582047,-0.001827019288,0.0008042591433,-0.001022760144,-0.0004642811897,-0.0001674272205,-0.0006317084102,-0.0006682639154,9.007587489e-05,-0.0005781880406,0.0001067407601,-0.0004565366186,-0.0003497958585,-0.002371087508,-0.00192465693,-0.004295744438,0.004246935812,0.0003021969266,0.004549132738,0.00140032519,-0.0001918578639,0.001208467326,-0.0026212875,-0.0005751177317,-0.003196405232,0.002024726489,-0.0001809847354,0.001843741754,0.003128659601,-2.750604825e-05,0.003101153553,-0.0004674110285,0.0005584873055,9.107627702e-05,0.003848275117,8.67133159e-05,0.003934988432,0.0007135561798,-0.0001495376577,0.0005640185221,-0.000842530418,0.0003780384022,-0.0004644920159,0.0005307768307,-0.0004018280317,0.000128948799,0.0009844616983,0.0006436118422,0.00162807354,-0.0006339926229,0.001139405104,0.0005054124814,-0.00212119508,0.001597668412,-0.0005235266673,0.000977634099,0.0003448097058,0.001322443805,-0.0009944317273,0.0001268144915,-0.0008676172359
5.0,-0.00183742295,-0.00366232053,-0.005499743479,0.004038758641,0.00141048728,0.005449245921,-0.006001715876,-0.003718790456,-0.009720506332,-0.0009894852209,-0.0008359094186,-0.00182539464,-0.0001150771172,-0.001402306306,-0.001517383423,0.0003890491246,0.0001321417495,0.0005211908741,-7.178894728e-05,-0.0009741606331,-0.00104594958,-0.0007185695334,-0.0004759002988,-0.001194469832,-0.00187691935,-0.001604890029,-0.003481809379,0.0003819589659,-0.000881188133,-0.0004992291671,0.001138688307,-0.0008167082383,0.0003219800687,0.0007934135996,0.001454016554,0.002247430154,0.001202148003,0.000786011561,0.001988159564,0.001842320869,-0.0004928130217,0.001349507848,0.001528749386,0.0001287414474,0.001657490833,0.0005105568982,-4.212065423e-05,0.000468436244,-0.002050288456,0.0008245383864,-0.00122575007,-0.0005219931507,-0.0001757940388,-0.0006977871895,-0.0007138442723,7.499250033e-05,-0.0006388517719,-8.630251303e-05,-0.0004383930716,-0.0005246955847,-0.002474321269,-0.001928180763,-0.004402502032,0.004072493695,0.0002699235042,0.004342417199,0.001326867756,-0.0002138576825,0.001113010074,-0.002517774286,-0.0005369437675,-0.003054718054,0.001867917476,-0.0002049327595,0.001662984717,0.002965858782,-5.229605375e-05,0.002913562728,-0.0005246083013,0.0005249008789,2.925775971e-07,0.0036662397,3.505948917e-05,0.003701299189,0.0005893081915,-0.0001606466906,0.0004286615009,-0.0009460502502,0.0003944131695,-0.0005516370806,0.0003423862687,-0.0004265131097,-8.412684098e-05,0.00070270043,0.000684507337,0.001387207767,-0.0007596447051,0.001112206019,0.000352561314,-0.002297672764,0.001588445373,-0.0007092273915,0.0008035023635,0.0002922627602,0.001095765124,-0.001156984779,0.0001755789376,-0.0009814058413
5.1,-0.00178775887,-0.003622384405,-0.005410143276,0.00390995183,0.001389430495,0.005299382325,-0.006003457413,-0.003731951205,-0.009735408619,-0.0009656611364,-0.0008266750357,-0.001792336172,-0.0002172738801,-0.001409886689,-0.001627160569,0.0002823638204,0.0001347605976,0.000417124418,-0.0002492473665,-0.0009715199843,-0.001220767351,-0.0008412706391,-0.0004599309672,-0.001301201606,-0.002117711933,-0.001615606275,-0.003733318208,0.0002313095643,-0.0008690294009,-0.0006377198366,0.001050433026,-0.0008158124422,0.0002346205835,0.0006218445688,0.001438638304,0.002060482873,0.001012614164,0.0007408233047,0.001753437469,0.001674604339,-0.0005210226405,0.001153581699,0.001411145772,0.0001151301942,0.001526275966,0.0003415710813,-6.028483219e-05,0.0002812862491,-0.002271969396,0.0008447418109,-0.001427227585,-0.0005773535277,-0.0001816319325,-0.0007589854603,-0.00076080681,6.292001272e-05,-0.0006978867972,-0.0002761029404,-0.0004196008432,-0.0006957037836,-0.002569213767,-0.001929393948,-0.004498607714,0.003896545873,0.00023814958,0.004134695453,0.00125077808,-0.0002366074442,0.001014170636,-0.002416640915,-0.0004990526597,-0.002915693574,0.001709675821,-0.0002291505757,0.001480525245,0.002796965855,-7.761113629e-05,0.002719354718,-0.0005804335751,0.0004898126148,-9.062096026e-05,0.003478542054,-1.691554696e-05,0.003461626507,0.0004677778762,-0.000171869098,0.0002959087782,-0.001047216412,0.0004095393079,-0.0006376771041,0.0001568501008,-0.0004495656424,-0.0002927155416,0.0004246506077,0.0007219355845,0.001146586192,-0.0008807596615,0.001082976856,0.0002022171941,-0.002461402638,0.00157394027,-0.000887462368,0.000625556162,0.0002447992256,0.0008703553876,-0.001315271924,0.0002233186803,-0.001091953244
5.2,-0.001725503552,-0.003573645727,-0.00529914928,0.00377637061,0.001366852094,0.005143222704,-0.005982738445,-0.0037377874,-0.009720525845,-0.0009383685197,-0.0008153289271,-0.001753697447,-0.0003165974308,-0.0014158302,-0.001732427631,0.0001780963893,0.0001368979868,0.0003149943761,-0.0004236001561,-0.0009671795398,-0.001390779696,-0.0009609191796,-0.0004434944615,-0.001404413641,-0.002350576989,-0.001623236737,-0.003973813726,8.292324176e-05,-0.0008556436568,-0.000772720415,0.0009622483091,-0.0008144735376,0.0001477747715,0.0004474419859,0.001429377855,0.001876819841,0.0008259189727,0.0006955694797,0.001521488452,0.001507288424,-0.000546488226,0.000960800198,0.001296097342,9.968462491e-05,0.001395781967,0.0001725872732,-7.714951397e-05,9.543775919e-05,-0.0024912115,0.0008644022708,-0.001626809229,-0.0006308242082,-0.0001849829275,-0.0008158071357,-0.0008100161922,5.416116631e-05,-0.0007558550259,-0.0004623090608,-0.0004005287746,-0.0008628378354,-0.002656198781,-0.001928364625,-0.004584563406,0.003719397588,0.0002071125296,0.003926510118,0.001172465646,-0.0002599594073,0.0009125062385,-0.002318686792,-0.0004616212617,-0.002780308054,0.001550679262,-0.0002534048382,0.001297274424,0.002622883489,-0.0001032265763,0.002519656912,-0.0006351784108,0.0004534544772,-0.0001817239337,0.003285302245,-6.884270467e-05,0.00321645954,0.0003490745695,-0.0001832126149,0.0001658619546,-0.001146245117,0.0004234825363,-0.0007227625803,-2.580001552e-05,-0.0004708505221,-0.0004966505376,0.0001511270234,0.0007553413663,0.0009064683897,-0.0009973272314,0.00105219215,5.48649183e-05,-0.002612362184,0.001554563751,-0.001057798433,0.0004438005865,0.0002031467131,0.0006469472996,-0.001469697784,0.0002697598217,-0.001199937963
5.3,-0.001652215823,-0.003517078599,-0.005169294422,0.003638270255,0.00134290107,0.004981171324,-0.005940910048,-0.003736827098,-0.009677737146,-0.0009087027015,-0.0008021356438,-0.001710838345,-0.0004129257102,-0.001420111647,-0.001833037358,7.615178868e-05,0.0001385994711,0.0002147512598,-0.0005945396004,-0.0009611361508,-0.001555675751,-0.001077804369,-0.0004266121227,-0.001504416492,-0.002575045437,-0.00162768072,-0.004202726157,-6.319643752e-05,-0.0008411671206,-0.0009043635581,0.0008740606456,-0.0008127341526,6.132649293e-05,0.0002705288809,0.001426370285,0.001696899166,0.0006422901229,0.0006504187551,0.001292708878,0.001340850375,-0.0005690197059,0.0007718306695,0.001183499559,8.246663964e-05,0.001265966198,3.944845106e-06,-9.276437527e-05,-8.881953017e-05,-0.002707212599,0.0008830379613,-0.001824174637,-0.0006828703297,-0.0001859479129,-0.0008688182426,-0.0008623101042,4.893676595e-05,-0.0008133733382,-0.0006446352384,-0.000381544437,-0.001026179675,-0.002735781359,-0.001925178653,-0.004660960012,0.003541332485,0.0001770405394,0.003718373025,0.001092345153,-0.0002837583319,0.0008085868214,-0.00222461169,-0.0004248025698,-0.00264941426,0.001391582408,-0.0002774739978,0.00111410841,0.00244451402,-0.0001289192447,0.002315594776,-0.0006891326687,0.0004160727351,-0.0002730599335,0.003086679804,-0.0001203576952,0.002966322109,0.0002332368215,-0.0001946890308,3.854779069e-05,-0.001243387787,0.0004362999068,-0.00080708788,-0.000205622698,-0.0004902426433,-0.0006958653413,-0.0001172581929,0.0007843194576,0.0006670612647,-0.001109373195,0.001020268102,-8.910509299e-05,-0.002750632225,0.001530720809,-0.001219911416,0.0002582572348,0.0001679413066,0.0004261985414,-0.001620767161,0.0003146639663,-0.001306103195
5.4,-0.001569543991,-0.00345370286,-0.005023246851,0.003495898217,0.001317735897,0.004813634114,-0.005879504026,-0.003729637544,-0.009609141569,-0.0008777963499,-0.0007873737473,-0.001665170097,-0.0005061885269,-0.001422706576,-0.001928895102,-2.360231148e-05,0.0001399067556,0.0001163044441,-0.0007618273358,-0.000953398526,-0.001715225862,-0.00119222607,-0.0004093132656,-0.001601539336,-0.002790732998,-0.001628851545,-0.004419584543,-0.0002070764332,-0.0008257370882,-0.001032813521,0.0007858024849,-0.0008106272327,-2.482474788e-05,9.13795613e-05,0.001429671487,0.001521051048,0.0004618465538,0.0006055748461,0.0010674214,0.001175725454,-0.0005884872547,0.000587238199,0.001073226885,6.350304955e-05,0.001136729934,-0.0001640372275,-0.0001071983568,-0.0002712355843,-0.002919231467,0.0009001685265,-0.002019062941,-0.0007339563667,-0.0001846805067,-0.0009186368734,-0.0009184876228,4.738005744e-05,-0.0008711075653,-0.0008228575568,-0.0003630072936,-0.00118586485,-0.002808525523,-0.001919939275,-0.004728464798,0.003362613466,0.0001481519027,0.003510765369,0.001010828141,-0.0003078441674,0.0007029839736,-0.002135015326,-0.0003887258527,-0.002523741179,0.001233007841,-0.0003011510379,0.0009318568035,0.002262747142,-0.0001544729474,0.002108274194,-0.0007425795091,0.0003779261123,-0.0003646533967,0.002882880274,-0.0001711048878,0.002711775386,0.0001202307366,-0.0002063134055,-8.608266894e-05,-0.001338927177,0.000448040534,-0.000890886643,-0.0003827631071,-0.000507629769,-0.0008903928762,-0.00038009524,0.0008086220408,0.0004285268008,-0.001216959666,0.0009875465199,-0.0002294131465,-0.002876395176,0.001502801041,-0.001373594136,6.898029203e-05,0.0001396938537,0.0002086741457,-0.001769075034,0.0003578288887,-0.001411246145
5.5,-0.0014792075,-0.003384565892,-0.004863773392,0.003349491032,0.001291521509,0.004641012541,-0.005800208291,-0.003716813966,-0.009517022257,-0.000846797059,-0.0007713286457,-0.001618125705,-0.0005963647885,-0.001423590848,-0.002019955637,-0.0001213261518,0.0001408529899,1.952683805e-05,-0.0009252891215,-0.0009439862128,-0.001869275334,-0.001304486179,-0.0003916347117,-0.00169612089,-0.002997334311,-0.001626676591,-0.004624010902,-0.0003487682419,-0.0008094892906,-0.001158257533,0.0006974158329,-0.00080817522,-0.0001107593871,-8.977188897e-05,0.001439255199,0.00134948331,0.0002845835504,0.0005612932729,0.0008458768234,0.001012310213,-0.0006048227172,0.0004074874954,0.000965142482,4.278375929e-05,0.001007926241,-0.0003310572636,-0.0001205411143,-0.0004515983779,-0.003126604057,0.0009153327143,-0.002211271343,-0.0007845422575,-0.0001813799655,-0.0009659222231,-0.0009792976967,4.953412368e-05,-0.000929763573,-0.0009968064813,-0.0003452642273,-0.001342070709,-0.002875042465,-0.001912765611,-0.004787808077,0.00318348434,0.000120654403,0.003304138743,0.0009283156911,-0.0003320545611,0.00059626113,-0.002050399053,-0.0003534975907,-0.002403896643,0.001075537003,-0.0003242441902,0.0007512928124,0.002078448669,-0.0001796822163,0.001898766453,-0.0007957934647,0.0003392848193,-0.0004565086454,0.002674165001,-0.000220744681,0.00245342032,9.951466918e-06,-0.0002181026987,-0.0002081512318,-0.001433172254,0.0004587483005,-0.0009744239539,-0.0005574437001,-0.0005229175076,-0.001080361208,-0.0006371660902,0.0008281525577,0.0001909864675,-0.001320190244,0.0009542901894,-0.0003659000544,-0.00298993659,0.001471170699,-0.001518765891,-0.0001239261331,0.0001187566618,-5.169471296e-06,-0.001915286346,0.0003990847508,-0.001516201595
5.6,-0.001382976321,-0.003310724544,-0.004693700865,0.003199272811,0.001264426289,0.0044636991,-0.005704839786,-0.003698968967,-0.009403808753,-0.0008168431806,-0.0007542854602,-0.001571128641,-0.0006834776824,-0.001422740372,-0.002106218054,-0.0002171964437,0.000141458379,-7.573806469e-05,-0.001084806852,-0.0009329281785,-0.00201773503,-0.001414880242,-0.0003736198377,-0.00178850008,-0.003194616134,-0.001621097719,-0.004815713854,-0.0004883411138,-0.0007925555878,-0.001280896702,0.0006088560472,-0.0008053895109,-0.0001965334636,-0.0002727170043,0.001455012351,0.001182295346,0.0001103692571,0.0005178910817,0.0006282603388,0.0008509681685,-0.0006180201244,0.0002329480441,0.0008591074585,2.026393139e-05,0.0008793713898,-0.0004968281455,-0.0001329018329,-0.0006297299784,-0.003328759135,0.0009281063967,-0.002400652738,-0.0008350791656,-0.0001762826945,-0.00101136186,-0.001045426447,5.535197296e-05,-0.0009900744737,-0.001166356317,-0.0003286477376,-0.001495004055,-0.002935978616,-0.001903789961,-0.004839768577,0.003004171683,9.474526447e-05,0.003098916947,0.0008451924506,-0.0003562273101,0.0004889651405,-0.001971168728,-0.0003192031554,-0.002290371883,0.0009197022694,-0.0003465762786,0.0005731259908,0.001892451617,-0.0002043546926,0.001688096925,-0.0008490411565,0.0003004311297,-0.0005486100269,0.002460862822,-0.0002689628127,0.00219190001,-9.777163878e-05,-0.0002300737938,-0.0003278454326,-0.001526451274,0.0004684647486,-0.001057986525,-0.0007299496154,-0.0005360349662,-0.001265984582,-0.0008884286267,0.0008429518299,-4.547679685e-05,-0.00141921852,0.0009206881998,-0.0004985303206,-0.003091647915,0.00143616548,-0.001655482435,-0.0003202903273,0.0001052940275,-0.0002149962999,-0.00206011035,0.0004382882535,-0.001621822097
5.7,-0.001282646903,-0.003233227525,-0.004515874428,0.003045455944,0.001236619336,0.00428207528,-0.005595315426,-0.003676722782,-0.009272038209,-0.0007890385493,-0.0007365221666,-0.001525560716,-0.0007675880579,-0.001420131003,-0.002187719061,-0.0003113951269,0.0001417282425,-0.0001696668843,-0.001240308511,-0.0009202611062,-0.002160569617,-0.001523688319,-0.000355317938,-0.001879006257,-0.003382410076,-0.001612071986,-0.004994482062,-0.0006258747086,-0.0007750619926,-0.001400936701,0.0005200955369,-0.0008022701956,-0.0002821746587,-0.0004572542925,0.001476751825,0.001019497532,-6.104440486e-05,0.0004757454003,0.0004147009954,0.0006920357535,-0.0006281345256,6.390122793e-05,0.0007549854919,-4.128150808e-06,0.0007508573411,-0.000661075107,-0.0001444054155,-0.0008054805226,-0.003525230095,0.0009381205991,-0.002587109496,-0.0008860042349,-0.0001696531121,-0.001055657347,-0.001117483952,6.469985642e-05,-0.001052784096,-0.001331413089,-0.0003134753945,-0.001644888484,-0.002992003382,-0.001893154659,-0.004885158041,0.002824886482,7.061154066e-05,0.002895498023,0.0007618213764,-0.0003802028082,0.0003816185682,-0.001897638899,-0.0002859090429,-0.002183547942,0.0007659817942,-0.0003679842894,0.0003979975048,0.001705550053,-0.000228312704,0.001477237349,-0.0009025854456,0.0002616619563,-0.0006409234893,0.002243380643,-0.0003154787566,0.001927901886,-0.0002031671604,-0.0002422411578,-0.0004454083183,-0.00161910365,0.0004772311105,-0.001141872539,-0.0009006105668,-0.0005469399662,-0.001447550533,-0.001134001037,0.0008531844595,-0.0002808165779,-0.001514256859,0.0008868668556,-0.0006273900037,-0.003182024612,0.001398083313,-0.001783941299,-0.0005198562976,9.926113476e-05,-0.0004205951628,-0.002204274985,0.0004753192559,-0.001728955729
5.8,-0.001180014941,-0.00315309868,-0.004333113622,0.002888244139,0.001208268236,0.004096512375,-0.005473623145,-0.003650694583,-0.009124317728,-0.000764428123,-0.0007183031538,-0.001482731277,-0.0008487875214,-0.001415738626,-0.002264526147,-0.0004041011947,0.0001416553291,-0.0002624458656,-0.001391757409,-0.0009060276202,-0.002297785029,-0.001631165506,-0.0003367845138,-0.001967950019,-0.003560605582,-0.001599572409,-0.005160177991,-0.0007614522151,-0.0007571269527,-0.001518579168,0.0004311262224,-0.000798806152,-0.0003676799296,-0.0006431703744,0.001504201371,0.0008610309969,-0.0002300011977,0.0004352817172,0.0002052805195,0.0005358257799,-0.0006352784878,-9.945270793e-05,0.0006526388916,-3.047637368e-05,0.000622162518,-0.0008235338688,-0.0001551874417,-0.0009787213105,-0.003715662971,0.0009450792381,-0.002770583733,-0.0009377342129,-0.0001617750164,-0.001099509229,-0.001195992591,7.736430171e-05,-0.001118628289,-0.001491903796,-0.0003000484047,-0.001791952201,-0.003043797381,-0.001881009324,-0.004924806704,0.002645826095,4.842945976e-05,0.002694255555,0.0006785382823,-0.0004038263921,0.0002747118902,-0.001830039075,-0.0002536654063,-0.002083704481,0.000614797581,-0.0003883204316,0.0002264771494,0.001518494644,-0.000251394509,0.001267100135,-0.0009566937844,0.0002232932022,-0.0007334005822,0.002022210418,-0.0003600518358,0.001662158582,-0.0003065124456,-0.0002546146593,-0.0005611271049,-0.001711472111,0.0004850900167,-0.001226382095,-0.00106978231,-0.0005556232933,-0.001625405604,-0.001374150926,0.0008591315868,-0.0005150193392,-0.001605583934,0.0008529035347,-0.0007526803995,-0.00326165597,0.001357178715,-0.001904477255,-0.0007222692439,0.0001003939839,-0.0006218752599,-0.002348503742,0.0005100811671,-0.001838422574
5.9,-0.001076847004,-0.003071321733,-0.004148168738,0.002727837123,0.001179537344,0.003907374467,-0.005341795361,-0.003621494904,-0.008963290265,-0.0007439770773,-0.0006998734176,-0.001443850495,-0.0009271930731,-0.001409539366,-0.002336732439,-0.0004954868831,0.0001412264235,-0.0003542604596,-0.001539142199,-0.0008902746163,-0.002429416815,-0.001737533511,-0.0003180826725,-0.002055616183,-0.003729143836,-0.001583588516,-0.005312732353,-0.0008951550934,-0.0007388597955,-0.001634014889,0.0003419596209,-0.0007949755198,-0.0004530158989,-0.0008302290574,0.001537011179,0.000706782122,-0.0003969175233,0.0003969560952,3.857189343e-08,0.0003826264749,-0.0006396160086,-0.0002569895337,0.0005519180729,-5.885739233e-05,0.0004930606806,-0.0009839495263,-0.0001653892233,-0.00114933875,-0.003899821936,0.0009487746884,-0.002951047248,-0.0009906590233,-0.000152943708,-0.001143602731,-0.001281378749,9.306255018e-05,-0.001188316199,-0.001647768711,-0.0002886485799,-0.001936417291,-0.003092042691,-0.001867508597,-0.004959551288,0.00246717721,2.836113477e-05,0.002495538345,0.0005956457706,-0.0004269504261,0.0001686953445,-0.001768522618,-0.0002225087106,-0.001991031328,0.0004665156773,-0.0004074541521,5.906152517e-05,0.001331988108,-0.0002734552737,0.001058532835,-0.001011648915,0.0001856640658,-0.0008259848488,0.001797931127,-0.0004024850552,0.001395446071,-0.0004081244165,-0.0002671976312,-0.0006753220477,-0.001803896509,0.0004920879441,-0.001311808565,-0.001237830057,-0.0005621119459,-0.001799942003,-0.001609289445,0.0008611893734,-0.0007481000717,-0.001693550765,0.0008188424188,-0.0008747083457,-0.003331210516,0.001313661465,-0.002017549052,-0.0009270654168,0.0001082119662,-0.0008188534506,-0.002493495433,0.0005425022551,-0.001950993178
6.0,-0.0009748537587,-0.00298882715,-0.003963680909,0.002564435759,0.001150586329,0.003715022088,-0.005201885966,-0.003589719118,-0.008791605084,-0.0007285550749,-0.0006814536562,-0.001410008731,-0.001002944273,-0.00140150991,-0.002404454182,-0.0005857170988,0.0001404314958,-0.000445285603,-0.001682468808,-0.0008730517042,-0.002555520512,-0.001842974839,-0.0002992849986,-0.002142259838,-0.003888012843,-0.001564126465,-0.005452139307,-0.00102705995,-0.0007203593083,-0.001747419259,0.0002526242495,-0.000790746461,-0.0005381222115,-0.001018175999,0.001574766205,0.0005565902059,-0.0005622617752,0.0003612356317,-0.0002010261435,0.0002326965071,-0.0006413542882,-0.0004086577811,0.0004526509657,-8.932137292e-05,0.0003633295927,-0.001142077407,-0.0001751534217,-0.001317230829,-0.004077593348,0.0009490990694,-0.003128494278,-0.001045136736,-0.0001434586615,-0.001188595397,-0.001373968154,0.0001114550796,-0.001262513074,-0.001798956157,-0.0002795343487,-0.002078490506,-0.003137416092,-0.00185280986,-0.004990225952,0.002289119402,1.054869344e-05,0.002299668095,0.000513406974,-0.0004494360304,6.39709436e-05,-0.001713178024,-0.0001924644834,-0.001905642508,0.0003214464333,-0.0004252732116,-0.0001038267783,0.001146679604,-0.000294367732,0.0008523118717,-0.001067756604,0.000149137634,-0.0009186189698,0.001571204179,-0.0004426260125,0.001128578166,-0.0005083512194,-0.0002799848105,-0.0007883360298,-0.001896709497,0.0004982785414,-0.001398430955,-0.001405114579,-0.0005664715706,-0.00197158615,-0.001839963885,0.0008598642103,-0.0009800996747,-0.001778583665,0.0007847097628,-0.0009938739018,-0.0033914249,0.001267700256,-0.002123724644,-0.001133669918,0.0001220349722,-0.001011634946,-0.002639907774,0.0005725352556,-0.002067372518
6.1,-0.0008756665769,-0.002906481612,-0.003782148189,0.002398246266,0.001121568742,0.003519815008,-0.00505595042,-0.003555941828,-0.008611892248,-0.0007189259356,-0.0006632364179,-0.001382162354,-0.001076202689,-0.001391627871,-0.00246783056,-0.0006749499072,0.0001392731331,-0.0005356767741,-0.001821754631,-0.0008544096504,-0.002676164282,-0.001947630573,-0.000280474601,-0.002228105174,-0.004037243506,-0.001541208728,-0.005578452234,-0.001157237192,-0.0007017125065,-0.001858949699,0.0001631610987,-0.0007860780924,-0.0006229169937,-0.001206756062,0.001617008158,0.0004102520957,-0.0007265367496,0.0003285795196,-0.00039795723,8.625827532e-05,-0.0006407341382,-0.0005544758629,0.000354636941,-0.000121876585,0.000232760356,-0.001297687049,-0.0001846198786,-0.001482306928,-0.004248988193,0.0009460505011,-0.003302937691,-0.001101490525,-0.0001336170074,-0.001235107532,-0.001473983842,0.0001321584948,-0.001341825347,-0.001945419098,-0.0002729361254,-0.002218355223,-0.003180585133,-0.001837070475,-0.005017655608,0.002111828068,-4.892423333e-06,0.002106935644,0.0004320401026,-0.0004711544575,-3.911435495e-05,-0.001664041594,-0.0001635502035,-0.001827591797,0.0001798432607,-0.00044168277,-0.0002618395093,0.0009631586399,-0.000314022617,0.000649136023,-0.001125345138,0.000114094792,-0.001011250346,0.001342761015,-0.0004803639783,0.0008623970372,-0.0006075646752,-0.0002929602357,-0.0009005249109,-0.001990232929,0.0005037257226,-0.001486507207,-0.001571981469,-0.00056880746,-0.002140788929,-0.002066842221,0.000855757454,-0.001211084767,-0.00186118155,0.0007505259827,-0.001110655567,-0.003443100611,0.00121942918,-0.002223671431,-0.001341403831,0.0001410143397,-0.001200389491,-0.002788344887,0.0006001544253,-0.002188190462
6.2,-0.0007808179897,-0.002825080113,-0.003605898103,0.002229483006,0.001092630544,0.003322113549,-0.00490602773,-0.003520712057,-0.008426739787,-0.0007157415901,-0.0006453833164,-0.001361124906,-0.001147152405,-0.001379872145,-0.00252702455,-0.0007633362236,0.0001377741071,-0.0006255621165,-0.001957024478,-0.0008343987666,-0.002791423245,-0.002051601646,-0.0002617443784,-0.002313346025,-0.004176906151,-0.001514873516,-0.005691779667,-0.001285750519,-0.0006829936611,-0.00196874418,7.361870609e-05,-0.0007809215767,-0.0007073028706,-0.001395729283,0.001663256613,0.0002675273298,-0.0008902617023,0.0002994209196,-0.0005908407828,-5.650780641e-05,-0.000638019704,-0.0006945275104,0.0002576447016,-0.0001564782529,0.0001011664487,-0.001450569006,-0.0001939210252,-0.001644490032,-0.004414140558,0.0009397340343,-0.003474406524,-0.001160007259,-0.0001237083107,-0.00128371557,-0.001581545505,0.0001547575874,-0.001426787918,-0.002087114273,-0.0002690507404,-0.002356165013,-0.003222205837,-0.001820444549,-0.005042650386,0.001935476323,-1.787921652e-05,0.001917597107,0.0003517148913,-0.0004919881483,-0.0001402732571,-0.001621109949,-0.0001357782558,-0.001756888205,4.189989931e-05,-0.0004566032899,-0.0004147033906,0.0007819502115,-0.0003323289133,0.0004496212981,-0.001184756355,8.092244734e-05,-0.001103833908,0.001113384316,-0.0005156235856,0.0005977607305,-0.0007061524511,-0.0003060957419,-0.001012248193,-0.002084773669,0.0005085051594,-0.00157626851,-0.001738754714,-0.0005692623284,-0.002308017042,-0.00229069012,0.0008495433964,-0.001441146724,-0.001941906455,0.0007163141851,-0.00122559227,-0.003487105522,0.001168953163,-0.002318152359,-0.001549498389,0.0001641726311,-0.001385325758,-0.002939346079,0.0006253490482,-0.002313997031
6.3,-0.0006917255193,-0.0027453403,-0.00343706582,0.002058370218,0.001063908679,0.003122278898,-0.004754122784,-0.003484549203,-0.008238671987,-0.0007195385171,-0.0006280233362,-0.001347561853,-0.001215999847,-0.00136622324,-0.002582223088,-0.000851017351,0.0001359808843,-0.0007150364667,-0.002088307142,-0.000813067395,-0.002901374537,-0.002154952439,-0.0002431946983,-0.002398147138,-0.004307106827,-0.001485174229,-0.005792281056,-0.001412656193,-0.0006642636787,-0.002076919872,-1.595051629e-05,-0.000775221432,-0.0007911719483,-0.001584872067,0.001713015373,0.0001281433059,-0.001053950693,0.0002741498221,-0.0007798008711,-0.0001954658362,-0.0006334881591,-0.0008289539953,0.0001614110891,-0.0001930201954,-3.160910626e-05,-0.001600542601,-0.0002031765683,-0.001803719169,-0.004573299958,0.0009303569289,-0.003642943029,-0.001220936933,-0.000114010424,-0.001334947357,-0.001696669113,0.0001788163777,-0.001517852735,-0.00222400479,-0.0002680348816,-0.002492039672,-0.003262920273,-0.001803079584,-0.005065999857,0.001760236792,-2.836526128e-05,0.00173187153,0.0002725516865,-0.000511831463,-0.0002392797765,-0.001584350828,-0.0001091586966,-0.001693509525,-9.225255104e-05,-0.0004699684629,-0.0005622210139,0.0006035127869,-0.0003492136659,0.000254299121,-0.001246332796,5.00003078e-05,-0.001196332488,0.0008838867639,-0.0005483566899,0.0003355300741,-0.0008045089055,-0.0003193504541,-0.00112385936,-0.002180618378,0.0005127034556,-0.001667914923,-0.001905734669,-0.0005680098482,-0.002473744518,-0.002512344104,0.0008419471573,-0.001670396947,-0.002021368132,0.0006821064678,-0.001339261664,-0.00352437297,0.001116349016,-0.002408023954,-0.001757114352,0.0001904465745,-0.001566667777,-0.003093372803,0.000648112662,-0.002445260141
6.4,-0.000609678049,-0.002667898596,-0.003277576645,0.001885143462,0.001035529819,0.002920673281,-0.004602188017,-0.003447939792,-0.00805012781,-0.0007307352085,-0.0006112522187,-0.001341987427,-0.001282971616,-0.001350663642,-0.002633635258,-0.0009381200862,0.0001339620973,-0.0008041579889,-0.002215631615,-0.0007904607444,-0.00300609236,-0.002257714923,-0.0002249306287,-0.002482645551,-0.004427983116,-0.00145217914,-0.005880162256,-0.001538001455,-0.0006455699059,-0.002183571361,-0.0001054918558,-0.0007689170483,-0.0008744089041,-0.001773962433,0.001765761765,-8.200667945e-06,-0.001218088173,0.0002530991398,-0.0009649890332,-0.0003305232572,-0.0006274200159,-0.0009579432731,6.563929769e-05,-0.0002313285482,-0.0001656892505,-0.001747462789,-0.0002124877354,-0.001959950524,-0.004726818684,0.0009182186363,-0.003808600048,-0.001284492262,-0.0001047857269,-0.001389277988,-0.001819266306,0.0002038886225,-0.001615377683,-0.002356065631,-0.0002699980128,-0.002626063643,-0.003303352715,-0.00178511343,-0.005088466145,0.001586284066,-3.634302518e-05,0.001549941041,0.0001946231768,-0.000530591102,-0.0003359679251,-0.001553711262,-8.370151215e-05,-0.001637412774,-0.0002225474907,-0.0004817232779,-0.0007042707685,0.0004282394979,-0.000364620875,6.361862289e-05,-0.001310405137,2.168981896e-05,-0.001288715318,0.0006550904552,-0.0005785335771,7.655687813e-05,-0.0009030246295,-0.0003326711741,-0.001235695804,-0.002278027289,0.0005164148713,-0.001761612418,-0.002073197973,-0.0005652455062,-0.002638443479,-0.002732683021,0.0008337214645,-0.001898961557,-0.002100205068,0.0006479492876,-0.00145225578,-0.003555893786,0.001061662036,-0.00249423175,-0.001963367783,0.0002187307472,-0.001744637035,-0.003250794016,0.0006684300095,-0.002582364007
6.5,-0.0005358240267,-0.002593307757,-0.003129131784,0.001710051049,0.001007609407,0.002717660456,-0.004452104767,-0.003411334982,-0.007863439748,-0.0007496305441,-0.0005951327532,-0.001344763297,-0.00134831031,-0.001333178258,-0.002681488568,-0.001024751171,0.0001318038423,-0.0008929473282,-0.002339022875,-0.0007666202276,-0.003105643102,-0.002359892134,-0.0002070596884,-0.002566951822,-0.004539699881,-0.00141597121,-0.005955671091,-0.001661822407,-0.0006269463233,-0.00228876873,-0.0001949483616,-0.0007619442643,-0.000956892626,-0.001962760512,0.001820931878,-0.000141828634,-0.001383106271,0.0002365372863,-0.001146568984,-0.0004616278757,-0.0006200904713,-0.001081718347,-3.000239888e-05,-0.0002711586183,-0.0003011610172,-0.001891225708,-0.0002219318083,-0.002113157516,-0.004875137064,0.0009036964775,-0.003971440587,-0.001350848536,-9.627747175e-05,-0.001447126007,-0.001949144215,0.0002295279532,-0.001719616262,-0.002483290404,-0.0002749954331,-0.002758285837,-0.003344104369,-0.001766671938,-0.005110776307,0.001413797086,-4.184390199e-05,0.001371953184,0.000117957964,-0.0005481862899,-0.0004302283259,-0.001529123336,-5.941819396e-05,-0.00158854153,-0.0003489826879,-0.0004918219254,-0.0008408046134,0.0002564612365,-0.0003785093541,-0.0001220481176,-0.001377281139,-3.673744002e-06,-0.001380954883,0.0004278063608,-0.0006061334736,-0.0001783271127,-0.001002075931,-0.0003459933475,-0.001348069279,-0.002377227286,0.0005197359485,-0.001857491337,-0.002241396734,-0.0005611776795,-0.002802574413,-0.002952598621,0.0008256170313,-0.002126981589,-0.002179065557,0.0006139092915,-0.001565156265,-0.003582702041,0.00100490084,-0.002577801202,-0.002167362883,0.0002479216884,-0.001919441195,-0.003411873395,0.0006862663389,-0.002725607056
6.6,-0.0004711614401,-0.002522035666,-0.002993197106,0.001533355066,0.0009802511605,0.002513606226,-0.004305665991,-0.003375148739,-0.007680814729,-0.0007764043191,-0.0005796956927,-0.001356100012,-0.001412269731,-0.001313754895,-0.002726024625,-0.001110994114,0.0001296053374,-0.000981388777,-0.002458498128,-0.0007415832985,-0.003200081427,-0.00246146131,-0.0001896898685,-0.002651151178,-0.00464244582,-0.001376647731,-0.006019093551,-0.001784142462,-0.000608414006,-0.002392556468,-0.000284260965,-0.00075423684,-0.001038497805,-0.002150997913,0.001877918682,-0.0002730792319,-0.001549368911,0.0002246688382,-0.001324700072,-0.0005887660274,-0.0006117619047,-0.001200527932,-0.0001258796784,-0.0003121963167,-0.0004380759952,-0.002031773154,-0.0002315578651,-0.002263331019,-0.005018768081,0.0008872284069,-0.004131539674,-0.001420144943,-8.87060885e-05,-0.001508851031,-0.002086007019,0.0002552969735,-0.001830710045,-0.002605697931,-0.0002830221782,-0.00288872011,-0.003385747746,-0.001747867559,-0.005133615305,0.001242959733,-4.493554989e-05,0.001198024183,4.254475931e-05,-0.0005645487969,-0.0005220040376,-0.001510508279,-3.632265868e-05,-0.001546830937,-0.0004716177105,-0.0005002261632,-0.0009718438737,8.844960078e-05,-0.0003908500177,-0.000302400417,-0.001447236267,-2.578656848e-05,-0.001473022835,0.0002028105303,-0.0006311335934,-0.0004283230631,-0.001102016169,-0.0003592423694,-0.001461258538,-0.002478405605,0.0005227589938,-0.001955646611,-0.002410556789,-0.0005560206079,-0.002966577397,-0.003172964862,0.0008183448063,-0.002354620056,-0.002258591915,0.0005800803124,-0.001678511602,-0.003605857221,0.0009460333921,-0.002659823829,-0.002368228435,0.000276960601,-0.002091267834,-0.00357676132,0.0007015624209,-0.0028751989
6.7,-0.0004165301662,-0.002454465133,-0.002870995299,0.001355331314,0.0009535469879,0.002308878302,-0.004164562063,-0.003339756536,-0.007504318598,-0.0008111214069,-0.0005649411217,-0.001376062529,-0.001475111194,-0.001292384629,-0.002767495823,-0.001196910395,0.0001274771341,-0.001069433261,-0.00257406477,-0.0007153837806,-0.003289448551,-0.002562377949,-0.0001729268899,-0.002735304839,-0.004736431539,-0.001334319602,-0.006070751141,-0.001904972388,-0.0005899817763,-0.002494954165,-0.0003733700308,-0.0007457277583,-0.001119097789,-0.002338382607,0.001936091367,-0.0004022912399,-0.001717166442,0.0002176417672,-0.001499524675,-0.0007119634327,-0.0006026775396,-0.001314640972,-0.0002223882102,-0.0003540644688,-0.000576452679,-0.002169095588,-0.0002413847677,-0.002410480356,-0.005158282077,0.0008692950515,-0.004288987025,-0.001492488615,-8.226500794e-05,-0.001574753623,-0.002229460254,0.0002807746972,-0.001948685557,-0.002723338008,-0.0002940086188,-0.003017346627,-0.003428821946,-0.001728798694,-0.00515762064,0.001073958391,-4.571675842e-05,0.001028241632,-3.166381378e-05,-0.0005796227893,-0.000611286603,-0.001497779528,-1.443157674e-05,-0.001512211105,-0.0005905691114,-0.0005069054637,-0.001097474575,-7.558187057e-05,-0.0004016232489,-0.0004772051195,-0.001520505874,-4.438013824e-05,-0.001564886013,-1.91852888e-05,-0.0006534967044,-0.0006726819932,-0.001203170157,-0.0003723353185,-0.001575505475,-0.002581705633,0.000525565583,-0.00205614005,-0.002580876372,-0.0005499890907,-0.003130865462,-0.0033946045,0.0008125315108,-0.002582072989,-0.002339408269,0.0005465897856,-0.001792818483,-0.003626424964,0.0008849875301,-0.002741437433,-0.002565152812,0.0003048710597,-0.002260281753,-0.003745491614,0.0007142349864,-0.003031256628
6.8,-0.0003726074777,-0.002390894641,-0.002763502118,0.001176267758,0.000927577098,0.002103844856,-0.004030370297,-0.003305494441,-0.007335864738,-0.0008537400928,-0.0005508403284,-0.001404580421,-0.001537101913,-0.001269062019,-0.002806163932,-0.00128254492,0.0001255416364,-0.001157003284,-0.002685720872,-0.0006880526892,-0.003373773561,-0.002662581588,-0.0001568703692,-0.002819451958,-0.004821889373,-0.001289110247,-0.006110999619,-0.002024312283,-0.0005716470441,-0.002595959328,-0.0004622187442,-0.0007363503653,-0.001198569109,-0.002524618312,0.00199483291,-0.0005297854026,-0.00188672034,0.0002155570647,-0.001671163275,-0.0008312876175,-0.0005930566535,-0.001424344271,-0.0003199464111,-0.0003963329032,-0.0007162793144,-0.00230323269,-0.0002514023035,-0.002554634993,-0.00529429281,0.0008504037099,-0.0044438891,-0.001567961627,-7.711606377e-05,-0.001645077691,-0.002379018501,0.0003055630082,-0.002073455493,-0.002836296287,-0.0003078186675,-0.003144114954,-0.003473829724,-0.001709549064,-0.005183378787,0.0009069764068,-4.43107942e-05,0.0008626656126,-0.0001047482394,-0.0005933644616,-0.000698112701,-0.001490844927,6.235908564e-06,-0.001484609018,-0.0007060041732,-0.0005118395605,-0.001217843734,-0.0002354785206,-0.0004108166951,-0.0006462952157,-0.001597277683,-5.922571436e-05,-0.001656503397,-0.0002375667198,-0.0006731594277,-0.0009107261475,-0.001305831414,-0.0003851832526,-0.001691014666,-0.002687225154,0.0005282211591,-0.002159003995,-0.002752525786,-0.0005432942146,-0.00329582,-0.003618252831,0.0008086713117,-0.002809581519,-0.002422111137,0.0005136017192,-0.001908509418,-0.003645459925,0.0008216600379,-0.002823799887,-0.002757414891,0.0003307890069,-0.002426625884,-0.00391798159,0.0007241804153,-0.003193801174
6.9,-0.0003399071341,-0.002331540071,-0.002671447205,0.0009964615163,0.0009024101399,0.001898871656,-0.003904547639,-0.003272658581,-0.007177206221,-0.0009041238331,-0.0005373384009,-0.001441462234,-0.001598515329,-0.001243785198,-0.002842300527,-0.001367934193,0.0001239347243,-0.001243999469,-0.002793458265,-0.0006596194884,-0.003453077753,-0.002762003108,-0.0001416095854,-0.002903612693,-0.004899074722,-0.001241154322,-0.006140229044,-0.002142155098,-0.0005533968185,-0.002695551917,-0.0005507577741,-0.0007260393505,-0.001276797125,-0.002709432454,0.00205358346,-0.0006558489939,-0.002058192773,0.0002184761066,-0.001839716667,-0.0009468491435,-0.0005830922133,-0.001529941357,-0.0004189844535,-0.0004385307441,-0.0008575151976,-0.002434271195,-0.0002615753919,-0.002695846587,-0.005427445288,0.0008310755366,-0.004596369751,-0.00164662974,-7.33854447e-05,-0.001720015184,-0.002534116658,0.0003292936407,-0.002204823017,-0.002944698314,-0.000324251143,-0.003268949457,-0.003521236371,-0.001690186424,-0.005211422795,0.0007421864601,-4.08585382e-05,0.0007013279219,-0.0001768197199,-0.0006057414804,-0.0007825612003,-0.001489607656,2.565910045e-05,-0.001463948556,-0.000818133856,-0.0005150226941,-0.00133315655,-0.0003911466391,-0.0004184235655,-0.0008095702046,-0.001677682691,-7.014163305e-05,-0.001747824324,-0.0004518475096,-0.0006900252594,-0.001141872769,-0.001410261097,-0.0003976936267,-0.001807954724,-0.002795016782,0.000530771938,-0.002264244844,-0.002925647504,-0.0005361400086,-0.003461787513,-0.003844523701,0.0008070817535,-0.003037441948,-0.002507262933,0.0004813153066,-0.002025947627,-0.0036639956,0.000755936423,-0.002908059177,-0.002944409518,0.0003539836542,-0.002590425863,-0.004094034967,0.0007312797208,-0.003362755246
