Time,S1D1HbO,S1D1HbR,S1D1HbT,S2D2HbO,S2D2HbR,S2D2HbT,S3D3HbO,S3D3HbR,S3D3HbT,S4D4HbO,S4D4HbR,S4D4HbT,S5D5HbO,S5D5HbR,S5D5HbT,S6D6HbO,S6D6HbR,S6D6HbT,S7D7HbO,S7D7HbR,S7D7HbT,S8D8HbO,S8D8HbR,S8D8HbT,S9D9HbO,S9D9HbR,S9D9HbT,S10D10HbO,S10D10HbR,S10D10HbT,S11D11HbO,S11D11HbR,S11D11HbT,S12D12HbO,S12D12HbR,S12D12HbT,S13D13HbO,S13D13HbR,S13D13HbT,S14D14HbO,S14D14HbR,S14D14HbT,S15D15HbO,S15D15HbR,S15D15HbT,S16D16HbO,S16D16HbR,S16D16HbT,S17D17HbO,S17D17HbR,S17D17HbT,S18D18HbO,S18D18HbR,S18D18HbT,S19D19HbO,S19D19HbR,S19D19HbT,S20D20HbO,S20D20HbR,S20D20HbT,S21D21HbO,S21D21HbR,S21D21HbT,S22D22HbO,S22D22HbR,S22D22HbT,S23D23HbO,S23D23HbR,S23D23HbT,S24D24HbO,S24D24HbR,S24D24HbT,S25D25HbO,S25D25HbR,S25D25HbT,S26D26HbO,S26D26HbR,S26D26HbT,S27D27HbO,S27D27HbR,S27D27HbT,S28D28HbO,S28D28HbR,S28D28HbT,S29D29HbO,S29D29HbR,S29D29HbT,S30D30HbO,S30D30HbR,S30D30HbT,S31D31HbO,S31D31HbR,S31D31HbT,S32D32HbO,S32D32HbR,S32D32HbT,S33D33HbO,S33D33HbR,S33D33HbT,S34D34HbO,S34D34HbR,S34D34HbT,S35D35HbO,S35D35HbR,S35D35HbT,S36D36HbO,S36D36HbR,S36D36HbT,
-10,1.865712679e-05,6.773268891e-05,8.638981570e-05,-4.742739254e-04,2.725277088e-04,-2.017462166e-04,4.757003916e-04,1.563479285e-04,6.320483202e-04,-1.818936478e-04,5.419444818e-05,-1.276991996e-04,8.685443649e-05,4.786429158e-05,1.347187281e-04,-2.878350955e-04,-1.072911584e-05,-2.985642114e-04,5.310468956e-04,-9.689026800e-06,5.213578688e-04,1.052166651e-03,3.953551057e-05,1.091702161e-03,4.925760118e-04,-8.422064431e-05,4.083553675e-04,-1.174948610e-04,-1.567886958e-04,-2.742835568e-04,6.442059333e-04,-2.326181567e-04,4.115877766e-04,1.124638228e-03,-3.192551224e-04,8.053831059e-04,1.745811285e-03,-1.699956374e-04,1.575815647e-03,2.455518683e-04,-1.047747541e-04,1.407771141e-04,8.830947999e-04,-2.292789056e-04,6.538158943e-04,-6.099380144e-05,-2.022292106e-04,-2.632230121e-04,-5.725495243e-04,-7.283133941e-04,-1.300862918e-03,-5.444247756e-04,-3.451208512e-04,-8.895456268e-04,-1.208160621e-03,-4.107774210e-04,-1.618938042e-03,-9.721661522e-04,-4.426906349e-05,-1.016435216e-03,4.867859565e-04,-1.719803659e-04,3.148055907e-04,-1.522611973e-03,1.145085235e-03,-3.775267382e-04,3.373307958e-04,-6.039595221e-05,2.769348436e-04,7.807337790e-04,3.144436922e-05,8.121781482e-04,1.431873781e-03,-2.894510892e-04,1.142422691e-03,9.623650480e-04,-2.078770907e-04,7.544879573e-04,8.929447236e-04,3.785347081e-05,9.307981944e-04,4.211571800e-04,-5.086560640e-04,-8.749888397e-05,8.674914392e-05,-1.053803339e-04,-1.863118998e-05,-6.840397454e-04,-4.984127054e-04,-1.182452451e-03,-3.123803666e-04,-9.806938033e-04,-1.293074170e-03,-1.367307865e-03,-4.199284428e-04,-1.787236308e-03,-3.068831932e-05,-2.864750483e-03,-2.895438803e-03,-3.038625254e-03,-8.416970692e-04,-3.880322323e-03,-1.629832029e-03,-3.998213058e-04,-2.029653335e-03,-2.363121414e-03,-7.984971524e-04,-3.161618566e-03
-9.9,2.006587573e-05,7.022167882e-05,9.028755455e-05,-4.988730901e-04,2.726719747e-04,-2.262011154e-04,4.644594365e-04,1.597177894e-04,6.241772259e-04,-1.815763529e-04,6.141786658e-05,-1.201584863e-04,7.285005922e-05,5.327969243e-05,1.261297516e-04,-2.986165301e-04,-1.719384436e-05,-3.158103745e-04,4.943106018e-04,-8.979269655e-06,4.853313321e-04,9.874553575e-04,6.490375841e-05,1.052359116e-03,4.759541002e-04,-8.096448088e-05,3.949896194e-04,-1.472156034e-04,-1.534791589e-04,-3.006947623e-04,6.297288762e-04,-2.168427994e-04,4.128860768e-04,1.057347470e-03,-3.236934664e-04,7.336540037e-04,1.682279516e-03,-1.712648374e-04,1.511014678e-03,1.714884130e-04,-1.057807860e-04,6.570762704e-05,8.361847513e-04,-2.294622442e-04,6.067225071e-04,-1.209843867e-04,-2.034635949e-04,-3.244479816e-04,-7.124955534e-04,-7.097104141e-04,-1.422205967e-03,-5.874845616e-04,-3.447759258e-04,-9.322604874e-04,-1.237728034e-03,-4.243827884e-04,-1.662110822e-03,-9.836823826e-04,-3.908870034e-05,-1.022771083e-03,4.816775289e-04,-1.598250795e-04,3.218524494e-04,-1.514729375e-03,1.179716692e-03,-3.350126826e-04,3.433069946e-04,-5.649490398e-05,2.868120906e-04,7.762242541e-04,3.346822365e-05,8.096924778e-04,1.363660483e-03,-2.751191792e-04,1.088541304e-03,9.210123561e-04,-1.996476693e-04,7.213646868e-04,8.261695164e-04,3.105229914e-05,8.572218155e-04,3.578525715e-04,-4.881723059e-04,-1.303197344e-04,4.788641065e-05,-1.122867509e-04,-6.440034025e-05,-6.975301376e-04,-4.933634944e-04,-1.190893632e-03,-3.741656911e-04,-9.663915318e-04,-1.340557223e-03,-1.398197333e-03,-4.110135962e-04,-1.809210929e-03,-8.365833064e-05,-2.846223819e-03,-2.929882150e-03,-3.033271653e-03,-8.297624743e-04,-3.863034128e-03,-1.650464401e-03,-4.021750050e-04,-2.052639406e-03,-2.373019155e-03,-8.063887581e-04,-3.179407913e-03
-9.8,2.152246366e-05,7.288184322e-05,9.440430688e-05,-5.230665475e-04,2.732900183e-04,-2.497765292e-04,4.540899535e-04,1.630649028e-04,6.171548563e-04,-1.810242380e-04,6.849762327e-05,-1.125266147e-04,6.047215775e-05,5.856444406e-05,1.190366018e-04,-3.095240055e-04,-2.340535502e-05,-3.329293605e-04,4.577747258e-04,-8.235940050e-06,4.495387857e-04,9.215997403e-04,9.105832134e-05,1.012658062e-03,4.593387981e-04,-7.786912209e-05,3.814696761e-04,-1.761714292e-04,-1.502880570e-04,-3.264594862e-04,6.158759675e-04,-2.009994855e-04,4.148764819e-04,9.888896734e-04,-3.258487393e-04,6.630409341e-04,1.617368282e-03,-1.712176480e-04,1.446150634e-03,9.714989601e-05,-1.072380946e-04,-1.008819857e-05,7.895302631e-04,-2.293508428e-04,5.601794202e-04,-1.806512160e-04,-2.041298560e-04,-3.847810720e-04,-8.504410765e-04,-6.927145571e-04,-1.543155634e-03,-6.296990326e-04,-3.436582621e-04,-9.733572948e-04,-1.265751346e-03,-4.364619874e-04,-1.702213334e-03,-9.936389092e-04,-3.491434562e-05,-1.028553255e-03,4.759309659e-04,-1.475620853e-04,3.283688806e-04,-1.498345497e-03,1.202656400e-03,-2.956890968e-04,3.494054675e-04,-5.222862971e-05,2.971768378e-04,7.720093472e-04,3.482889172e-05,8.068382389e-04,1.297024918e-03,-2.606969437e-04,1.036327974e-03,8.800679117e-04,-1.915754539e-04,6.884924578e-04,7.607933659e-04,2.234205913e-05,7.831354250e-04,2.952814489e-04,-4.666334450e-04,-1.713519962e-04,9.148682596e-06,-1.195152631e-04,-1.103665805e-04,-7.120186958e-04,-4.873954651e-04,-1.199414161e-03,-4.363308569e-04,-9.519642816e-04,-1.388295138e-03,-1.430177675e-03,-4.026867673e-04,-1.832864442e-03,-1.581248264e-04,-2.807292858e-03,-2.965417685e-03,-3.027750861e-03,-8.200417597e-04,-3.847792620e-03,-1.673628692e-03,-4.024904806e-04,-2.076119173e-03,-2.388376469e-03,-8.103869153e-04,-3.198763384e-03
-9.7,2.309839078e-05,7.572744133e-05,9.882583211e-05,-5.466580796e-04,2.743449114e-04,-2.723131682e-04,4.446324457e-04,1.663700761e-04,6.110025218e-04,-1.802426342e-04,7.539743915e-05,-1.048451950e-04,4.980579459e-05,6.372857460e-05,1.135343692e-04,-3.205590674e-04,-2.924336646e-05,-3.498024339e-04,4.215971524e-04,-7.464166462e-06,4.141329859e-04,8.549464009e-04,1.177207003e-04,9.726671012e-04,4.427918915e-04,-7.492224411e-05,3.678696474e-04,-2.041957126e-04,-1.472187811e-04,-3.514144937e-04,6.026976397e-04,-1.851257467e-04,4.175718930e-04,9.194178959e-04,-3.257612779e-04,5.936566180e-04,1.551262180e-03,-1.698424296e-04,1.381419750e-03,2.286766318e-05,-1.092085427e-04,-8.634087948e-05,7.432235970e-04,-2.288565811e-04,5.143670159e-04,-2.398633492e-04,-2.042038128e-04,-4.440671621e-04,-9.853422378e-04,-6.775739166e-04,-1.662916154e-03,-6.708715152e-04,-3.418063084e-04,-1.012677824e-03,-1.292189501e-03,-4.469347911e-04,-1.739124293e-03,-1.001956774e-03,-3.173440193e-05,-1.033691175e-03,4.696845451e-04,-1.352154486e-04,3.344690965e-04,-1.473772276e-03,1.214090530e-03,-2.596817462e-04,3.556282241e-04,-4.762736380e-05,3.080008603e-04,7.680679410e-04,3.560361430e-05,8.036715553e-04,1.232248275e-03,-2.461782345e-04,9.860700403e-04,8.396844222e-04,-1.836214508e-04,6.560629714e-04,6.969784800e-04,1.188103689e-05,7.088595169e-04,2.336325115e-04,-4.441642165e-04,-2.105317050e-04,-2.930585896e-05,-1.270853267e-04,-1.563911857e-04,-7.273884130e-04,-4.804664903e-04,-1.207854903e-03,-4.988263045e-04,-9.373921393e-04,-1.436218444e-03,-1.462980640e-03,-3.950662772e-04,-1.858046918e-03,-2.530601224e-04,-2.748704350e-03,-3.001764472e-03,-3.022068821e-03,-8.125206662e-04,-3.834589487e-03,-1.699147203e-03,-4.006454752e-04,-2.099792678e-03,-2.408868753e-03,-8.107659652e-04,-3.219634718e-03
-9.6,2.485988727e-05,7.877007356e-05,1.036299608e-04,-5.694519532e-04,2.757946679e-04,-2.936572853e-04,4.361196171e-04,1.696153933e-04,6.057350105e-04,-1.792375579e-04,8.208217189e-05,-9.715538602e-05,4.092746904e-05,6.878206779e-05,1.097095368e-04,-3.317071532e-04,-3.459156672e-05,-3.662987199e-04,3.859390739e-04,-6.669125445e-06,3.792699484e-04,7.878501271e-04,1.445932544e-04,9.324433815e-04,4.263732334e-04,-7.211091359e-05,3.542623198e-04,-2.311369187e-04,-1.442712881e-04,-3.754082068e-04,5.902363817e-04,-1.692596435e-04,4.209767382e-04,8.491096760e-04,-3.235217154e-04,5.255879606e-04,1.484162345e-03,-1.671530935e-04,1.317009251e-03,-5.102973764e-05,-1.117493295e-04,-1.627790671e-04,6.973394843e-04,-2.278906665e-04,4.694488178e-04,-2.984899537e-04,-2.036739858e-04,-5.021639395e-04,-1.116227731e-03,-6.644431506e-04,-1.780670882e-03,-7.108152789e-04,-3.392709762e-04,-1.050086255e-03,-1.317011181e-03,-4.557621241e-04,-1.772773305e-03,-1.008571524e-03,-2.953174650e-05,-1.038103270e-03,4.630733607e-04,-1.228115101e-04,3.402618506e-04,-1.441444990e-03,1.214339917e-03,-2.271050737e-04,3.619736950e-04,-4.272281612e-05,3.192508788e-04,7.643656789e-04,3.588596377e-05,8.002516427e-04,1.169576012e-03,-2.315683179e-04,9.380076940e-04,8.000028890e-04,-1.757411969e-04,6.242616921e-04,6.348503337e-04,-1.435463482e-07,6.347067873e-04,1.730617019e-04,-4.209027344e-04,-2.478410325e-04,-6.732369746e-05,-1.350037835e-04,-2.023274810e-04,-7.435181703e-04,-4.725375032e-04,-1.216055674e-03,-5.615891835e-04,-9.226472029e-04,-1.484236386e-03,-1.496357238e-03,-3.882113910e-04,-1.884568629e-03,-3.671350488e-04,-2.671451145e-03,-3.038586194e-03,-3.016264063e-03,-8.071186108e-04,-3.823382674e-03,-1.726797845e-03,-3.965380382e-04,-2.123335883e-03,-2.434123272e-03,-8.078420321e-04,-3.241965304e-03
-9.5,2.686699717e-05,8.201834145e-05,1.088853386e-04,-5.912588812e-04,2.775974388e-04,-3.136614424e-04,4.285766070e-04,1.727845202e-04,6.013611272e-04,-1.780158671e-04,8.851813551e-05,-8.949773156e-05,3.390500951e-05,7.373481015e-05,1.076398197e-04,-3.429387897e-04,-3.933799255e-05,-3.822767822e-04,3.509628824e-04,-5.855141767e-06,3.451077406e-04,7.206726413e-04,1.713618143e-04,8.920344556e-04,4.101412433e-04,-6.942171242e-05,3.407195309e-04,-2.568594132e-04,-1.414417657e-04,-3.983011789e-04,5.785259497e-04,-1.534395230e-04,4.250864267e-04,7.781670506e-04,-3.192662814e-04,4.589007692e-04,1.416282410e-03,-1.631888485e-04,1.253093562e-03,-1.242203622e-04,-1.149089094e-04,-2.391292716e-04,6.519372861e-04,-2.263652392e-04,4.255720469e-04,-3.563978047e-04,-2.025427147e-04,-5.589405194e-04,-1.242212946e-03,-6.533812465e-04,-1.895594193e-03,-7.493568861e-04,-3.361137417e-04,-1.085470628e-03,-1.340198653e-03,-4.629423030e-04,-1.803140956e-03,-1.013434146e-03,-2.828303239e-05,-1.041717178e-03,4.562271526e-04,-1.103784712e-04,3.458486813e-04,-1.401898708e-03,1.203833457e-03,-1.980652515e-04,3.684366219e-04,-3.754775567e-05,3.308888663e-04,7.608553870e-04,3.578434955e-05,7.966397365e-04,1.109217564e-03,-2.168894455e-04,8.923281189e-04,7.611529380e-04,-1.678872177e-04,5.932657203e-04,5.745016792e-04,-1.351846729e-05,5.609832119e-04,1.136992393e-04,-3.970021747e-04,-2.833029354e-04,-1.047582987e-04,-1.432645913e-04,-2.480228900e-04,-7.602857288e-04,-4.635715823e-04,-1.223857311e-03,-6.245412732e-04,-9.076945570e-04,-1.532235830e-03,-1.530078976e-03,-3.821166850e-04,-1.912195661e-03,-4.987251482e-04,-2.576749952e-03,-3.075475100e-03,-3.010403549e-03,-8.036941113e-04,-3.814097661e-03,-1.756311830e-03,-3.900998279e-04,-2.146411658e-03,-2.463725482e-03,-8.019615163e-04,-3.265686998e-03
-9.4,2.917286876e-05,8.547728581e-05,1.146501546e-04,-6.119014260e-04,2.797157781e-04,-3.321856479e-04,4.220213457e-04,1.758629592e-04,5.978843048e-04,-1.765851904e-04,9.467337907e-05,-8.191181132e-05,2.879729085e-05,7.859649471e-05,1.073937856e-04,-3.542114871e-04,-4.337516798e-05,-3.975866551e-04,3.168295139e-04,-5.024732003e-06,3.118047819e-04,6.537812795e-04,1.976995466e-04,8.514808260e-04,3.941528318e-04,-6.684081487e-05,3.273120169e-04,-2.812442640e-04,-1.387224047e-04,-4.199666686e-04,5.675905443e-04,-1.377037136e-04,4.298868307e-04,7.068135894e-04,-3.131694492e-04,3.936441403e-04,1.347843820e-03,-1.580134549e-04,1.189830365e-03,-1.963934930e-04,-1.187230719e-04,-3.151165649e-04,6.070631793e-04,-2.241952993e-04,3.828678800e-04,-4.134492452e-04,-2.008266245e-04,-6.142758696e-04,-1.362512422e-03,-6.443524876e-04,-2.006864910e-03,-7.863400402e-04,-3.324038784e-04,-1.118743919e-03,-1.361750200e-03,-4.685060211e-04,-1.830256221e-03,-1.016512564e-03,-2.795783934e-05,-1.044470403e-03,4.492680304e-04,-9.794603233e-05,3.513219981e-04,-1.355744715e-03,1.183083201e-03,-1.726615145e-04,3.750074995e-04,-3.213567294e-05,3.428718266e-04,7.574774128e-04,3.541976094e-05,7.928971737e-04,1.051348099e-03,-2.021876786e-04,8.491604208e-04,7.232531443e-04,-1.600118704e-04,5.632412740e-04,5.159943555e-04,-2.800524144e-05,4.879891141e-04,5.565509692e-05,-3.726303917e-04,-3.169752947e-04,-1.414719754e-04,-1.518495604e-04,-2.933215358e-04,-7.775710858e-04,-4.535327600e-04,-1.231103846e-03,-6.875888195e-04,-8.924928471e-04,-1.580081667e-03,-1.563938815e-03,-3.767122498e-04,-1.940651065e-03,-6.459212304e-04,-2.466019849e-03,-3.111941079e-03,-3.004577388e-03,-8.020539208e-04,-3.806631309e-03,-1.787375721e-03,-3.813057858e-04,-2.168681506e-03,-2.497223138e-03,-7.934924906e-04,-3.290715629e-03
-9.3,3.182260649e-05,8.914771998e-05,1.209703265e-04,-6.312189693e-04,2.821193330e-04,-3.490996363e-04,4.164644023e-04,1.788383231e-04,5.953027255e-04,-1.749542840e-04,1.005180071e-04,-7.443627684e-05,2.565300582e-05,8.337656195e-05,1.090295678e-04,-3.654721819e-04,-4.660049302e-05,-4.120726749e-04,2.836949158e-04,-4.177654282e-06,2.795172615e-04,5.875469911e-04,2.232716641e-04,8.108186552e-04,3.784623331e-04,-6.435403300e-05,3.141083001e-04,-3.041904634e-04,-1.361012459e-04,-4.402917094e-04,5.574436150e-04,-1.220901811e-04,4.353534339e-04,6.352879448e-04,-3.054351647e-04,3.298527801e-04,1.279070346e-03,-1.517145083e-04,1.127355838e-03,-2.672554718e-04,-1.232121699e-04,-3.904676417e-04,5.627516681e-04,-2.213007882e-04,3.414508799e-04,-4.695023433e-04,-1.985561915e-04,-6.680585348e-04,-1.476451128e-03,-6.372303425e-04,-2.113681470e-03,-8.216297825e-04,-3.282156408e-04,-1.149845423e-03,-1.381682255e-03,-4.725107713e-04,-1.854193026e-03,-1.017794237e-03,-2.851749223e-05,-1.046311729e-03,4.423077843e-04,-8.554515616e-05,3.567626282e-04,-1.303649533e-03,1.152663513e-03,-1.509860207e-04,3.816713173e-04,-2.652043245e-05,3.551508849e-04,7.541593816e-04,3.492331639e-05,7.890826980e-04,9.961083418e-04,-1.875381046e-04,8.085702372e-04,6.864103059e-04,-1.520703698e-04,5.343399361e-04,4.593567871e-04,-4.333909155e-05,4.160176955e-04,-9.774635559e-07,-3.479682070e-04,-3.489456705e-04,-1.773374841e-04,-1.607299735e-04,-3.380674575e-04,-7.952602074e-04,-4.423855799e-04,-1.237645787e-03,-7.506233385e-04,-8.769957691e-04,-1.627619108e-03,-1.597751675e-03,-3.718702084e-04,-1.969621883e-03,-8.065514467e-04,-2.340862285e-03,-3.147413732e-03,-2.998893317e-03,-8.019644084e-04,-3.800857725e-03,-1.819636737e-03,-3.701804021e-04,-2.189817139e-03,-2.534128504e-03,-7.828208561e-04,-3.316949360e-03
-9.2,3.485142537e-05,9.302563526e-05,1.278770606e-04,-6.490723537e-04,2.847859839e-04,-3.642863698e-04,4.119080477e-04,1.817006405e-04,5.936086883e-04,-1.731340951e-04,1.060245264e-04,-6.710956870e-05,2.450830291e-05,8.808420998e-05,1.125925129e-04,-3.766599331e-04,-4.891771394e-05,-4.255776470e-04,2.517057663e-04,-3.310051617e-06,2.483957147e-04,5.223419588e-04,2.477399450e-04,7.700819037e-04,3.631195538e-04,-6.194683950e-05,3.011727143e-04,-3.256165425e-04,-1.335621707e-04,-4.591787132e-04,5.480862593e-04,-1.066361579e-04,4.414501014e-04,5.638350106e-04,-2.962879258e-04,2.675470848e-04,1.210181509e-03,-1.444020980e-04,1.065779411e-03,-3.365361075e-04,-1.283800898e-04,-4.649161973e-04,5.190264534e-04,-2.176086555e-04,3.014177979e-04,-5.244134751e-04,-1.957747583e-04,-7.201882333e-04,-1.583473313e-03,-6.318051727e-04,-2.215278486e-03,-8.551165919e-04,-3.236259607e-04,-1.178742553e-03,-1.400032234e-03,-4.750346923e-04,-1.875066926e-03,-1.017289755e-03,-2.991349563e-05,-1.047203250e-03,4.354446714e-04,-7.320780442e-05,3.622368670e-04,-1.246315755e-03,1.113192761e-03,-1.331229944e-04,3.884057788e-04,-2.073584042e-05,3.676699384e-04,7.508155868e-04,3.443375689e-05,7.852493437e-04,9.436006035e-04,-1.730463335e-04,7.705542700e-04,6.507171196e-04,-1.440235368e-04,5.066935828e-04,4.045770486e-04,-5.922767474e-05,3.453493739e-04,-5.612003537e-05,-3.232068428e-04,-3.793268782e-04,-2.122397871e-04,-1.698685424e-04,-3.821083294e-04,-8.132484150e-04,-4.300964071e-04,-1.243344822e-03,-8.135217924e-04,-8.611558466e-04,-1.674677639e-03,-1.631352827e-03,-3.674173505e-04,-1.998770177e-03,-9.782197933e-04,-2.203040920e-03,-3.181260714e-03,-2.993470471e-03,-8.031639613e-04,-3.796634433e-03,-1.852709314e-03,-3.568024845e-04,-2.209511798e-03,-2.573920657e-03,-7.703491543e-04,-3.344269811e-03
-9.1,3.828238009e-05,9.710174925e-05,1.353841293e-04,-6.653479201e-04,2.877017198e-04,-3.776462004e-04,4.083446821e-04,1.844426258e-04,5.927873078e-04,-1.711393519e-04,1.111681683e-04,-5.997118359e-05,2.538368464e-05,9.272842239e-05,1.181121070e-04,-3.877086049e-04,-5.023983533e-05,-4.379484402e-04,2.209949775e-04,-2.413807018e-06,2.185811705e-04,4.585375815e-04,2.707660500e-04,7.293036315e-04,3.481674377e-04,-5.960434761e-05,2.885630901e-04,-3.454622564e-04,-1.310850203e-04,-4.765472767e-04,5.395054783e-04,-9.137771166e-05,4.481277666e-04,4.926963746e-04,-2.859643907e-04,2.067319840e-04,1.141384853e-03,-1.362056963e-04,1.005179157e-03,-4.039945738e-04,-1.342146100e-04,-5.382091838e-04,4.759010378e-04,-2.130547031e-04,2.628463347e-04,-5.780416553e-04,-1.925370933e-04,-7.705787486e-04,-1.683146747e-03,-6.277972974e-04,-2.310944044e-03,-8.867195487e-04,-3.187129450e-04,-1.205432494e-03,-1.416861754e-03,-4.761699761e-04,-1.893031730e-03,-1.015036838e-03,-3.208570744e-05,-1.047122545e-03,4.287599442e-04,-6.096651211e-05,3.677934321e-04,-1.184462610e-03,1.065315240e-03,-1.191473701e-04,3.951794890e-04,-1.481514163e-05,3.803643474e-04,7.473466772e-04,3.409460401e-05,7.814412812e-04,8.938821590e-04,-1.588461977e-04,7.350359613e-04,6.162486153e-04,-1.358399606e-04,4.804086547e-04,3.515934021e-04,-7.535152139e-05,2.762418807e-04,-1.097080746e-04,-2.985449074e-04,-4.082529820e-04,-2.460784631e-04,-1.792211993e-04,-4.252996624e-04,-8.314426167e-04,-4.166363411e-04,-1.248078958e-03,-8.761454234e-04,-8.449305550e-04,-1.721075978e-03,-1.664593484e-03,-3.631520027e-04,-2.027745487e-03,-1.158362070e-03,-2.054456355e-03,-3.212818425e-03,-2.988431672e-03,-8.053762234e-04,-3.793807895e-03,-1.886181981e-03,-3.413086358e-04,-2.227490617e-03,-2.616049893e-03,-7.564936491e-04,-3.372543542e-03
-9,4.212429985e-05,1.013611775e-04,1.434854773e-04,-6.799603664e-04,2.908596077e-04,-3.891007587e-04,4.057551471e-04,1.870598283e-04,5.928149754e-04,-1.689902003e-04,1.159272062e-04,-5.306299410e-05,2.828099090e-05,9.731795634e-05,1.255989472e-04,-3.985492385e-04,-5.049302006e-05,-4.490422585e-04,1.916777652e-04,-1.476187099e-06,1.902015781e-04,3.965029490e-04,2.920136542e-04,6.885166032e-04,3.336401413e-04,-5.731124827e-05,2.763288930e-04,-3.636898110e-04,-1.286457305e-04,-4.923355415e-04,5.316728171e-04,-7.634923052e-05,4.553235865e-04,4.221016772e-04,-2.747056190e-04,1.473960582e-04,1.072868246e-03,-1.272689890e-04,9.455992574e-04,-4.694236223e-04,-1.406883813e-04,-6.101120036e-04,4.333795861e-04,-2.075850421e-04,2.257945440e-04,-6.302538226e-04,-1.889070222e-04,-8.191608448e-04,-1.775161243e-03,-6.248755471e-04,-2.400036790e-03,-9.163877067e-04,-3.135550472e-04,-1.229942754e-03,-1.432258492e-03,-4.760168040e-04,-1.908275296e-03,-1.011103647e-03,-3.496077914e-05,-1.046064426e-03,4.223148069e-04,-4.885390784e-05,3.734608991e-04,-1.118805782e-03,1.009683334e-03,-1.091224475e-04,4.019508103e-04,-8.790529263e-06,3.931602810e-04,7.436405529e-04,3.405051452e-05,7.776910675e-04,8.469584361e-04,-1.450943894e-04,7.018640467e-04,5.830585654e-04,-1.274974172e-04,4.555611483e-04,3.002857001e-04,-9.136745154e-05,2.089182485e-04,-1.616895655e-04,-2.741853626e-04,-4.358749281e-04,-2.787706201e-04,-1.887385514e-04,-4.675091715e-04,-8.497617858e-04,-4.019847900e-04,-1.251746576e-03,-9.383375661e-04,-8.282895698e-04,-1.766627136e-03,-1.697333901e-03,-3.588626721e-04,-2.056196573e-03,-1.344315181e-03,-1.897112453e-03,-3.241427634e-03,-2.983894499e-03,-8.083240401e-04,-3.792218539e-03,-1.919624972e-03,-3.238928305e-04,-2.243517803e-03,-2.659944128e-03,-7.416780740e-04,-3.401622202e-03
-8.9,4.637061598e-05,1.057832318e-04,1.521538478e-04,-6.928536675e-04,2.942580772e-04,-3.985955903e-04,4.041076592e-04,1.895506209e-04,5.936582800e-04,-1.667132893e-04,1.202833215e-04,-4.642996779e-05,3.318149199e-05,1.018612944e-04,1.350427864e-04,-4.091120560e-04,-4.962025506e-05,-4.587323111e-04,1.638491111e-04,-4.797690418e-07,1.633693420e-04,3.366032513e-04,3.111503164e-04,6.477535677e-04,3.195623853e-04,-5.505177541e-05,2.645106099e-04,-3.802839701e-04,-1.262164322e-04,-5.065004023e-04,5.245440392e-04,-6.158288908e-05,4.629611501e-04,3.522622461e-04,-2.627499724e-04,8.951227379e-05,1.004794027e-03,-1.177432704e-04,8.870507564e-04,-5.326510315e-04,-1.477601648e-04,-6.804111963e-04,3.914587366e-04,-2.011572493e-04,1.903014873e-04,-6.809299180e-04,-1.849539503e-04,-8.658838683e-04,-1.859323048e-03,-6.226781699e-04,-2.482001217e-03,-9.440993032e-04,-3.082304263e-04,-1.252329729e-03,-1.446334890e-03,-4.746788617e-04,-1.921013752e-03,-1.005590013e-03,-3.845180106e-05,-1.044041814e-03,4.161486212e-04,-3.690241402e-05,3.792462072e-04,-1.050037676e-03,9.469418003e-04,-1.030958762e-04,4.086680217e-04,-2.692743981e-06,4.059752777e-04,7.395753462e-04,3.444248422e-05,7.740178304e-04,8.027783059e-04,-1.319625813e-04,6.708157246e-04,5.511774397e-04,-1.189834849e-04,4.321939548e-04,2.504715975e-04,-1.069150341e-04,1.435565634e-04,-2.120222364e-04,-2.503323915e-04,-4.623546279e-04,-3.102533507e-04,-1.983670311e-04,-5.086203818e-04,-8.681352489e-04,-3.861330321e-04,-1.254268281e-03,-9.999212488e-04,-8.112212989e-04,-1.811142548e-03,-1.729433879e-03,-3.543470890e-04,-2.083780967e-03,-1.533391107e-03,-1.733075913e-03,-3.266467019e-03,-2.979962442e-03,-8.117427642e-04,-3.791705206e-03,-1.952599092e-03,-3.047995207e-04,-2.257398612e-03,-2.705015494e-03,-7.263260540e-04,-3.431341548e-03
-8.8,5.099950823e-05,1.103414051e-04,1.613409133e-04,-7.039993805e-04,2.978984517e-04,-4.061009288e-04,4.033579550e-04,1.919160186e-04,5.952739737e-04,-1.643417835e-04,1.242220106e-04,-4.011977291e-05,4.004581020e-05,1.063665730e-04,1.464123832e-04,-4.193284868e-04,-4.758331565e-05,-4.669118024e-04,1.375830784e-04,5.973775668e-07,1.381804560e-04,2.791977994e-04,3.278499997e-04,6.070477992e-04,3.059505038e-04,-5.280980133e-05,2.531407024e-04,-3.952506269e-04,-1.237656260e-04,-5.190162529e-04,5.180602382e-04,-4.710822013e-05,4.709520181e-04,2.833675547e-04,-2.503267476e-04,3.304080717e-05,9.372961510e-04,-1.077801857e-04,8.295159654e-04,-5.935379822e-04,-1.553763797e-04,-7.489143619e-04,3.501308359e-04,-1.937414593e-04,1.563893766e-04,-7.299662163e-04,-1.807489542e-04,-9.107151705e-04,-1.935548361e-03,-6.208309625e-04,-2.556379323e-03,-9.698589044e-04,-3.028161244e-04,-1.272675029e-03,-1.459223232e-03,-4.722605477e-04,-1.931483780e-03,-9.986257618e-04,-4.245966144e-05,-1.041085423e-03,4.102788182e-04,-2.514418008e-05,3.851346382e-04,-9.788106625e-04,8.777175768e-04,-1.010930858e-04,4.152709204e-04,3.449212064e-06,4.187201325e-04,7.350244274e-04,3.540236161e-05,7.704267890e-04,7.612331441e-04,-1.196277150e-04,6.416054292e-04,5.206129482e-04,-1.102954931e-04,4.103174552e-04,2.019107615e-04,-1.216259553e-04,8.028480619e-05,-2.606688549e-04,-2.271879222e-04,-4.878567771e-04,-3.404847697e-04,-2.080498150e-04,-5.485345846e-04,-8.864987165e-04,-3.690874663e-04,-1.255586183e-03,-1.060697634e-03,-7.937371533e-04,-1.854434787e-03,-1.760741235e-03,-3.494305125e-04,-2.110171748e-03,-1.722944794e-03,-1.564433494e-03,-3.287378288e-03,-2.976717425e-03,-8.153910454e-04,-3.792108470e-03,-1.984665849e-03,-2.843108124e-04,-2.268976661e-03,-2.750665802e-03,-7.108542217e-04,-3.461520023e-03
-8.7,5.597531758e-05,1.150035607e-04,1.709788783e-04,-7.133924405e-04,3.017816384e-04,-4.116108022e-04,4.034506403e-04,1.941593089e-04,5.976099492e-04,-1.619141656e-04,1.277329492e-04,-3.418121639e-05,4.881547835e-05,1.108414360e-04,1.596569143e-04,-4.291337411e-04,-4.436223039e-05,-4.734959715e-04,1.129336500e-04,1.781280498e-06,1.147149305e-04,2.246374709e-04,3.417968899e-04,5.664343608e-04,2.928146816e-04,-5.056908943e-05,2.422455922e-04,-4.086141109e-04,-1.212585627e-04,-5.298726736e-04,5.121501726e-04,-3.295185187e-05,4.791983207e-04,2.155838558e-04,-2.376508429e-04,-2.206698709e-05,8.704800298e-04,-9.752448656e-05,7.729555433e-04,-6.519755568e-04,-1.634729504e-04,-8.154485072e-04,3.093882064e-04,-1.853215227e-04,1.240666837e-04,-7.772760738e-04,-1.763614272e-04,-9.536375010e-04,-2.003858131e-03,-6.189596351e-04,-2.622817766e-03,-9.936929033e-04,-2.973869635e-04,-1.291079867e-03,-1.471067996e-03,-4.688652720e-04,-1.939933268e-03,-9.903665260e-04,-4.687566432e-05,-1.037242190e-03,4.047022932e-04,-1.361105100e-05,3.910912422e-04,-9.057269427e-04,8.026188491e-04,-1.031080935e-04,4.216932939e-04,9.608258636e-06,4.313015526e-04,7.298620048e-04,3.704797154e-05,7.669099763e-04,7.221596781e-04,-1.082608308e-04,6.138988473e-04,4.913528011e-04,-1.014399462e-04,3.899128549e-04,1.543177651e-04,-1.351365018e-04,1.918126326e-05,-3.075914217e-04,-2.049480206e-04,-5.125394423e-04,-3.694435099e-04,-2.177275957e-04,-5.871711056e-04,-9.047888754e-04,-3.508722627e-04,-1.255661138e-03,-1.120446459e-03,-7.758729756e-04,-1.896319435e-03,-1.791080619e-03,-3.439810310e-04,-2.135061650e-03,-1.910428165e-03,-1.393250556e-03,-3.303678721e-03,-2.974213929e-03,-8.190586784e-04,-3.793272608e-03,-2.015398747e-03,-2.627310422e-04,-2.278129789e-03,-2.796291650e-03,-6.956658722e-04,-3.491957522e-03
-8.6,6.125074149e-05,1.197322182e-04,1.809829597e-04,-7.210457746e-04,3.059042179e-04,-4.151415567e-04,4.043210775e-04,1.962854805e-04,6.006065580e-04,-1.594722335e-04,1.308102325e-04,-2.866200101e-05,5.941506423e-05,1.152927386e-04,1.747078029e-04,-4.384701359e-04,-3.995262313e-05,-4.784227590e-04,8.993617283e-05,3.101447011e-06,9.303761984e-05,1.732608634e-04,3.526908631e-04,5.259517264e-04,2.801612348e-04,-4.831361809e-05,2.318476167e-04,-4.204140229e-04,-1.186578881e-04,-5.390719110e-04,5.067330858e-04,-1.913734690e-05,4.875957389e-04,1.490535099e-04,-2.249189032e-04,-7.586539336e-05,8.044238848e-04,-8.710752250e-05,7.173163623e-04,-7.078815499e-04,-1.719771417e-04,-8.798586916e-04,2.692272572e-04,-1.758962063e-04,9.333105090e-05,-8.227886723e-04,-1.718569590e-04,-9.946456313e-04,-2.064373143e-03,-6.166978356e-04,-2.681070978e-03,-1.015644151e-03,-2.920141537e-04,-1.307658304e-03,-1.482016869e-03,-4.645942313e-04,-1.946611101e-03,-9.809882418e-04,-5.158453518e-05,-1.032572777e-03,3.993975866e-04,-2.334367665e-06,3.970632189e-04,-8.313371225e-04,7.222432193e-04,-1.090939032e-04,4.278653328e-04,1.575934184e-05,4.436246746e-04,7.239676143e-04,3.947984447e-05,7.634474587e-04,6.853443323e-04,-9.801428086e-05,5.873300514e-04,4.633680139e-04,-9.243139389e-05,3.709366200e-04,1.073812109e-04,-1.471027195e-04,-3.972150860e-05,-3.527461301e-04,-1.837994866e-04,-5.365456166e-04,-3.971273221e-04,-2.273392713e-04,-6.244665935e-04,-9.229380029e-04,-3.315313909e-04,-1.254469394e-03,-1.178929432e-03,-7.576876405e-04,-1.936617072e-03,-1.820245494e-03,-3.379192121e-04,-2.158164706e-03,-2.093429594e-03,-1.221533080e-03,-3.314962674e-03,-2.972474130e-03,-8.225726611e-04,-3.795046792e-03,-2.044395489e-03,-2.403721358e-04,-2.284767625e-03,-2.841291135e-03,-6.811440433e-04,-3.522435178e-03
-8.5,6.676915444e-05,1.244848206e-04,1.912539751e-04,-7.269856507e-04,3.102545939e-04,-4.167310568e-04,4.058969763e-04,1.983005093e-04,6.041974856e-04,-1.570590025e-04,1.334524925e-04,-2.360651002e-05,7.175369536e-05,1.197261177e-04,1.914798130e-04,-4.472908788e-04,-3.436223281e-05,-4.816531116e-04,6.860871314e-05,4.589977301e-06,7.319869044e-05,1.253883471e-04,3.602543861e-04,4.856427333e-04,2.679940081e-04,-4.602786592e-05,2.219661422e-04,-4.307023055e-04,-1.159245606e-04,-5.466268661e-04,5.017212685e-04,-5.685040831e-06,4.960362276e-04,8.389324298e-05,-2.123067770e-04,-1.284135340e-04,7.391806870e-04,-7.664247820e-05,6.625382088e-04,-7.611991730e-04,-1.808089234e-04,-9.420080963e-04,2.296512380e-04,-1.654802426e-04,6.417099534e-05,-8.664472898e-04,-1.672965219e-04,-1.033743812e-03,-2.117306632e-03,-6.136944729e-04,-2.731001105e-03,-1.035766541e-03,-2.867639809e-04,-1.322530522e-03,-1.492211789e-03,-4.595453449e-04,-1.951757134e-03,-9.706815786e-04,-5.646714795e-05,-1.027148727e-03,3.943272104e-04,8.655389691e-06,4.029826001e-04,-7.561453785e-04,6.371895187e-04,-1.189558598e-04,4.337152920e-04,2.187948687e-05,4.555947789e-04,7.172289294e-04,4.277944755e-05,7.600083769e-04,6.505262775e-04,-8.900824996e-05,5.615180276e-04,4.366151577e-04,-8.329079670e-05,3.533243610e-04,6.078476441e-05,-1.572165323e-04,-9.643176792e-05,-3.960805831e-04,-1.639168989e-04,-5.599974820e-04,-4.235516904e-04,-2.368224816e-04,-6.603741720e-04,-9.408696453e-04,-3.111304676e-04,-1.252000113e-03,-1.235896671e-03,-7.392591815e-04,-1.975155853e-03,-1.847994964e-03,-3.312207631e-04,-2.179215727e-03,-2.269703098e-03,-1.051195671e-03,-3.320898769e-03,-2.971484550e-03,-8.258019604e-04,-3.797286510e-03,-2.071289444e-03,-2.175419529e-04,-2.288831397e-03,-2.885073338e-03,-6.676434888e-04,-3.552716826e-03
-8.4,7.246646854e-05,1.292140526e-04,2.016805211e-04,-7.312489698e-04,3.148099662e-04,-4.164390036e-04,4.080991770e-04,2.002106159e-04,6.083097929e-04,-1.547171141e-04,1.356629631e-04,-1.905415104e-05,8.572541527e-05,1.241455305e-04,2.098709458e-04,-4.555638198e-04,-2.760795823e-05,-4.831717780e-04,4.895315680e-05,6.280327136e-06,5.523348394e-05,8.131401646e-05,3.642403740e-04,4.455543904e-04,2.563146510e-04,-4.369702753e-05,2.126176235e-04,-4.395408296e-04,-1.130190331e-04,-5.525598628e-04,4.970219869e-04,7.388137314e-06,5.044101242e-04,2.019031348e-05,-1.999675488e-04,-1.797772353e-04,6.747804688e-04,-6.622242039e-05,6.085580484e-04,-8.118977083e-04,-1.898816301e-04,-1.001779338e-03,1.906711564e-04,-1.541049632e-04,3.656619316e-05,-9.082085881e-04,-1.627363531e-04,-1.070944941e-03,-2.162952918e-03,-6.096228704e-04,-2.772575788e-03,-1.054120113e-03,-2.816973286e-04,-1.335817442e-03,-1.501781484e-03,-4.538123839e-04,-1.955593868e-03,-9.596470790e-04,-6.140267919e-05,-1.021049758e-03,3.894397807e-04,1.932897402e-05,4.087687547e-04,-6.806171736e-04,5.480672629e-04,-1.325499107e-04,4.391702121e-04,2.794783463e-05,4.671180467e-04,7.095434589e-04,4.700824982e-05,7.565517088e-04,6.173979310e-04,-8.131899024e-05,5.360789407e-04,4.110370042e-04,-7.404370474e-05,3.369932995e-04,1.422572453e-05,-1.652203845e-04,-1.509946600e-04,-4.375335521e-04,-1.454606207e-04,-5.829941728e-04,-4.487491758e-04,-2.461137441e-04,-6.948629198e-04,-9.584956090e-04,-2.897587071e-04,-1.248254316e-03,-1.291095189e-03,-7.206794800e-04,-2.011774669e-03,-1.874055762e-03,-3.239128372e-04,-2.197968599e-03,-2.437190970e-03,-8.840380320e-04,-3.321229002e-03,-2.971196075e-03,-8.286596617e-04,-3.799855737e-03,-2.095756911e-03,-1.945372790e-04,-2.290294190e-03,-2.927070503e-03,-6.554815926e-04,-3.582552096e-03
-8.3,7.827223567e-05,1.338683953e-04,2.121406310e-04,-7.338822844e-04,3.195344165e-04,-4.143478679e-04,4.108415863e-04,2.020215915e-04,6.128631779e-04,-1.524879838e-04,1.374495305e-04,-1.503845328e-05,1.012085111e-04,1.285528523e-04,2.297613634e-04,-4.632747814e-04,-1.971388535e-05,-4.829886668e-04,3.095609630e-05,8.205854572e-06,3.916195088e-05,4.129634570e-05,3.644407800e-04,4.057371257e-04,2.451220700e-04,-4.130719021e-05,2.038148798e-04,-4.469994621e-04,-1.099026141e-04,-5.569020762e-04,4.925387898e-04,2.006880457e-05,5.126075943e-04,-4.200251432e-05,-1.880299298e-04,-2.300324441e-04,6.112330264e-04,-5.592128103e-05,5.553117454e-04,-8.599739733e-04,-1.991022188e-04,-1.059076192e-03,1.523052430e-04,-1.418183884e-04,1.048685464e-05,-9.480432067e-04,-1.582279307e-04,-1.106271137e-03,-2.201672986e-03,-6.041921065e-04,-2.805865093e-03,-1.070767255e-03,-2.768702911e-04,-1.347637546e-03,-1.510836766e-03,-4.474847110e-04,-1.958321477e-03,-9.480911030e-04,-6.627032479e-05,-1.014361428e-03,3.846718475e-04,2.965873053e-05,4.143305780e-04,-6.051869125e-04,4.555014779e-04,-1.496854346e-04,4.441559607e-04,3.394569615e-05,4.781016569e-04,7.008199625e-04,5.220709425e-05,7.530270568e-04,5.856035550e-04,-7.497101164e-05,5.106325433e-04,3.865619165e-04,-6.471857203e-05,3.218433444e-04,-3.257166006e-05,-1.709182357e-04,-2.034898957e-04,-4.770368708e-04,-1.285761180e-04,-6.056129887e-04,-4.727697098e-04,-2.551478125e-04,-7.279175223e-04,-9.757141869e-04,-2.675306796e-04,-1.243244866e-03,-1.344277948e-03,-7.020488781e-04,-2.046326826e-03,-1.898128719e-03,-3.160660501e-04,-2.214194769e-03,-2.594041653e-03,-7.217302566e-04,-3.315771910e-03,-2.971528304e-03,-8.311007529e-04,-3.802629057e-03,-2.117517931e-03,-1.716417478e-04,-2.289159679e-03,-2.966752103e-03,-6.449286934e-04,-3.611680797e-03
-8.2,8.411018960e-05,1.383929571e-04,2.225031467e-04,-7.349415291e-04,3.243778633e-04,-4.105636658e-04,4.140306495e-04,2.037381971e-04,6.177688466e-04,-1.504114682e-04,1.388247253e-04,-1.158674291e-05,1.180644766e-04,1.329475309e-04,2.510120075e-04,-4.704299948e-04,-1.070999348e-05,-4.811399883e-04,1.458967836e-05,1.039849715e-05,2.498817551e-05,5.548693081e-06,3.606955365e-04,3.662442296e-04,2.344116908e-04,-3.884547886e-05,1.955662119e-04,-4.531544198e-04,-1.065387813e-04,-5.596932011e-04,4.881725085e-04,3.234719180e-05,5.205197003e-04,-1.026706894e-04,-1.765975191e-04,-2.792682085e-04,5.485307024e-04,-4.579644973e-05,5.027342527e-04,-9.054530270e-04,-2.083718423e-04,-1.113824869e-03,1.145778365e-04,-1.286847661e-04,-1.410692954e-05,-9.859363940e-04,-1.538182318e-04,-1.139754626e-03,-2.233879119e-03,-5.971592084e-04,-2.831038328e-03,-1.085770683e-03,-2.723351458e-04,-1.358105829e-03,-1.519468526e-03,-4.406484901e-04,-1.960117016e-03,-9.362220616e-04,-7.095103606e-05,-1.007173098e-03,3.799495385e-04,3.961905194e-05,4.195685904e-04,-5.302640159e-04,3.601331912e-04,-1.701308247e-04,4.485971771e-04,3.985662371e-05,4.884538008e-04,6.909802102e-04,5.839554824e-05,7.493757584e-04,5.547381213e-04,-6.993441143e-05,4.848037099e-04,3.631028593e-04,-5.534532481e-05,3.077575345e-04,-7.984832335e-05,-1.741818556e-04,-2.540301789e-04,-5.145190118e-04,-1.133939797e-04,-6.279129915e-04,-4.956814507e-04,-2.638560412e-04,-7.595374918e-04,-9.924095187e-04,-2.445873128e-04,-1.236996831e-03,-1.395212083e-03,-6.834715400e-04,-2.078683623e-03,-1.919898424e-03,-3.077844053e-04,-2.227682829e-03,-2.738624436e-03,-5.658043721e-04,-3.304428808e-03,-2.972376922e-03,-8.331151743e-04,-3.805492096e-03,-2.136332426e-03,-1.491262373e-04,-2.285458663e-03,-3.003639103e-03,-6.361990173e-04,-3.639838120e-03
-8.1,8.989888906e-05,1.427304046e-04,2.326292937e-04,-7.344916235e-04,3.292757626e-04,-4.052158609e-04,4.175650672e-04,2.053635954e-04,6.229286625e-04,-1.485254499e-04,1.398055857e-04,-8.719864206e-06,1.361375813e-04,1.373262644e-04,2.734638456e-04,-4.770567716e-04,-6.313948578e-07,-4.776881665e-04,-1.870088260e-07,1.288779357e-05,1.270078474e-05,-2.576877123e-05,3.529005555e-04,3.271317843e-04,2.241753807e-04,-3.630013335e-05,1.878752473e-04,-4.580865421e-04,-1.028941917e-04,-5.609807338e-04,4.838225061e-04,4.421716236e-05,5.280396684e-04,-1.618378408e-04,-1.657493173e-04,-3.275871581e-04,4.866512233e-04,-3.589132102e-05,4.507599023e-04,-9.483867047e-04,-2.175873555e-04,-1.165974060e-03,7.751859509e-05,-1.147834793e-04,-3.726488423e-05,-1.021887254e-03,-1.495506867e-04,-1.171437941e-03,-2.260020083e-03,-5.883396348e-04,-2.848359718e-03,-1.099193130e-03,-2.681406843e-04,-1.367333815e-03,-1.527746735e-03,-4.333899079e-04,-1.961136643e-03,-9.242460539e-04,-7.532979142e-05,-9.995758453e-04,3.751904598e-04,4.918695521e-05,4.243774150e-04,-4.562350117e-04,2.626148676e-04,-1.936201441e-04,4.524178715e-04,4.566643927e-05,4.980843107e-04,6.799614454e-04,6.557117771e-05,7.455326231e-04,5.243491683e-04,-6.612718362e-05,4.582219846e-04,3.405573264e-04,-4.595425125e-05,2.946030752e-04,-1.278059996e-04,-1.749526697e-04,-3.027586693e-04,-5.499096344e-04,-1.000295034e-04,-6.499391379e-04,-5.175710495e-04,-2.721642730e-04,-7.897353224e-04,-1.008451819e-03,-2.210955519e-04,-1.229547371e-03,-1.443685333e-03,-6.650513679e-04,-2.108736701e-03,-1.939044577e-03,-2.991943382e-04,-2.238238915e-03,-2.869543447e-03,-4.176475909e-04,-3.287191038e-03,-2.973621618e-03,-8.347176119e-04,-3.808339230e-03,-2.151995361e-03,-1.272484785e-04,-2.279243840e-03,-3.037315994e-03,-6.294435689e-04,-3.666759562e-03
-8,9.555318874e-05,1.468218497e-04,2.423750385e-04,-7.326053768e-04,3.341497715e-04,-3.984556053e-04,4.213365796e-04,2.068988010e-04,6.282353806e-04,-1.468646094e-04,1.404133616e-04,-6.451247760e-06,1.552560107e-04,1.416827090e-04,2.969387196e-04,-4.832014867e-04,1.048171588e-05,-4.727197708e-04,-1.342518670e-05,1.570015008e-05,2.274963381e-06,-5.255395399e-05,3.410132175e-04,2.884592635e-04,2.144028179e-04,-3.366051076e-05,1.807423072e-04,-4.618789519e-04,-9.893931798e-05,-5.608182699e-04,4.793887770e-04,5.567617728e-05,5.350649543e-04,-2.195609427e-04,-1.555412681e-04,-3.751022109e-04,4.255614886e-04,-2.623719791e-05,3.993242907e-04,-9.888492462e-04,-2.266436871e-04,-1.215492933e-03,4.116271508e-05,-1.002072688e-04,-5.904455367e-05,-1.055906326e-03,-1.454665658e-04,-1.201372892e-03,-2.280567369e-03,-5.776128141e-04,-2.858180183e-03,-1.111097623e-03,-2.643315337e-04,-1.375429157e-03,-1.535718944e-03,-4.257991849e-04,-1.961518129e-03,-9.123609509e-04,-7.929882162e-05,-9.916597725e-04,3.703065057e-04,5.834259937e-05,4.286491051e-04,-3.834593857e-04,1.635992276e-04,-2.198601581e-04,4.555432865e-04,5.136313605e-05,5.069064225e-04,6.677195831e-04,7.370909940e-05,7.414286825e-04,4.939437622e-04,-6.342092836e-05,4.305228338e-04,3.188095484e-04,-3.657534498e-05,2.822342034e-04,-1.766039024e-04,-1.732398690e-04,-3.498437713e-04,-5.831437826e-04,-8.858127778e-05,-6.717250604e-04,-5.385417674e-04,-2.799914205e-04,-8.185331879e-04,-1.023697802e-03,-1.972462670e-04,-1.220944069e-03,-1.489510735e-03,-6.468875488e-04,-2.136398284e-03,-1.955253444e-03,-2.904332627e-04,-2.245686706e-03,-2.985653085e-03,-2.784929599e-04,-3.264146045e-03,-2.975132334e-03,-8.359363554e-04,-3.811068689e-03,-2.164332277e-03,-1.062510867e-04,-2.270583364e-03,-3.067438751e-03,-6.247451831e-04,-3.692183934e-03
-7.9,1.009868668e-04,1.506077087e-04,2.515945755e-04,-7.293611950e-04,3.389093874e-04,-3.904518075e-04,4.252322895e-04,2.083421779e-04,6.335744674e-04,-1.454579500e-04,1.406730806e-04,-4.784869474e-06,1.752350011e-04,1.460072541e-04,3.212422553e-04,-4.889246424e-04,2.258335615e-05,-4.663412863e-04,-2.518198100e-05,1.885813570e-05,-6.323845299e-06,-7.476401481e-05,3.250551344e-04,2.502911195e-04,2.050844550e-04,-3.091707929e-05,1.741673757e-04,-4.646137265e-04,-9.464890250e-05,-5.592626290e-04,4.747751520e-04,6.672513086e-05,5.415002829e-04,-2.759215091e-04,-1.460082236e-04,-4.219297327e-04,3.652230268e-04,-1.685479338e-05,3.483682335e-04,-1.026930544e-03,-2.354361193e-04,-1.262366663e-03,5.552274581e-06,-8.505995824e-05,-7.950768366e-05,-1.088011950e-03,-1.416061668e-04,-1.229618117e-03,-2.296002651e-03,-5.649205315e-04,-2.860923182e-03,-1.121546895e-03,-2.609468588e-04,-1.382493754e-03,-1.543408510e-03,-4.179727956e-04,-1.961381306e-03,-9.007486807e-04,-8.276181591e-05,-9.835104966e-04,3.652079135e-04,6.706955512e-05,4.322774686e-04,-3.122604760e-04,6.372335438e-05,-2.485371216e-04,4.579030289e-04,5.693661873e-05,5.148396477e-04,6.542327578e-04,8.276228088e-05,7.369950387e-04,4.630014596e-04,-6.164797426e-05,4.013534853e-04,2.977355179e-04,-2.723816652e-05,2.704973514e-04,-2.263554413e-04,-1.691148820e-04,-3.954703233e-04,-6.141645817e-04,-7.912880267e-05,-6.932933844e-04,-5.587088069e-04,-2.872494976e-04,-8.459583045e-04,-1.037990536e-03,-1.732506786e-04,-1.211241214e-03,-1.532530139e-03,-6.290693734e-04,-2.161599512e-03,-1.968227858e-03,-2.816382520e-04,-2.249866110e-03,-3.086075057e-03,-1.494043388e-04,-3.235479396e-03,-2.976772800e-03,-8.368029531e-04,-3.813575753e-03,-2.173194409e-03,-8.635899525e-05,-2.259553404e-03,-3.093738409e-03,-6.221145968e-04,-3.715853006e-03
-7.8,1.061161362e-04,1.540285846e-04,2.601447208e-04,-7.248395903e-04,3.434541376e-04,-3.813854527e-04,4.291382268e-04,2.096890076e-04,6.388272343e-04,-1.443252756e-04,1.406130228e-04,-3.712252836e-06,1.958814251e-04,1.502868649e-04,3.461682900e-04,-4.942937864e-04,3.562039678e-05,-4.586733896e-04,-3.551505550e-05,2.237966849e-05,-1.313538702e-05,-9.241384139e-05,3.051131815e-04,2.126993402e-04,1.962152651e-04,-2.806147397e-05,1.681537911e-04,-4.663678253e-04,-9.000244547e-05,-5.563702707e-04,4.698932017e-04,7.736799198e-05,5.472611937e-04,-3.310150389e-04,-1.371657137e-04,-4.681807525e-04,3.055982997e-04,-7.755504841e-06,2.978427949e-04,-1.062728720e-03,-2.438613054e-04,-1.306590026e-03,-2.926199923e-05,-6.945396969e-05,-9.871596893e-05,-1.118226041e-03,-1.380094355e-04,-1.256235477e-03,-2.306807279e-03,-5.502584571e-04,-2.857065736e-03,-1.130601164e-03,-2.580191189e-04,-1.388620283e-03,-1.550813687e-03,-4.100125602e-04,-1.960826247e-03,-8.895668777e-04,-8.563834976e-05,-9.752052275e-04,3.598081617e-04,7.535486587e-05,4.351630275e-04,-2.429163157e-04,-3.640605097e-05,-2.793223667e-04,4.594347489e-04,6.237832935e-05,5.218130782e-04,6.395043946e-04,9.266276817e-05,7.321671628e-04,4.309922655e-04,-6.060841140e-05,3.703838541e-04,2.772098992e-04,-1.797203165e-05,2.592378675e-04,-2.771253706e-04,-1.627024559e-04,-4.398278266e-04,-6.429244200e-04,-7.172920974e-05,-7.146536298e-04,-5.781929732e-04,-2.938448567e-04,-8.720378299e-04,-1.051158518e-03,-1.493363123e-04,-1.200494830e-03,-1.572616162e-03,-6.116715573e-04,-2.184287719e-03,-1.977694930e-03,-2.729360497e-04,-2.250630980e-03,-3.170215386e-03,-3.125382473e-05,-3.201469210e-03,-2.978401240e-03,-8.373437459e-04,-3.815744986e-03,-2.178454334e-03,-6.777565893e-05,-2.246229993e-03,-3.116021266e-03,-6.214862547e-04,-3.737507521e-03
-7.7,1.108633478e-04,1.570261110e-04,2.678894588e-04,-7.191193381e-04,3.476758838e-04,-3.714434543e-04,4.329432170e-04,2.109311382e-04,6.438743552e-04,-1.434734022e-04,1.402641576e-04,-3.209244692e-06,2.169986097e-04,1.545049473e-04,3.715035570e-04,-4.993757132e-04,4.953073317e-05,-4.498449800e-04,-4.447749832e-05,2.627707164e-05,-1.820042668e-05,-1.055730551e-04,2.813393515e-04,1.757662964e-04,1.877980082e-04,-2.508659053e-05,1.627114176e-04,-4.672091352e-04,-8.498474462e-05,-5.521938798e-04,4.646659901e-04,8.761129665e-05,5.522772868e-04,-3.849408492e-04,-1.290113644e-04,-5.139522136e-04,2.466563955e-04,1.057313741e-06,2.477137092e-04,-1.096343769e-03,-2.518168100e-04,-1.348160579e-03,-6.321953460e-05,-5.350785779e-05,-1.167273924e-04,-1.146570146e-03,-1.347158686e-04,-1.281286014e-03,-2.313454705e-03,-5.336632121e-04,-2.847117917e-03,-1.138314635e-03,-2.555733471e-04,-1.393887982e-03,-1.557908060e-03,-4.020226455e-04,-1.959930706e-03,-8.789416952e-04,-8.786744426e-05,-9.668091394e-04,3.540287965e-04,8.318909203e-05,4.372178886e-04,-1.756546853e-04,-1.362217245e-04,-3.118764098e-04,4.600873742e-04,6.768083364e-05,5.277682079e-04,6.235649772e-04,1.033235582e-04,7.268885355e-04,3.973965797e-04,-6.007621705e-05,3.373203626e-04,2.571128506e-04,-8.806046609e-06,2.483068040e-04,-3.289277158e-04,-1.541702250e-04,-4.830979408e-04,-6.693849837e-04,-6.641360880e-05,-7.357985925e-04,-5.971146210e-04,-2.996799850e-04,-8.967946060e-04,-1.063014487e-03,-1.257431923e-04,-1.188757679e-03,-1.609671438e-03,-5.947518148e-04,-2.204423253e-03,-1.983412079e-03,-2.644352852e-04,-2.247847364e-03,-3.237777839e-03,7.530602279e-05,-3.162471816e-03,-2.979868478e-03,-8.375745103e-04,-3.817442988e-03,-2.180005335e-03,-5.067582018e-05,-2.230681156e-03,-3.134167024e-03,-6.227142245e-04,-3.756881249e-03
-7.6,1.151601900e-04,1.595436478e-04,2.747038377e-04,-7.122743186e-04,3.514610050e-04,-3.608133136e-04,4.365420889e-04,2.120567277e-04,6.485988165e-04,-1.428930300e-04,1.396595881e-04,-3.233441838e-06,2.383902693e-04,1.586412161e-04,3.970314854e-04,-5.042293077e-04,6.424134306e-05,-4.399879646e-04,-5.211398189e-05,3.055617348e-05,-2.155780841e-05,-1.143628289e-04,2.539497115e-04,1.395868826e-04,1.798451254e-04,-2.198663044e-05,1.578584950e-04,-4.671935540e-04,-7.958633900e-05,-5.467798930e-04,4.590309074e-04,9.746361264e-05,5.564945201e-04,-4.377932356e-04,-1.215264836e-04,-5.593197192e-04,1.883775240e-04,9.586507993e-06,1.979640320e-04,-1.127873000e-03,-2.592001106e-04,-1.387073110e-03,-9.624982441e-05,-3.734408351e-05,-1.335939079e-04,-1.173062693e-03,-1.317635909e-04,-1.304826284e-03,-2.316404862e-03,-5.151988807e-04,-2.831603743e-03,-1.144731831e-03,-2.536270514e-04,-1.398358883e-03,-1.564642046e-03,-3.941059607e-04,-1.958748007e-03,-8.689627565e-04,-8.940983092e-05,-9.583725874e-04,3.478034247e-04,9.056639936e-05,4.383698241e-04,-1.106538255e-04,-2.351981172e-04,-3.458519427e-04,4.598232278e-04,7.283740513e-05,5.326606329e-04,6.064723308e-04,1.146404460e-04,7.211127768e-04,3.617235454e-04,-5.980456790e-05,3.019189775e-04,2.373350078e-04,2.314181468e-07,2.375664260e-04,-3.817250287e-04,-1.437190198e-04,-5.254440485e-04,-6.935157489e-04,-6.318472563e-05,-7.567004745e-04,-6.155891589e-04,-3.046554863e-04,-9.202446452e-04,-1.073354829e-03,-1.027199818e-04,-1.176074811e-03,-1.643625315e-03,-5.783509429e-04,-2.221976258e-03,-1.985172976e-03,-2.562207921e-04,-2.241393768e-03,-3.288769549e-03,1.698674511e-04,-3.118902098e-03,-2.981014591e-03,-8.374988880e-04,-3.818513479e-03,-2.177766304e-03,-3.519462897e-05,-2.212960933e-03,-3.148125235e-03,-6.255707088e-04,-3.773695944e-03
-7.5,1.189499664e-04,1.615268355e-04,2.804768020e-04,-7.043714363e-04,3.546922181e-04,-3.496792182e-04,4.398377075e-04,2.130501160e-04,6.528878234e-04,-1.425569027e-04,1.388340435e-04,-3.722859160e-06,2.598630334e-04,1.626716155e-04,4.225346489e-04,-5.088995833e-04,7.966644972e-05,-4.292331336e-04,-5.845877049e-05,3.521581464e-05,-2.324295585e-05,-1.189540692e-04,2.232232340e-04,1.042691648e-04,1.723790381e-04,-1.875706231e-05,1.536219758e-04,-4.663635914e-04,-7.380373416e-05,-5.401673256e-04,4.529412328e-04,1.069350419e-04,5.598762747e-04,-4.896540860e-04,-1.146783398e-04,-6.043324259e-04,1.307562279e-04,1.783851475e-05,1.485947426e-04,-1.157408172e-03,-2.659080894e-04,-1.423316262e-03,-1.282733997e-04,-2.108714789e-05,-1.493605476e-04,-1.197717688e-03,-1.291876981e-04,-1.326905386e-03,-2.316097203e-03,-4.949476885e-04,-2.811044892e-03,-1.149885077e-03,-2.521903991e-04,-1.402075476e-03,-1.570945223e-03,-3.863600537e-04,-1.957305277e-03,-8.596803650e-04,-9.024896542e-05,-9.499293304e-04,3.410805807e-04,9.748454812e-05,4.385651288e-04,-4.804899801e-05,-3.328465323e-04,-3.808955303e-04,4.586188715e-04,7.784161685e-05,5.364604884e-04,5.883108087e-04,1.264933224e-04,7.148041310e-04,3.235252317e-04,-5.953131394e-05,2.639939178e-04,2.177801191e-04,9.113656573e-06,2.268937757e-04,-4.354305467e-04,-1.315745265e-04,-5.670050733e-04,-7.152906554e-04,-6.201746451e-05,-7.773081199e-04,-6.337241535e-04,-3.086722086e-04,-9.423963620e-04,-1.081960401e-03,-8.051940499e-05,-1.162479806e-03,-1.674429893e-03,-5.624940449e-04,-2.236923938e-03,-1.982813936e-03,-2.483498617e-04,-2.231163797e-03,-3.323496661e-03,2.522822324e-04,-3.071214429e-03,-2.981666341e-03,-8.371092607e-04,-3.818775601e-03,-2.171689923e-03,-2.141647654e-05,-2.193106400e-03,-3.157909278e-03,-6.297495588e-04,-3.787658836e-03
-7.4,1.221888364e-04,1.629241771e-04,2.851130135e-04,-6.954694392e-04,3.572499281e-04,-3.382195111e-04,4.427418533e-04,2.138918607e-04,6.566337139e-04,-1.424193893e-04,1.378234002e-04,-4.595989019e-06,2.812277015e-04,1.665683676e-04,4.477960691e-04,-5.134125942e-04,9.570551639e-05,-4.177070778e-04,-6.353563129e-05,4.024805416e-05,-2.328757713e-05,-1.195672899e-04,1.895006167e-04,6.993332673e-05,1.654311500e-04,-1.539455343e-05,1.500365965e-04,-4.647483603e-04,-6.763942051e-05,-5.323877808e-04,4.463665306e-04,1.160367223e-04,5.624032530e-04,-5.405871477e-04,-1.084228424e-04,-6.490099901e-04,7.380313104e-05,2.582064563e-05,9.962377667e-05,-1.185033799e-03,-2.718373384e-04,-1.456871138e-03,-1.592034499e-04,-4.862014261e-06,-1.640654642e-04,-1.220544404e-03,-1.270182294e-04,-1.347562634e-03,-2.312939450e-03,-4.730077799e-04,-2.785947230e-03,-1.153794010e-03,-2.512659840e-04,-1.405059994e-03,-1.576729775e-03,-3.788718104e-04,-1.955601586e-03,-8.511050456e-04,-9.039048980e-05,-9.414955354e-04,3.338255298e-04,1.039446646e-04,4.377701943e-04,1.205658365e-05,-4.287041384e-04,-4.166475547e-04,4.564649605e-04,8.268696684e-05,5.391519274e-04,5.691897023e-04,1.387471439e-04,7.079368462e-04,2.824061006e-04,-5.898590987e-05,2.234201908e-04,1.983660305e-04,1.781639192e-05,2.161824225e-04,-4.899141465e-04,-1.179800583e-04,-6.078942048e-04,-7.346839836e-04,-6.286223208e-05,-7.975462157e-04,-6.516171807e-04,-3.116336935e-04,-9.632508742e-04,-1.088599470e-03,-5.939255182e-05,-1.147992022e-03,-1.702057145e-03,-5.471915379e-04,-2.249248683e-03,-1.976219381e-03,-2.408509931e-04,-2.217070374e-03,-3.342549947e-03,3.226620795e-04,-3.019887868e-03,-2.981637134e-03,-8.363875236e-04,-3.818024657e-03,-2.161769458e-03,-9.367868576e-06,-2.171137326e-03,-3.163587196e-03,-6.348753408e-04,-3.798462537e-03
-7.3,1.248461966e-04,1.636877981e-04,2.885339947e-04,-6.856183836e-04,3.590134685e-04,-3.266049151e-04,4.451753831e-04,2.145589240e-04,6.597343071e-04,-1.424171529e-04,1.366641371e-04,-5.753015824e-06,3.022998853e-04,1.703001718e-04,4.726000571e-04,-5.177706585e-04,1.122408216e-04,-4.055298369e-04,-6.735911194e-05,4.563906107e-05,-2.172005087e-05,-1.164727303e-04,1.531821299e-04,3.670939960e-05,1.590402058e-04,-1.189693873e-05,1.471432671e-04,-4.623643494e-04,-6.110177850e-05,-5.234661279e-04,4.392923127e-04,1.247802768e-04,5.640725895e-04,-5.906339373e-04,-1.027069664e-04,-6.933409037e-04,1.754567890e-05,3.353893921e-05,5.108461811e-05,-1.210825742e-03,-2.768852013e-04,-1.487710943e-03,-1.889475293e-04,1.120741999e-05,-1.777401093e-04,-1.241547347e-03,-1.252782641e-04,-1.366825611e-03,-2.307292588e-03,-4.494970138e-04,-2.756789602e-03,-1.156467056e-03,-2.508478143e-04,-1.407314870e-03,-1.581895281e-03,-3.717107695e-04,-1.953606051e-03,-8.432092726e-04,-8.985992918e-05,-9.330692018e-04,3.260212582e-04,1.099508641e-04,4.359721223e-04,6.958096645e-05,-5.223218570e-04,-4.527408906e-04,4.533657140e-04,8.736656247e-05,5.407322764e-04,5.492410764e-04,1.512532802e-04,7.004943566e-04,2.380293904e-04,-5.789831624e-05,1.801310742e-04,1.790251337e-04,2.631803630e-05,2.053431700e-04,-5.450106945e-04,-1.031903993e-04,-6.482010938e-04,-7.516668487e-04,-6.564932642e-05,-8.173161751e-04,-6.693532141e-04,-3.134492631e-04,-9.828024772e-04,-1.093033023e-03,-3.958202991e-05,-1.132615053e-03,-1.726497115e-03,-5.324396850e-04,-2.258936800e-03,-1.965324364e-03,-2.337258472e-04,-2.199050211e-03,-3.346781155e-03,3.813662575e-04,-2.965414898e-03,-2.980729090e-03,-8.353044697e-04,-3.816033559e-03,-2.148041228e-03,9.842832287e-07,-2.147056945e-03,-3.165269810e-03,-6.405174354e-04,-3.805787245e-03
-7.2,1.269047065e-04,1.637743461e-04,2.906790525e-04,-6.748593976e-04,3.598629210e-04,-3.149964766e-04,4.470683953e-04,2.150249504e-04,6.620933457e-04,-1.424702977e-04,1.353926140e-04,-7.077683778e-06,3.229010284e-04,1.738325142e-04,4.967335426e-04,-5.219476911e-04,1.291352473e-04,-3.928124438e-04,-6.993619824e-05,5.137040162e-05,-1.856579662e-05,-1.099891388e-04,1.147236673e-04,4.734528500e-06,1.532508375e-04,-8.263246402e-06,1.449875911e-04,-4.592161849e-04,-5.420493103e-05,-5.134211159e-04,4.317195701e-04,1.331772260e-04,5.648967961e-04,-6.398101217e-04,-9.747096082e-05,-7.372810825e-04,-3.797075648e-05,4.099660032e-05,3.025843841e-06,-1.234848776e-03,-2.809515576e-04,-1.515800333e-03,-2.174089420e-04,2.700015041e-05,-1.904087916e-04,-1.260725627e-03,-1.239825818e-04,-1.384708208e-03,-2.299456447e-03,-4.245582633e-04,-2.724014710e-03,-1.157903529e-03,-2.509200670e-04,-1.408823596e-03,-1.586334237e-03,-3.649217198e-04,-1.951255956e-03,-8.359304371e-04,-8.869925190e-05,-9.246296890e-04,3.176690997e-04,1.155098389e-04,4.331789386e-04,1.244567514e-04,-6.132559311e-04,-4.887991797e-04,4.493387727e-04,9.187283545e-05,5.412116082e-04,5.286176118e-04,1.638515878e-04,6.924691996e-04,1.901231967e-04,-5.600918996e-05,1.341140067e-04,1.597053860e-04,3.459942231e-05,1.943048083e-04,-6.005282177e-04,-8.746614740e-05,-6.879943651e-04,-7.662048146e-04,-7.029258957e-05,-8.364974042e-04,-6.870004762e-04,-3.140380928e-04,-1.001038569e-03,-1.095021569e-03,-2.131449407e-05,-1.116336063e-03,-1.747755945e-03,-5.182211004e-04,-2.265977046e-03,-1.950112748e-03,-2.269546795e-04,-2.177067428e-03,-3.337270754e-03,4.289805812e-04,-2.908290172e-03,-2.978735315e-03,-8.338185719e-04,-3.812553887e-03,-2.130583773e-03,9.731159254e-06,-2.120852614e-03,-3.163097367e-03,-6.462080660e-04,-3.809305433e-03
-7.1,1.283606121e-04,1.631458464e-04,2.915064585e-04,-6.632240434e-04,3.596818598e-04,-3.035421836e-04,4.483611669e-04,2.152605760e-04,6.636217429e-04,-1.424833765e-04,1.340441517e-04,-8.439224784e-06,3.428607673e-04,1.771280489e-04,5.199888162e-04,-5.258849997e-04,1.462316101e-04,-3.796533896e-04,-7.126737365e-05,5.742033335e-05,-1.384704030e-05,-1.004802036e-04,7.463025027e-05,-2.584995329e-05,1.481129412e-04,-4.493780144e-06,1.436191611e-04,-4.552967725e-04,-4.696855702e-05,-5.022653295e-04,4.236647212e-04,1.412384097e-04,5.649031309e-04,-6.881006135e-04,-9.265096501e-05,-7.807515785e-04,-9.268028532e-05,4.819293376e-05,-4.448735156e-05,-1.257152110e-03,-2.839412133e-04,-1.541093324e-03,-2.444876106e-04,4.240036519e-05,-2.020872454e-04,-1.278070857e-03,-1.231371021e-04,-1.401207959e-03,-2.289661368e-03,-3.983608990e-04,-2.688022267e-03,-1.158094677e-03,-2.514563941e-04,-1.409551071e-03,-1.589936846e-03,-3.585176779e-04,-1.948454524e-03,-8.291737802e-04,-8.696326568e-05,-9.161370459e-04,3.087895323e-04,1.206303678e-04,4.294199002e-04,1.766269038e-04,-7.010614817e-04,-5.244345779e-04,4.444160167e-04,9.619721289e-05,5.406132295e-04,5.074912592e-04,1.763728347e-04,6.838640939e-04,1.384889700e-04,-5.308069574e-05,8.540827426e-05,1.403728767e-04,4.264304290e-05,1.830159196e-04,-6.562537204e-04,-7.106747669e-05,-7.273211971e-04,-7.782562382e-04,-7.669123576e-05,-8.549474740e-04,-7.046044536e-04,-3.133342430e-04,-1.017938697e-03,-1.094331518e-03,-4.793609164e-06,-1.099125127e-03,-1.765852529e-03,-5.045055557e-04,-2.270358084e-03,-1.930610955e-03,-2.205046857e-04,-2.151115641e-03,-3.315286555e-03,4.662897999e-04,-2.848996755e-03,-2.975441076e-03,-8.318753704e-04,-3.807316447e-03,-2.109515628e-03,1.701900010e-05,-2.092496628e-03,-3.157226354e-03,-6.514620837e-04,-3.808688437e-03
-7,1.292247290e-04,1.617704063e-04,2.909951353e-04,-6.507325007e-04,3.583606207e-04,-2.923718799e-04,4.490062563e-04,2.152337677e-04,6.642400240e-04,-1.423459660e-04,1.326519956e-04,-9.693970392e-06,3.620210009e-04,1.801470749e-04,5.421680758e-04,-5.294882362e-04,1.633544236e-04,-3.661338126e-04,-7.134672192e-05,6.376480249e-05,-7.581919431e-06,-8.834783328e-05,3.344587674e-05,-5.490195654e-05,1.436818481e-04,-5.902875828e-07,1.430915605e-04,-4.505867661e-04,-3.941769517e-05,-4.900044612e-04,4.151601466e-04,1.489734006e-04,5.641335473e-04,-7.354531740e-04,-8.818220854e-05,-8.236353826e-04,-1.464928666e-04,5.512325304e-05,-9.136961355e-05,-1.277763208e-03,-2.857663750e-04,-1.563529583e-03,-2.700804425e-04,5.729989521e-05,-2.127805473e-04,-1.293563334e-03,-1.227389170e-04,-1.416302251e-03,-2.278067963e-03,-3.710958453e-04,-2.649163808e-03,-1.157022990e-03,-2.524197656e-04,-1.409442756e-03,-1.592593710e-03,-3.524741436e-04,-1.945067853e-03,-8.228146989e-04,-8.471629993e-05,-9.075309989e-04,2.994233549e-04,1.253226140e-04,4.247459690e-04,2.260382494e-04,-7.852828650e-04,-5.592446156e-04,4.386452729e-04,1.003297034e-04,5.389749763e-04,4.860528280e-04,1.886407367e-04,6.746935647e-04,8.301410187e-05,-4.890784584e-05,3.410625603e-05,1.210160863e-04,5.043205501e-05,1.714481413e-04,-7.119554244e-04,-5.424701778e-05,-7.662024421e-04,-7.877704925e-04,-8.472987787e-05,-8.725003704e-04,-7.221810341e-04,-3.112918375e-04,-1.033472872e-03,-1.090739705e-03,9.805525450e-06,-1.080934180e-03,-1.780813379e-03,-4.912512035e-04,-2.272064582e-03,-1.906879015e-03,-2.143391118e-04,-2.121218127e-03,-3.282233339e-03,4.942426415e-04,-2.787990698e-03,-2.970624323e-03,-8.294073454e-04,-3.800031668e-03,-2.084991029e-03,2.304288929e-05,-2.061948140e-03,-3.147817436e-03,-6.557963378e-04,-3.803613774e-03
-6.9,1.295237956e-04,1.596228058e-04,2.891466013e-04,-6.373905141e-04,3.557993996e-04,-2.815911145e-04,4.489714427e-04,2.149102339e-04,6.638816766e-04,-1.419330763e-04,1.312462665e-04,-1.068680973e-05,3.802410299e-04,1.828481547e-04,5.630891846e-04,-5.326260419e-04,1.803138138e-04,-3.523122281e-04,-7.016155283e-05,7.037800252e-05,2.164496817e-07,-7.402243498e-05,-8.260445864e-06,-8.228288084e-05,1.400184851e-04,3.443747955e-06,1.434622330e-04,-4.450539538e-04,-3.158258620e-05,-4.766365400e-04,4.062549081e-04,1.563898584e-04,5.626447665e-04,-7.817724546e-04,-8.400214718e-05,-8.657746017e-04,-1.992914666e-04,6.178033237e-05,-1.375111343e-04,-1.296681722e-03,-2.863486488e-04,-1.583030371e-03,-2.940815934e-04,7.160022835e-05,-2.224813650e-04,-1.307167602e-03,-1.227764211e-04,-1.429944023e-03,-2.264771482e-03,-3.429663558e-04,-2.607737838e-03,-1.154660464e-03,-2.537622313e-04,-1.408422695e-03,-1.594196111e-03,-3.467252863e-04,-1.940921398e-03,-8.167007801e-04,-8.202908195e-05,-8.987298620e-04,2.896328367e-04,1.295972194e-04,4.192300561e-04,2.726315743e-04,-8.654408555e-04,-5.928092813e-04,4.320921363e-04,1.042584484e-04,5.363505846e-04,4.645115751e-04,2.004732680e-04,6.649848431e-04,2.368808031e-05,-4.332987380e-05,-1.964179349e-05,1.016505722e-04,5.794960363e-05,1.596001758e-04,-7.673814232e-04,-3.724284331e-05,-8.046242665e-04,-7.946855196e-04,-9.427768446e-05,-8.889632040e-04,-7.397105351e-04,-3.078891188e-04,-1.047599654e-03,-1.084036249e-03,2.233992103e-05,-1.061696328e-03,-1.792666190e-03,-4.784064505e-04,-2.271072641e-03,-1.879001878e-03,-2.084242007e-04,-2.087426078e-03,-3.239598397e-03,5.139110048e-04,-2.725687393e-03,-2.964056742e-03,-8.263333975e-04,-3.790390139e-03,-2.057191869e-03,2.803561446e-05,-2.029156255e-03,-3.135024302e-03,-6.587477788e-04,-3.793772081e-03
-6.8,1.293014170e-04,1.566850722e-04,2.859864893e-04,-6.231858858e-04,3.519106581e-04,-2.712752277e-04,4.482425762e-04,2.142539435e-04,6.624965197e-04,-1.411060917e-04,1.298529504e-04,-1.125314127e-05,3.974024366e-04,1.851888689e-04,5.825913056e-04,-5.351305823e-04,1.969105558e-04,-3.382200265e-04,-6.769236463e-05,7.723244688e-05,9.540082249e-06,-5.795149316e-05,-4.991080255e-05,-1.078622957e-04,1.371885577e-04,7.602719688e-06,1.447912774e-04,-4.386533351e-04,-2.349857151e-05,-4.621519066e-04,3.970149193e-04,1.634928301e-04,5.605077494e-04,-8.269166175e-04,-8.005262020e-05,-9.069692377e-04,-2.509315528e-04,6.815698052e-05,-1.827745722e-04,-1.313875575e-03,-2.856203430e-04,-1.599495918e-03,-3.163833288e-04,8.521381100e-05,-2.311695178e-04,-1.318828975e-03,-1.232293687e-04,-1.442058343e-03,-2.249805763e-03,-3.141792436e-04,-2.563985007e-03,-1.150967121e-03,-2.554243539e-04,-1.406391475e-03,-1.594634525e-03,-3.411629875e-04,-1.935797512e-03,-8.106542610e-04,-7.897563592e-05,-8.896298970e-04,2.795020751e-04,1.334644171e-04,4.129664922e-04,3.163328130e-04,-9.410232800e-04,-6.246904670e-04,4.248409109e-04,1.079693372e-04,5.328102481e-04,4.430934537e-04,2.116838101e-04,6.547772638e-04,-3.938102076e-05,-3.624032979e-05,-7.562135055e-05,8.232213780e-05,6.517879234e-05,1.475009301e-04,-8.222561302e-04,-2.027317426e-05,-8.425293045e-04,-7.989254739e-04,-1.051875093e-04,-9.041129833e-04,-7.571339726e-04,-3.031306346e-04,-1.060264607e-03,-1.074026649e-03,3.270008802e-05,-1.041326561e-03,-1.801433025e-03,-4.659126817e-04,-2.267345707e-03,-1.847083304e-03,-2.027324847e-04,-2.049815788e-03,-3.188902180e-03,5.264486956e-04,-2.662453484e-03,-2.955505370e-03,-8.225582208e-04,-3.778063590e-03,-2.026316572e-03,3.225309261e-05,-1.994063479e-03,-3.118982603e-03,-6.598903190e-04,-3.778872922e-03
-6.7,1.286178806e-04,1.529470666e-04,2.815649472e-04,-6.080853764e-04,3.466204348e-04,-2.614649416e-04,4.468253698e-04,2.132277445e-04,6.600531143e-04,-1.397149002e-04,1.284929393e-04,-1.122196091e-05,4.134124810e-04,1.871266404e-04,6.005391214e-04,-5.368001528e-04,2.129413972e-04,-3.238587556e-04,-6.391374691e-05,8.429861184e-05,2.038486493e-05,-4.058747432e-05,-9.093433022e-05,-1.315218045e-04,1.352602264e-04,1.187851374e-05,1.471387401e-04,-4.313283084e-04,-1.520600752e-05,-4.465343159e-04,3.875219675e-04,1.702840917e-04,5.578060591e-04,-8.706975797e-04,-7.628046300e-05,-9.469780427e-04,-3.012430948e-04,7.424847118e-05,-2.269946236e-04,-1.329280183e-03,-2.835252394e-04,-1.612805423e-03,-3.368780078e-04,9.806479894e-05,-2.388132089e-04,-1.328471695e-03,-1.240692996e-04,-1.452540995e-03,-2.233145327e-03,-2.849395175e-04,-2.518084844e-03,-1.145890625e-03,-2.573347416e-04,-1.403225367e-03,-1.593796295e-03,-3.356397207e-04,-1.929436016e-03,-8.044753239e-04,-7.563016099e-05,-8.801054849e-04,2.691359943e-04,1.369333902e-04,4.060693845e-04,3.570500123e-04,-1.011485148e-03,-6.544351355e-04,4.169940307e-04,1.114457407e-04,5.284397714e-04,4.220371553e-04,2.220830773e-04,6.441202326e-04,-1.059547843e-04,-2.759423088e-05,-1.335490151e-04,6.310724070e-05,7.210300880e-05,1.352102495e-04,-8.762768850e-04,-3.533881139e-06,-8.798107662e-04,-8.004002107e-04,-1.172953224e-04,-9.176955331e-04,-7.743518938e-04,-2.970477127e-04,-1.071399607e-03,-1.060533365e-03,4.080930110e-05,-1.019724064e-03,-1.807123907e-03,-4.537078145e-04,-2.260831721e-03,-1.811242633e-03,-1.972430586e-04,-2.008485692e-03,-3.131660703e-03,5.330533476e-04,-2.598607355e-03,-2.944733769e-03,-8.179729493e-04,-3.762706718e-03,-1.992568054e-03,3.595937188e-05,-1.956608682e-03,-3.099798667e-03,-6.588509957e-04,-3.758649662e-03
-6.6,1.275485581e-04,1.484070189e-04,2.759555770e-04,-5.920326574e-04,3.398684646e-04,-2.521641928e-04,4.447455711e-04,2.117940494e-04,6.565396205e-04,-1.376014476e-04,1.271811555e-04,-1.042029214e-05,4.282054145e-04,1.886195716e-04,6.168249861e-04,-5.374041402e-04,2.282044798e-04,-3.091996604e-04,-5.879653733e-05,9.154440396e-05,3.274786663e-05,-2.237535918e-05,-1.307814928e-04,-1.531568519e-04,1.343003435e-04,1.626021829e-05,1.505605618e-04,-4.230129345e-04,-6.750121525e-06,-4.297630560e-04,3.778713851e-04,1.767616284e-04,5.546330135e-04,-9.128853878e-04,-7.263659065e-05,-9.855219784e-04,-3.500346440e-04,8.005409027e-05,-2.699805538e-04,-1.342800595e-03,-2.800193485e-04,-1.622819943e-03,-3.554611280e-04,1.100895142e-04,-2.453716139e-04,-1.335998668e-03,-1.252606172e-04,-1.461259285e-03,-2.214708611e-03,-2.554478229e-04,-2.470156434e-03,-1.139367008e-03,-2.594102805e-04,-1.398777289e-03,-1.591563371e-03,-3.299753605e-04,-1.921538732e-03,-7.979462719e-04,-7.206385624e-05,-8.700101282e-04,2.586579115e-04,1.400118846e-04,3.986697961e-04,3.946763292e-04,-1.076258308e-03,-6.815819788e-04,4.086698744e-04,1.146683499e-04,5.233382243e-04,4.015879155e-04,2.314822452e-04,6.330701607e-04,-1.756620617e-04,-1.741071964e-05,-1.930727813e-04,4.411057411e-05,7.870604239e-05,1.228166165e-04,-9.291129825e-04,1.280146060e-05,-9.163115219e-04,-7.990077489e-04,-1.304203246e-04,-9.294280735e-04,-7.912255090e-04,-2.896975638e-04,-1.080923073e-03,-1.043396562e-03,4.662108589e-05,-9.967754757e-04,-1.809731143e-03,-4.417305668e-04,-2.251461709e-03,-1.771612971e-03,-1.919405736e-04,-1.963553545e-03,-3.069356831e-03,5.349283149e-04,-2.534428516e-03,-2.931502278e-03,-8.124578969e-04,-3.743960174e-03,-1.956142012e-03,3.941319080e-05,-1.916728822e-03,-3.077538164e-03,-6.553262096e-04,-3.732864374e-03
-6.5,1.261810523e-04,1.430719294e-04,2.692529817e-04,-5.749479794e-04,3.316077136e-04,-2.433402658e-04,4.420474889e-04,2.099155621e-04,6.519630510e-04,-1.346045048e-04,1.259258205e-04,-8.678684351e-06,4.417417851e-04,1.896272997e-04,6.313690848e-04,-5.366902276e-04,2.425048598e-04,-2.941853679e-04,-5.231112716e-05,9.893474393e-05,4.662361677e-05,-3.740267665e-06,-1.689360772e-04,-1.726763449e-04,1.343698158e-04,2.073393123e-05,1.551037470e-04,-4.136349600e-04,1.819244458e-06,-4.118157155e-04,3.681686143e-04,1.829192609e-04,5.510878752e-04,-9.532164959e-04,-6.907420584e-05,-1.022290702e-03,-3.970991735e-04,8.557804951e-05,-3.115211240e-04,-1.354315470e-03,-2.750722038e-04,-1.629387674e-03,-3.720347875e-04,1.212366833e-04,-2.507981043e-04,-1.341292893e-03,-1.267617653e-04,-1.468054659e-03,-2.194366101e-03,-2.258980620e-04,-2.420264163e-03,-1.131322032e-03,-2.615573703e-04,-1.392879402e-03,-1.587810823e-03,-3.239668630e-04,-1.911777686e-03,-7.908365371e-04,-6.834156252e-05,-8.591780996e-04,2.482060030e-04,1.427059169e-04,3.909119200e-04,4.290959713e-04,-1.134766210e-03,-7.056702391e-04,3.999993749e-04,1.176151045e-04,5.176144794e-04,3.819898206e-04,2.396971384e-04,6.216869590e-04,-2.480073824e-04,-5.770617782e-06,-2.537780002e-04,2.546051481e-05,8.497170643e-05,1.104322212e-04,-9.804079801e-04,2.857977435e-05,-9.518282058e-04,-7.946394862e-04,-1.443662845e-04,-9.390057707e-04,-8.075798533e-04,-2.811607815e-04,-1.088740635e-03,-1.022474453e-03,5.011619051e-05,-9.723582623e-04,-1.809224408e-03,-4.299249927e-04,-2.239149401e-03,-1.728338976e-03,-1.868147548e-04,-1.915153731e-03,-3.003410000e-03,5.332385410e-04,-2.470171459e-03,-2.915567377e-03,-8.058875068e-04,-3.721454884e-03,-1.917215784e-03,4.285650333e-05,-1.874359281e-03,-3.052215462e-03,-6.490970756e-04,-3.701312538e-03
-6.4,1.246115455e-04,1.369577818e-04,2.615693273e-04,-5.567299538e-04,3.218043097e-04,-2.349256441e-04,4.387913116e-04,2.075560109e-04,6.463473226e-04,-1.305650767e-04,1.247278973e-04,-5.837179366e-06,4.540063576e-04,1.901118765e-04,6.441182341e-04,-5.343929003e-04,2.556597340e-04,-2.787331663e-04,-4.443119555e-05,1.064312893e-04,6.200009378e-05,1.492421927e-05,-2.049250809e-04,-1.900008617e-04,1.355189973e-04,2.528262013e-05,1.608016174e-04,-4.031191063e-04,1.044802396e-05,-3.926710823e-04,3.585252315e-04,1.887463489e-04,5.472715803e-04,-9.914037244e-04,-6.554730842e-05,-1.056951033e-03,-4.422207729e-04,9.082997026e-05,-3.513908026e-04,-1.363681414e-03,-2.686688178e-04,-1.632350232e-03,-3.865106648e-04,1.314673620e-04,-2.550433028e-04,-1.344220975e-03,-1.285255687e-04,-1.472746544e-03,-2.171953749e-03,-1.964732770e-04,-2.368427026e-03,-1.121672612e-03,-2.636739980e-04,-1.385346610e-03,-1.582406519e-03,-3.173992738e-04,-1.899805793e-03,-7.829082746e-04,-6.451821109e-05,-8.474264857e-04,2.379291660e-04,1.450194894e-04,3.829486554e-04,4.601904781e-04,-1.186439933e-03,-7.262494546e-04,3.911221324e-04,1.202612242e-04,5.113833566e-04,3.634778162e-04,2.465532414e-04,6.100310576e-04,-3.223873919e-04,7.190062330e-06,-3.151973295e-04,7.303517532e-06,9.088301508e-05,9.818653262e-05,-1.029784114e-03,4.366506385e-05,-9.861190498e-04,-7.871871687e-04,-1.589239590e-04,-9.461111277e-04,-8.232086364e-04,-2.715369377e-04,-1.094745574e-03,-9.976447081e-04,5.130087143e-05,-9.463438367e-04,-1.805546661e-03,-4.182441906e-04,-2.223790852e-03,-1.681573330e-03,-1.818612113e-04,-1.863434541e-03,-2.935137583e-03,5.290607989e-04,-2.406076785e-03,-2.896679886e-03,-7.981374174e-04,-3.694817303e-03,-1.875938208e-03,4.650421050e-05,-1.829433998e-03,-3.023785284e-03,-6.400407353e-04,-3.663826019e-03
-6.3,1.229409598e-04,1.300895207e-04,2.530304805e-04,-5.372589429e-04,3.104384275e-04,-2.268205155e-04,4.350499004e-04,2.046807927e-04,6.397306931e-04,-1.253316469e-04,1.235806972e-04,-1.750949684e-06,4.650055889e-04,1.900385996e-04,6.550441885e-04,-5.302418949e-04,2.675028547e-04,-2.627390402e-04,-3.513683895e-05,1.139921010e-04,7.885526204e-05,3.326647286e-05,-2.383267171e-04,-2.050602442e-04,1.377840764e-04,2.988601494e-05,1.676700914e-04,-3.913899943e-04,1.907847615e-05,-3.723115181e-04,3.490551095e-04,1.942275350e-04,5.432826446e-04,-1.027144529e-03,-6.201052821e-05,-1.089155057e-03,-4.851802673e-04,9.582448000e-05,-3.893557873e-04,-1.370735992e-03,-2.608121928e-04,-1.631548185e-03,-3.988117869e-04,1.407544795e-04,-2.580573074e-04,-1.344638419e-03,-1.304983652e-04,-1.475136785e-03,-2.147287868e-03,-1.673404759e-04,-2.314628344e-03,-1.110327806e-03,-2.656522132e-04,-1.375980019e-03,-1.575211700e-03,-3.100567059e-04,-1.885268406e-03,-7.739218178e-04,-6.063553218e-05,-8.345573499e-04,2.279827712e-04,1.469543916e-04,3.749371628e-04,4.878456423e-04,-1.230735624e-03,-7.428899821e-04,3.821827881e-04,1.225793466e-04,5.047621347e-04,3.462706601e-04,2.518912651e-04,5.981619252e-04,-3.981102937e-04,2.128826227e-05,-3.768220314e-04,-1.020116525e-05,9.642095436e-05,8.621978911e-05,-1.076846335e-03,5.793320461e-05,-1.018913130e-03,-7.765502466e-04,-1.738736013e-04,-9.504238479e-04,-8.378798599e-04,-2.609388967e-04,-1.098818757e-03,-9.688078175e-04,5.020735574e-05,-9.186004618e-04,-1.798610751e-03,-4.066520735e-04,-2.205262824e-03,-1.631472030e-03,-1.770826283e-04,-1.808554659e-03,-2.865712166e-03,5.233373219e-04,-2.342374844e-03,-2.874581923e-03,-7.890924409e-04,-3.663674364e-03,-1.832421058e-03,5.053435256e-05,-1.781886705e-03,-2.992138458e-03,-6.281347443e-04,-3.620273202e-03
-6.2,1.212714919e-04,1.225007288e-04,2.437722206e-04,-5.164007747e-04,2.975059524e-04,-2.188948224e-04,4.309056580e-04,2.012574059e-04,6.321630639e-04,-1.187644384e-04,1.224696450e-04,3.705206594e-06,4.747654741e-04,1.893766597e-04,6.641421339e-04,-5.239695542e-04,2.778880153e-04,-2.460815389e-04,-2.441638393e-05,1.215711545e-04,9.715477057e-05,5.098494132e-05,-2.687761131e-04,-2.177911718e-04,1.411850110e-04,3.452056016e-05,1.757055712e-04,-3.783741916e-04,2.764990911e-05,-3.507242825e-04,3.398712017e-04,1.993425705e-04,5.392137723e-04,-1.060125928e-03,-5.842038303e-05,-1.118546311e-03,-5.257580966e-04,1.005796057e-04,-4.251784909e-04,-1.375297995e-03,-2.515264774e-04,-1.626824472e-03,-4.088728467e-04,1.490820935e-04,-2.597907531e-04,-1.342395319e-03,-1.326184904e-04,-1.475013810e-03,-2.120176611e-03,-1.386467295e-04,-2.258823340e-03,-1.097188840e-03,-2.673807945e-04,-1.364569634e-03,-1.566081627e-03,-3.017321947e-04,-1.867813822e-03,-7.636401658e-04,-5.671974395e-05,-8.203599097e-04,2.185247065e-04,1.485101552e-04,3.670348617e-04,5.119616297e-04,-1.267156186e-03,-7.551945568e-04,3.733280806e-04,1.245397233e-04,4.978678039e-04,3.305655934e-04,2.555727337e-04,5.861383271e-04,-4.744139547e-04,3.630116480e-05,-4.381127899e-04,-2.688515732e-05,1.015627180e-04,7.467756065e-05,-1.121183982e-03,7.126571181e-05,-1.049918270e-03,-7.626416931e-04,-1.889870322e-04,-9.516287253e-04,-8.513408619e-04,-2.494872109e-04,-1.100828073e-03,-9.358915269e-04,4.689572519e-05,-8.889958017e-04,-1.788296549e-03,-3.951230362e-04,-2.183419585e-03,-1.578188709e-03,-1.724886628e-04,-1.750677372e-03,-2.796124282e-03,5.168428664e-04,-2.279281415e-03,-2.849003689e-03,-7.786529687e-04,-3.627656657e-03,-1.786732322e-03,5.507935941e-05,-1.731652963e-03,-2.957102650e-03,-6.134532465e-04,-3.570555896e-03
-6.1,1.197038097e-04,1.142329745e-04,2.339367842e-04,-4.940097507e-04,2.830203567e-04,-2.109893940e-04,4.264477194e-04,1.972556504e-04,6.237033698e-04,-1.107382847e-04,1.213722587e-04,1.063397400e-05,4.833299367e-04,1.880995209e-04,6.714294576e-04,-5.153164772e-04,2.866915408e-04,-2.286249364e-04,-1.226693510e-05,1.291178041e-04,1.168508690e-04,6.783288499e-05,-2.959683367e-04,-2.281354517e-04,1.457247709e-04,3.915944977e-05,1.848842207e-04,-3.640013654e-04,3.609951318e-05,-3.279018522e-04,3.310829687e-04,2.040662858e-04,5.351492545e-04,-1.090027436e-03,-5.473731579e-05,-1.144764752e-03,-5.637347265e-04,1.051145513e-04,-4.586201752e-04,-1.377165114e-03,-2.408606364e-04,-1.618025750e-03,-4.166394267e-04,1.564443976e-04,-2.601950290e-04,-1.337340716e-03,-1.348151987e-04,-1.472155914e-03,-2.090425699e-03,-1.105177279e-04,-2.200943427e-03,-1.082148036e-03,-2.687482607e-04,-1.350896297e-03,-1.554865407e-03,-2.922358508e-04,-1.847101258e-03,-7.518323388e-04,-5.278062754e-05,-8.046129664e-04,2.097118294e-04,1.496840775e-04,3.593959069e-04,5.324681508e-04,-1.295278213e-03,-7.628100622e-04,3.647043677e-04,1.261104276e-04,4.908147952e-04,3.165347159e-04,2.574847618e-04,5.740194777e-04,-5.504810365e-04,5.197135411e-05,-4.985096824e-04,-4.257278823e-05,1.062794338e-04,6.370664553e-05,-1.162370351e-03,8.354394074e-05,-1.078826410e-03,-7.453904838e-04,-2.040300560e-04,-9.494205398e-04,-8.633221365e-04,-2.373055014e-04,-1.100627638e-03,-8.988547827e-04,4.145606292e-05,-8.573987198e-04,-1.774449221e-03,-3.836401463e-04,-2.158089367e-03,-1.521867665e-03,-1.680938247e-04,-1.689961490e-03,-2.727155550e-03,5.101686426e-04,-2.216986908e-03,-2.819661534e-03,-7.667380485e-04,-3.586399582e-03,-1.738891779e-03,6.022034331e-05,-1.678671435e-03,-2.918447334e-03,-5.961552745e-04,-3.514602608e-03
-6,1.183347678e-04,1.053348954e-04,2.236696633e-04,-4.699310459e-04,2.670142123e-04,-2.029168335e-04,4.217692640e-04,1.926477260e-04,6.144169900e-04,-1.011444260e-04,1.202584486e-04,1.911402257e-05,4.907591506e-04,1.861850813e-04,6.769442319e-04,-5.040353600e-04,2.938133819e-04,-2.102219782e-04,1.305566619e-06,1.365763586e-04,1.378819252e-04,8.361923710e-05,-3.196591072e-04,-2.360398701e-04,1.513890489e-04,4.377273519e-05,1.951617841e-04,-3.482050612e-04,4.436317490e-05,-3.038418863e-04,3.227940607e-04,2.083687226e-04,5.311627832e-04,-1.116524890e-03,-5.092783883e-05,-1.167452729e-03,-5.988907567e-04,1.094478409e-04,-4.894429158e-04,-1.376111400e-03,-2.288918185e-04,-1.605003218e-03,-4.220668543e-04,1.628442564e-04,-2.592225979e-04,-1.329325041e-03,-1.370088926e-04,-1.466333933e-03,-2.057839462e-03,-8.305802791e-05,-2.140897490e-03,-1.065087370e-03,-2.696462933e-04,-1.334733664e-03,-1.541404160e-03,-2.814017108e-04,-1.822805870e-03,-7.382760478e-04,-4.881197433e-05,-7.870880221e-04,2.016965925e-04,1.504711833e-04,3.521677758e-04,5.493430867e-04,-1.314781071e-03,-7.654379841e-04,3.564549579e-04,1.272575947e-04,4.837125526e-04,3.043225049e-04,2.575431544e-04,5.618656593e-04,-6.254525384e-04,6.801045926e-05,-5.574420792e-04,-5.708237341e-05,1.105339053e-04,5.345153192e-05,-1.199962799e-03,9.464497364e-05,-1.105317825e-03,-7.247407811e-04,-2.187659676e-04,-9.435067487e-04,-8.735404516e-04,-2.245168937e-04,-1.098057345e-03,-8.576906202e-04,3.401041477e-05,-8.236802054e-04,-1.756880133e-03,-3.721922506e-04,-2.129072384e-03,-1.462635690e-03,-1.639141341e-04,-1.626549825e-03,-2.659360955e-03,5.037204001e-04,-2.155640555e-03,-2.786257588e-03,-7.532855118e-04,-3.539543100e-03,-1.688869740e-03,6.598635229e-05,-1.622883387e-03,-2.875890933e-03,-5.764677388e-04,-3.452358672e-03
-5.9,1.172551547e-04,9.586118542e-05,2.131163401e-04,-4.440034877e-04,2.495398578e-04,-1.944636299e-04,4.169645003e-04,1.874084059e-04,6.043729062e-04,-8.989198584e-05,1.190911941e-04,2.919920823e-05,4.971268970e-04,1.836157174e-04,6.807426144e-04,-4.898939958e-04,2.991767696e-04,-1.907172262e-04,1.628583565e-05,1.438858396e-04,1.601716753e-04,9.820543569e-05,-3.396633232e-04,-2.414578875e-04,1.581456728e-04,4.832750111e-05,2.064731739e-04,-3.309238056e-04,5.237619780e-05,-2.785476078e-04,3.150997938e-04,2.122154161e-04,5.273152099e-04,-1.139297283e-03,-4.696631758e-05,-1.186263601e-03,-6.310091546e-04,1.135964293e-04,-5.174127253e-04,-1.371887477e-03,-2.157274156e-04,-1.587614892e-03,-4.251194560e-04,1.682910984e-04,-2.568283577e-04,-1.318201438e-03,-1.391128122e-04,-1.457314250e-03,-2.022219545e-03,-5.635251137e-05,-2.078572057e-03,-1.045878195e-03,-2.699732525e-04,-1.315851448e-03,-1.525527479e-03,-2.690939680e-04,-1.794621447e-03,-7.227601371e-04,-4.479326955e-05,-7.675534067e-04,1.946234207e-04,1.508641525e-04,3.454875731e-04,5.626300143e-04,-1.325472961e-03,-7.628429468e-04,3.487167027e-04,1.279457847e-04,4.766624873e-04,2.940437187e-04,2.556934763e-04,5.497371951e-04,-6.984425100e-04,8.410293876e-05,-6.143395712e-04,-7.022886099e-05,1.142791665e-04,4.405030555e-05,-1.233506438e-03,1.044401701e-04,-1.129066268e-03,-7.006502363e-04,-2.329596188e-04,-9.336098551e-04,-8.817021752e-04,-2.112413626e-04,-1.092943538e-03,-8.124283045e-04,2.471446216e-05,-7.877138424e-04,-1.735371574e-03,-3.607696887e-04,-2.096141263e-03,-1.400594356e-03,-1.599634151e-04,-1.560557771e-03,-2.593059066e-03,4.977268082e-04,-2.095332258e-03,-2.748479735e-03,-7.382509011e-04,-3.486730636e-03,-1.636589293e-03,7.235893936e-05,-1.564230354e-03,-2.829108417e-03,-5.546665148e-04,-3.383774932e-03
-5.8,1.165470212e-04,8.587162678e-05,2.024186480e-04,-4.160635829e-04,2.306688485e-04,-1.853947343e-04,4.121249731e-04,1.815153652e-04,5.936403383e-04,-7.690972800e-05,1.178275306e-04,4.091780263e-05,5.025164300e-04,1.803782662e-04,6.828946962e-04,-4.726792340e-04,3.027272878e-04,-1.699519462e-04,3.264775335e-05,1.509799137e-04,1.836276670e-04,1.114982713e-04,-3.558508781e-04,-2.443526067e-04,1.659434263e-04,5.278815880e-05,2.187315851e-04,-3.121030467e-04,6.007402685e-05,-2.520290199e-04,3.080841673e-04,2.155678636e-04,5.236520309e-04,-1.158036844e-03,-4.283605603e-05,-1.200872900e-03,-6.598808526e-04,1.175759778e-04,-5.423048748e-04,-1.364224940e-03,-2.015053068e-04,-1.565730247e-03,-4.257707751e-04,1.727984428e-04,-2.529723323e-04,-1.303827205e-03,-1.410357475e-04,-1.444862952e-03,-1.983363006e-03,-3.047019961e-05,-2.013833206e-03,-1.024383330e-03,-2.696372850e-04,-1.294020615e-03,-1.507049481e-03,-2.552125292e-04,-1.762262010e-03,-7.050870287e-04,-4.069243646e-05,-7.457794651e-04,1.886245167e-04,1.508533953e-04,3.394779119e-04,5.724506768e-04,-1.327310505e-03,-7.548598285e-04,3.416157190e-04,1.281385308e-04,4.697542498e-04,2.857807572e-04,2.519106405e-04,5.376913977e-04,-7.685560530e-04,9.991167127e-05,-6.686443817e-04,-8.182896504e-05,1.174583157e-04,3.562935064e-05,-1.262542443e-03,1.127967521e-04,-1.149745691e-03,-6.730904721e-04,-2.463810427e-04,-9.194715148e-04,-8.875075315e-04,-1.975937331e-04,-1.085101265e-03,-7.631349777e-04,1.375851062e-05,-7.493764671e-04,-1.709685034e-03,-3.493583505e-04,-2.059043384e-03,-1.335815250e-03,-1.562487670e-04,-1.492064017e-03,-2.528331582e-03,4.922547796e-04,-2.036076802e-03,-2.706000978e-03,-7.216065520e-04,-3.427607530e-03,-1.581931787e-03,7.928078920e-05,-1.502650998e-03,-2.777739718e-03,-5.310571369e-04,-3.308796855e-03
-5.7,1.162805246e-04,7.543015961e-05,1.917106842e-04,-3.859509159e-04,2.104901156e-04,-1.754608003e-04,4.073352075e-04,1.749496534e-04,5.822848609e-04,-6.214824923e-05,1.164197185e-04,5.427146925e-05,5.070149761e-04,1.764639613e-04,6.834789374e-04,-4.522031053e-04,3.044323763e-04,-1.477707291e-04,5.035187851e-05,1.577870169e-04,2.081388954e-04,1.234398327e-04,-3.681399516e-04,-2.447001189e-04,1.747104724e-04,5.711693618e-05,2.318274086e-04,-2.916980348e-04,6.739316923e-05,-2.243048656e-04,3.018164566e-04,2.183842473e-04,5.202007039e-04,-1.172460975e-03,-3.852970923e-05,-1.210990684e-03,-6.853133455e-04,1.214020960e-04,-5.639112495e-04,-1.352844723e-03,-1.863921926e-04,-1.539236915e-03,-4.240048686e-04,1.763815615e-04,-2.476233071e-04,-1.286066158e-03,-1.426851742e-04,-1.428751332e-03,-1.941060900e-03,-5.470984914e-06,-1.946531885e-03,-1.000461598e-03,-2.685586693e-04,-1.269020267e-03,-1.485766033e-03,-2.396977409e-04,-1.725463774e-03,-6.850751222e-04,-3.646945493e-05,-7.215445771e-04,1.838151105e-04,1.504273778e-04,3.342424882e-04,5.790101771e-04,-1.320409650e-03,-7.413994733e-04,3.352625535e-04,1.277990687e-04,4.630616221e-04,2.795798845e-04,2.461979738e-04,5.257778583e-04,-8.349112262e-04,1.150864536e-04,-7.198247726e-04,-9.170860560e-05,1.200055439e-04,2.829693826e-05,-1.286619631e-03,1.195815278e-04,-1.167038103e-03,-6.420512306e-04,-2.588082247e-04,-9.008594552e-04,-8.906562862e-04,-1.836816949e-04,-1.074337981e-03,-7.099166043e-04,1.367074149e-06,-7.085495301e-04,-1.679571561e-03,-3.379326530e-04,-2.017504214e-03,-1.268339472e-03,-1.527643049e-04,-1.421103777e-03,-2.465031798e-03,4.872281295e-04,-1.977803668e-03,-2.658479118e-03,-7.033404538e-04,-3.361819572e-03,-1.524745084e-03,8.666629571e-05,-1.438078789e-03,-2.721400172e-03,-5.059554589e-04,-3.227355630e-03
-5.6,1.165106507e-04,6.460388937e-05,1.811145400e-04,-3.535144901e-04,1.891071900e-04,-1.644073001e-04,4.026681101e-04,1.676962902e-04,5.703644003e-04,-4.558236079e-05,1.148165300e-04,6.923416925e-05,5.107075275e-04,1.718683784e-04,6.825759059e-04,-4.283108352e-04,3.042815907e-04,-1.240292445e-04,6.934234292e-05,1.642307913e-04,2.335731342e-04,1.339970170e-04,-3.764895640e-04,-2.424925470e-04,1.843529924e-04,6.127458100e-05,2.456275734e-04,-2.696771890e-04,7.427236382e-05,-1.954048252e-04,2.963477178e-04,2.206204080e-04,5.169681259e-04,-1.182323804e-03,-3.404938124e-05,-1.216373185e-03,-7.071405194e-04,1.250916472e-04,-5.820488722e-04,-1.337468237e-03,-1.705799657e-04,-1.508048202e-03,-4.198183138e-04,1.790556442e-04,-2.407626696e-04,-1.264792110e-03,-1.439701971e-04,-1.408762307e-03,-1.895098376e-03,1.858640895e-05,-1.876511967e-03,-9.739736050e-04,-2.666713390e-04,-1.240644944e-03,-1.461453642e-03,-2.225346356e-04,-1.683988278e-03,-6.625606975e-04,-3.208079793e-05,-6.946414955e-04,1.802885974e-04,1.495730673e-04,3.298616646e-04,5.825920429e-04,-1.305043502e-03,-7.224514593e-04,3.297474550e-04,1.268911997e-04,4.566386547e-04,2.754469305e-04,2.385862442e-04,5.140331747e-04,-8.966635175e-04,1.292750365e-04,-7.673884811e-04,-9.971162102e-05,1.218481835e-04,2.213656248e-05,-1.305307572e-03,1.246654293e-04,-1.180642143e-03,-6.075471448e-04,-2.700291951e-04,-8.775763399e-04,-8.908546537e-04,-1.696034210e-04,-1.060458075e-03,-6.529175734e-04,-1.220367311e-05,-6.651212465e-04,-1.644782706e-03,-3.264485780e-04,-1.971231284e-03,-1.198180668e-03,-1.494837126e-04,-1.347664381e-03,-2.402799694e-03,4.824485136e-04,-1.920351180e-03,-2.605558542e-03,-6.834535134e-04,-3.289012056e-03,-1.464853256e-03,9.441143827e-05,-1.370441818e-03,-2.659692412e-03,-4.796696840e-04,-3.139362096e-03
-5.5,1.172743926e-04,5.346201682e-05,1.707364094e-04,-3.186194422e-04,1.666350310e-04,-1.519844112e-04,3.981807778e-04,1.597449751e-04,5.579257529e-04,-2.721314351e-05,1.129646776e-04,8.575153412e-05,5.136709019e-04,1.665914556e-04,6.802623576e-04,-4.008894973e-04,3.022873903e-04,-9.860210705e-05,8.954387125e-05,1.702309306e-04,2.597748018e-04,1.431530847e-04,-3.808937024e-04,-2.377406177e-04,1.947548235e-04,6.522117973e-05,2.599760032e-04,-2.460251661e-04,8.065384843e-05,-1.653713177e-04,2.917077267e-04,2.222309370e-04,5.139386637e-04,-1.187425055e-03,-2.940646964e-05,-1.216831524e-03,-7.252311166e-04,1.286627517e-04,-5.965683649e-04,-1.317829437e-03,-1.542801967e-04,-1.472109634e-03,-4.132224277e-04,1.808347327e-04,-2.323876951e-04,-1.239892952e-03,-1.448037541e-04,-1.384696706e-03,-1.845257224e-03,4.163841041e-05,-1.803618813e-03,-9.447869587e-04,-2.639237229e-04,-1.208710682e-03,-1.433869700e-03,-2.037563711e-04,-1.637626071e-03,-6.373987548e-04,-2.748452390e-05,-6.648832787e-04,1.781122085e-04,1.482763173e-04,3.263885258e-04,5.835406121e-04,-1.281622521e-03,-6.980819093e-04,3.251365106e-04,1.253802559e-04,4.505167665e-04,2.733440342e-04,2.291325022e-04,5.024765364e-04,-9.530299409e-04,1.421351513e-04,-8.108947895e-04,-1.057084749e-04,1.229099175e-04,1.720144255e-05,-1.318210174e-03,1.279282685e-04,-1.190281906e-03,-5.696244550e-04,-2.798440295e-04,-8.494684844e-04,-8.878222319e-04,-1.554453115e-04,-1.043267543e-03,-5.923185713e-04,-2.667069466e-05,-6.189892660e-04,-1.605081144e-03,-3.148376913e-04,-1.919918835e-03,-1.125329862e-03,-1.463535902e-04,-1.271683452e-03,-2.341085314e-03,4.776222219e-04,-1.863463092e-03,-2.546874564e-03,-6.619551690e-04,-3.208829733e-03,-1.402065581e-03,1.024005713e-04,-1.299665010e-03,-2.592217284e-03,-4.524854760e-04,-3.044702760e-03
-5.4,1.185888818e-04,4.207477330e-05,1.606636551e-04,-2.811535970e-04,1.431968182e-04,-1.379567788e-04,3.939112290e-04,1.510908464e-04,5.450020754e-04,-7.069137333e-06,1.108103810e-04,1.037412437e-04,5.159689460e-04,1.606375687e-04,6.766065147e-04,-3.698761358e-04,2.984861671e-04,-7.138996866e-05,1.108596754e-04,1.757043628e-04,2.865640382e-04,1.509024109e-04,-3.813785693e-04,-2.304761584e-04,2.057785092e-04,6.891695381e-05,2.746954630e-04,-2.207451193e-04,8.648457878e-05,-1.342605405e-04,2.879027412e-04,2.231702226e-04,5.110729638e-04,-1.187614387e-03,-2.462110677e-05,-1.212235494e-03,-7.394936517e-04,1.321326239e-04,-6.073610278e-04,-1.293685792e-03,-1.377172120e-04,-1.431403004e-03,-4.042454622e-04,1.817315669e-04,-2.225138954e-04,-1.211274244e-03,-1.451039799e-04,-1.356378224e-03,-1.791322163e-03,6.361652346e-05,-1.727705640e-03,-9.127797209e-04,-2.602790253e-04,-1.173058746e-03,-1.402753925e-03,-1.834454834e-04,-1.586199408e-03,-6.094628431e-04,-2.264535092e-05,-6.321081940e-04,1.773236001e-04,1.465222112e-04,3.238458113e-04,5.822325955e-04,-1.250658472e-03,-6.684258764e-04,3.214689720e-04,1.232341334e-04,4.447031054e-04,2.731884172e-04,2.179184195e-04,4.911068367e-04,-1.003310342e-03,1.533469339e-04,-8.499634077e-04,-1.096038293e-04,1.231151889e-04,1.351135960e-05,-1.324978194e-03,1.292630959e-04,-1.195715098e-03,-5.283655783e-04,-2.880673152e-04,-8.164328935e-04,-8.812978136e-04,-1.412806695e-04,-1.022578483e-03,-5.283333177e-04,-4.173040886e-05,-5.700637266e-04,-1.560250477e-03,-3.030026218e-04,-1.863253098e-03,-1.049760657e-03,-1.432891607e-04,-1.193049818e-03,-2.279184471e-03,4.723951326e-04,-1.806789338e-03,-2.482059299e-03,-6.388588075e-04,-3.120918107e-03,-1.336183995e-03,1.105099969e-04,-1.225673998e-03,-2.518581146e-03,-4.246552585e-04,-2.943236405e-03
-5.3,1.204505813e-04,3.051240303e-05,1.509629843e-04,-2.410335375e-04,1.189208087e-04,-1.221127288e-04,3.898760632e-04,1.417351467e-04,5.316112099e-04,1.479351729e-05,1.083009516e-04,1.230944688e-04,5.176490963e-04,1.540155469e-04,6.716646433e-04,-3.352646811e-04,2.929391525e-04,-4.232552862e-05,1.331703733e-04,1.805665848e-04,3.137369581e-04,1.572485108e-04,-3.780034406e-04,-2.207549299e-04,2.172673739e-04,7.232297046e-05,2.895903444e-04,-1.938603300e-04,9.171739584e-05,-1.021429341e-04,2.849140267e-04,2.233933968e-04,5.083074234e-04,-1.182790345e-03,-1.972163497e-05,-1.202511979e-03,-7.498775461e-04,1.355136960e-04,-6.143638501e-04,-1.264827162e-03,-1.211204551e-04,-1.385947617e-03,-3.929348175e-04,1.817581233e-04,-2.111766942e-04,-1.178861400e-03,-1.447952781e-04,-1.323656678e-03,-1.733092013e-03,8.445550599e-05,-1.648636507e-03,-8.778422474e-04,-2.557149159e-04,-1.133557163e-03,-1.367830675e-03,-1.617324783e-04,-1.529563153e-03,-5.786446060e-04,-1.753887270e-05,-5.961834787e-04,1.779282582e-04,1.442955363e-04,3.222237945e-04,5.790446169e-04,-1.212721006e-03,-6.336763894e-04,3.187554092e-04,1.204243270e-04,4.391797363e-04,2.748526456e-04,2.050480037e-04,4.799006493e-04,-1.046905386e-03,1.626261310e-04,-8.842792551e-04,-1.113423860e-04,1.223941965e-04,1.105181045e-05,-1.325318926e-03,1.285791106e-04,-1.196739815e-03,-4.838915095e-04,-2.945309247e-04,-7.784224342e-04,-8.710440441e-04,-1.271694025e-04,-9.982134466e-04,-4.612051045e-04,-5.706578981e-05,-5.182708943e-04,-1.510103756e-03,-2.908143301e-04,-1.800918086e-03,-9.714340529e-04,-1.401727380e-04,-1.111606791e-03,-2.216285272e-03,4.663911334e-04,-1.749894138e-03,-2.410748512e-03,-6.141777501e-04,-3.024926262e-03,-1.267010299e-03,1.186105667e-04,-1.148399732e-03,-2.438398667e-03,-3.963927041e-04,-2.834791371e-03
-5.2,1.228351667e-04,1.884414836e-05,1.416793151e-04,-1.982102327e-04,9.393719578e-05,-1.042730369e-04,3.860685419e-04,1.316856669e-04,5.177542087e-04,3.829160053e-05,1.053862078e-04,1.436778083e-04,5.187397079e-04,1.467385365e-04,6.654782444e-04,-2.971111762e-04,2.857325647e-04,-1.137861156e-05,1.563333240e-04,1.847330306e-04,3.410663545e-04,1.622046084e-04,-3.708644249e-04,-2.086598165e-04,2.290477187e-04,7.540179474e-05,3.044495134e-04,-1.654158448e-04,9.631216635e-05,-6.910367842e-05,2.826967115e-04,2.228572330e-04,5.055539445e-04,-1.172895270e-03,-1.474472468e-05,-1.187639995e-03,-7.563723419e-04,1.388095181e-04,-6.175628238e-04,-1.231082998e-03,-1.047165697e-04,-1.335799568e-03,-3.793594165e-04,1.809264244e-04,-1.984329921e-04,-1.142600573e-03,-1.438098094e-04,-1.286410382e-03,-1.670394262e-03,1.041065766e-04,-1.566287685e-03,-8.398787506e-04,-2.502223084e-04,-1.090101059e-03,-1.328811724e-03,-1.387927828e-04,-1.467604507e-03,-5.448537612e-04,-1.215463377e-05,-5.570083950e-04,1.798973674e-04,1.415814294e-04,3.214787968e-04,5.743253211e-04,-1.168399323e-03,-5.940740022e-04,3.169760348e-04,1.169268720e-04,4.339029068e-04,2.781650945e-04,1.906447549e-04,4.688098494e-04,-1.083331360e-03,1.697369338e-04,-9.135944264e-04,-1.109132237e-04,1.206875178e-04,9.774294117e-06,-1.319003150e-03,1.258031618e-04,-1.193199988e-03,-4.363633393e-04,-2.990865842e-04,-7.354499236e-04,-8.568516199e-04,-1.131584518e-04,-9.700100718e-04,-3.912034516e-04,-7.235411121e-05,-4.635575628e-04,-1.454490600e-03,-2.781114031e-04,-1.732602003e-03,-8.903025260e-04,-1.368550142e-04,-1.027157540e-03,-2.151518636e-03,4.592465154e-04,-1.692272120e-03,-2.332590044e-03,-5.879210700e-04,-2.920511114e-03,-1.194354080e-03,1.265707196e-04,-1.067783360e-03,-2.351293032e-03,-3.678723092e-04,-2.719165342e-03
-5.1,1.256975487e-04,7.137231692e-06,1.328347804e-04,-1.526743919e-04,6.837489872e-05,-8.429949321e-05,3.824565724e-04,1.209569578e-04,5.034135303e-04,6.331529615e-05,1.020196430e-04,1.653349391e-04,5.192473679e-04,1.388237385e-04,6.580711064e-04,-2.555369100e-04,2.769764578e-04,2.143954778e-05,1.801816088e-04,1.881204693e-04,3.683020781e-04,1.657948456e-04,-3.600991304e-04,-1.943042847e-04,2.409304381e-04,7.811810761e-05,3.190485457e-04,-1.354805591e-04,1.002367875e-04,-3.524377163e-05,2.811785739e-04,2.215210359e-04,5.026996098e-04,-1.157909811e-03,-9.735746512e-06,-1.167645557e-03,-7.590072844e-04,1.420118227e-04,-6.169954617e-04,-1.192328828e-03,-8.872135198e-05,-1.281050180e-03,-3.636122918e-04,1.792494284e-04,-1.843628634e-04,-1.102459143e-03,-1.420896173e-04,-1.244548761e-03,-1.603098768e-03,1.225486700e-04,-1.480550098e-03,-7.988098657e-04,-2.438028993e-04,-1.042612765e-03,-1.285400110e-03,-1.148424422e-04,-1.400242553e-03,-5.080188473e-04,-6.498192567e-06,-5.145170399e-04,1.831659319e-04,1.383660031e-04,3.215319350e-04,5.683784159e-04,-1.118278391e-03,-5.498999746e-04,3.160788361e-04,1.127231332e-04,4.288019693e-04,2.829100329e-04,1.748482605e-04,4.577582934e-04,-1.112231488e-03,1.745017761e-04,-9.377297115e-04,-1.083532397e-04,1.179496709e-04,9.596431260e-06,-1.305871330e-03,1.208814902e-04,-1.184989840e-03,-3.859839267e-04,-3.016081657e-04,-6.875920924e-04,-8.385434380e-04,-9.928308902e-05,-9.378265270e-04,-3.186208999e-04,-8.727520715e-05,-4.058961070e-04,-1.393302951e-03,-2.647014147e-04,-1.658004365e-03,-8.063138418e-04,-1.331591630e-04,-9.394730048e-04,-2.084006505e-03,4.506365178e-04,-1.633369987e-03,-2.247253711e-03,-5.600887300e-04,-2.807342441e-03,-1.118040032e-03,1.342585883e-04,-9.837814438e-04,-2.256897046e-03,-3.392317484e-04,-2.596128795e-03
-5,1.289717344e-04,-4.544062228e-06,1.244276722e-04,-1.044615396e-04,4.235850769e-05,-6.210303189e-05,3.789805333e-04,1.095704063e-04,4.885509396e-04,8.972812320e-05,9.815940264e-05,1.878875258e-04,5.191539284e-04,1.302921374e-04,6.494460658e-04,-2.107293938e-04,2.668022756e-04,5.607288180e-05,2.045223674e-04,1.906484346e-04,3.951708019e-04,1.680537439e-04,-3.458897291e-04,-1.778359852e-04,2.527119577e-04,8.043925930e-05,3.331512170e-04,-1.041496594e-04,1.034678452e-04,-6.818142564e-07,2.802586927e-04,2.193474812e-04,4.996061739e-04,-1.137850384e-03,-4.748385041e-06,-1.142598769e-03,-7.578523105e-04,1.450991700e-04,-6.127531404e-04,-1.148492359e-03,-7.333187369e-05,-1.221824232e-03,-3.458132230e-04,1.767420844e-04,-1.690711387e-04,-1.058426471e-03,-1.395891072e-04,-1.198015578e-03,-1.531126749e-03,1.397931127e-04,-1.391333636e-03,-7.545763606e-04,-2.364657728e-04,-9.910421334e-04,-1.237296371e-03,-9.013161952e-05,-1.327427991e-03,-4.680888756e-04,-5.920326352e-07,-4.686809083e-04,1.876311391e-04,1.346367848e-04,3.222679240e-04,5.614579966e-04,-1.062931362e-03,-5.014733658e-04,3.159776284e-04,1.078004629e-04,4.237780913e-04,2.888277436e-04,1.578102909e-04,4.466380345e-04,-1.133383737e-03,1.768067442e-04,-9.565769925e-04,-1.037498814e-04,1.141513262e-04,1.040144482e-05,-1.285840935e-03,1.137831518e-04,-1.172057784e-03,-3.330000637e-04,-3.019937099e-04,-6.349937736e-04,-8.159787631e-04,-8.556911789e-05,-9.015478810e-04,-2.437700369e-04,-1.015198004e-04,-3.452898373e-04,-1.326479475e-03,-2.503642370e-04,-1.576843712e-03,-7.194159436e-04,-1.288871917e-04,-8.483031353e-04,-2.012902249e-03,4.402932376e-04,-1.572609011e-03,-2.154440412e-03,-5.306670471e-04,-2.685107459e-03,-1.037912436e-03,1.415413256e-04,-8.963711100e-04,-2.154857445e-03,-3.105740163e-04,-2.465431461e-03
-4.9,1.325706561e-04,-1.613910176e-05,1.164315543e-04,-5.365665580e-05,1.600597752e-05,-3.765067828e-05,3.755513499e-04,9.755424437e-05,4.731055943e-04,1.173663088e-04,9.376911576e-05,2.111354246e-04,5.184136733e-04,1.211682922e-04,6.395819655e-04,-1.629412254e-04,2.553593042e-04,9.241807874e-05,2.291347983e-04,1.922406401e-04,4.213754384e-04,1.690228275e-04,-3.284629671e-04,-1.594401396e-04,2.641749361e-04,8.233573344e-05,3.465106696e-04,-7.154696119e-05,1.059908143e-04,3.444385310e-05,2.798062308e-04,2.163033516e-04,4.961095824e-04,-1.112770200e-03,1.569079658e-07,-1.112613292e-03,-7.530198749e-04,1.480367998e-04,-6.049830751e-04,-1.099558586e-03,-5.871939777e-05,-1.158277984e-03,-3.261109534e-04,1.734226354e-04,-1.526883180e-04,-1.010514688e-03,-1.362773989e-04,-1.146792087e-03,-1.454453386e-03,1.558817663e-04,-1.298571620e-03,-7.071431458e-04,-2.282240430e-04,-9.353671888e-04,-1.184207676e-03,-6.493539131e-05,-1.249143067e-03,-4.250358142e-04,5.525015109e-06,-4.195107991e-04,1.931511008e-04,1.303830245e-04,3.235341253e-04,5.537730459e-04,-1.002922697e-03,-4.491496513e-04,3.165504728e-04,1.021527787e-04,4.187032514e-04,2.956152871e-04,1.396909445e-04,4.353062316e-04,-1.146705550e-03,1.766033999e-04,-9.701021502e-04,-9.724277462e-05,1.092802349e-04,1.203746024e-05,-1.258914810e-03,1.045048602e-04,-1.154409950e-03,-2.777047958e-04,-3.001667524e-04,-5.778715482e-04,-7.890575860e-04,-7.203503056e-05,-8.610926166e-04,-1.669806018e-04,-1.147973769e-04,-2.817779787e-04,-1.254008278e-03,-2.348572852e-04,-1.488865564e-03,-6.295639556e-04,-1.238273617e-04,-7.533913174e-04,-1.937418097e-03,4.280152378e-04,-1.509402859e-03,-2.053887821e-03,-4.996260623e-04,-2.553513883e-03,-9.538360526e-04,1.482821585e-04,-8.055538941e-04,-2.044843121e-03,-2.819675887e-04,-2.326810710e-03
-4.8,1.363864665e-04,-2.759144005e-05,1.087950265e-04,-3.981300482e-07,-1.057236087e-05,-1.097049091e-05,3.720494716e-04,8.494348341e-05,4.569929550e-04,1.460380812e-04,8.881850185e-05,2.348565831e-04,5.169514625e-04,1.114801693e-04,6.284316319e-04,-1.124867033e-04,2.428099914e-04,1.303232881e-04,2.537685411e-04,1.928263340e-04,4.465948751e-04,1.687455653e-04,-3.080877518e-04,-1.393421865e-04,2.750894617e-04,8.378155864e-05,3.588710203e-04,-3.782658316e-05,1.077998664e-04,6.997328326e-05,2.796598321e-04,2.123601743e-04,4.920200064e-04,-1.082762032e-03,4.915611050e-06,-1.077846421e-03,-7.446660765e-04,1.507772659e-04,-5.938888106e-04,-1.045572813e-03,-4.502361176e-05,-1.090596425e-03,-3.046842668e-04,1.693140879e-04,-1.353701789e-04,-9.587590062e-04,-1.321398563e-04,-1.090898862e-03,-1.373103611e-03,1.708814206e-04,-1.202222190e-03,-6.565024880e-04,-2.190923765e-04,-8.755948645e-04,-1.125859226e-03,-3.954258700e-05,-1.165401813e-03,-3.788573665e-04,1.179966395e-05,-3.670577026e-04,1.995442898e-04,1.255960123e-04,3.251403021e-04,5.454961189e-04,-9.388138464e-04,-3.933177275e-04,3.176390220e-04,9.578105654e-05,4.134200786e-04,3.029282711e-04,1.206555325e-04,4.235838036e-04,-1.152255533e-03,1.739084868e-04,-9.783470465e-04,-8.902372799e-05,1.033413051e-04,1.431757708e-05,-1.225188416e-03,9.307586710e-05,-1.132112549e-03,-2.204387169e-04,-2.960764805e-04,-5.165151974e-04,-7.577251091e-04,-5.869301290e-05,-8.164181220e-04,-8.859666171e-05,-1.268427740e-04,-2.154394357e-04,-1.175927307e-03,-2.179229720e-04,-1.393850279e-03,-5.367285781e-04,-1.177615954e-04,-6.544901735e-04,-1.856838686e-03,4.136722888e-04,-1.443166397e-03,-1.945371576e-03,-4.669198198e-04,-2.412291396e-03,-8.656947142e-04,1.543377837e-04,-7.113569305e-04,-1.926556715e-03,-2.534443140e-04,-2.180001029e-03
-4.7,1.402918740e-04,-3.884925158e-05,1.014426224e-04,5.511948466e-05,-3.727349022e-05,1.784599444e-05,3.683253322e-04,7.177973022e-05,4.401050624e-04,1.755235240e-04,8.328366895e-05,2.588071930e-04,5.146626371e-04,1.012589693e-04,6.159216064e-04,-5.973640947e-05,2.293243649e-04,1.695879554e-04,2.781432572e-04,1.923415215e-04,4.704847787e-04,1.672629131e-04,-2.850719033e-04,-1.178089902e-04,2.852152870e-04,8.475471080e-05,3.699699978e-04,-3.173505722e-06,1.088974018e-04,1.057238961e-04,2.796280569e-04,2.074948018e-04,4.871228587e-04,-1.047960737e-03,9.463277079e-06,-1.038497460e-03,-7.329897743e-04,1.532617387e-04,-5.797280356e-04,-9.866409727e-04,-3.234831692e-05,-1.018989290e-03,-2.817413725e-04,1.644455724e-04,-1.172958001e-04,-9.032174541e-04,-1.271779776e-04,-1.030395432e-03,-1.287141247e-03,1.848773601e-04,-1.102263887e-03,-6.026756337e-04,-2.090855135e-04,-8.117611472e-04,-1.062006709e-03,-1.424393986e-05,-1.076250649e-03,-3.295792237e-04,1.816657764e-05,-3.114126460e-04,2.065901141e-04,1.202694028e-04,3.268595169e-04,5.367714151e-04,-8.711649144e-04,-3.343934993e-04,3.190491508e-04,8.869366191e-05,4.077428127e-04,3.103838751e-04,1.008722747e-04,4.112561499e-04,-1.150231532e-03,1.688024931e-04,-9.814290394e-04,-7.933484253e-05,9.635641929e-05,1.702157676e-05,-1.184853006e-03,7.956173235e-05,-1.105291274e-03,-1.615887968e-04,-2.896967662e-04,-4.512855630e-04,-7.219755762e-04,-4.554892468e-05,-7.675245009e-04,-8.974538835e-06,-1.374202484e-04,-1.463947873e-04,-1.092322034e-03,-1.992985913e-04,-1.291620625e-03,-4.409042503e-04,-1.104723608e-04,-5.513766110e-04,-1.770523443e-03,3.972089083e-04,-1.373314535e-03,-1.828702549e-03,-4.324899324e-04,-2.261192482e-03,-7.733894246e-04,1.595584973e-04,-6.138309273e-04,-1.799747193e-03,-2.249961244e-04,-2.024743318e-03
-4.6,1.441426779e-04,-4.986569683e-05,9.427698110e-05,1.126445355e-04,-6.400074404e-05,4.864379146e-05,3.642013974e-04,5.811087361e-05,4.223122710e-04,2.055753394e-04,7.714715965e-05,2.827224991e-04,5.114147667e-04,9.053893140e-05,6.019536981e-04,-5.110529853e-06,2.150741545e-04,2.099636246e-04,3.019498274e-04,1.907299277e-04,4.926797551e-04,1.646107458e-04,-2.597586819e-04,-9.514793607e-05,2.943049466e-04,8.523746958e-05,3.795424161e-04,3.219711665e-05,1.092934160e-04,1.414905326e-04,2.794909070e-04,2.016899318e-04,4.811808388e-04,-1.008544646e-03,1.374116051e-05,-9.948034858e-04,-7.182296344e-04,1.554219405e-04,-5.628076939e-04,-9.229273946e-04,-2.075861834e-05,-9.436860129e-04,-2.575177093e-04,1.588531545e-04,-9.866455481e-05,-8.439704071e-04,-1.214073997e-04,-9.653778068e-04,-1.196653251e-03,1.979675765e-04,-9.986856746e-04,-5.457128180e-04,-1.982173862e-04,-7.439302042e-04,-9.924483832e-04,1.067931640e-05,-9.817690668e-04,-2.772563511e-04,2.455068514e-05,-2.527056660e-04,2.140308620e-04,1.143994429e-04,3.284303049e-04,5.277189873e-04,-8.005294862e-04,-2.728104989e-04,3.205527492e-04,8.090647735e-05,4.014592265e-04,3.175651582e-04,8.051042280e-05,3.980755810e-04,-1.140964766e-03,1.614271319e-04,-9.795376343e-04,-6.846482328e-05,8.836433162e-05,1.989950834e-05,-1.138193079e-03,6.406640045e-05,-1.074126679e-03,-1.015843622e-04,-2.810246410e-04,-3.826090032e-04,-6.818546461e-04,-3.260213842e-05,-7.144567845e-04,7.151775730e-05,-1.463240824e-04,-7.480632509e-05,-1.003321065e-03,-1.787280472e-04,-1.182049113e-03,-3.421166315e-04,-1.017488161e-04,-4.438654476e-04,-1.677899085e-03,3.786443243e-04,-1.299254760e-03,-1.703721747e-03,-3.962720860e-04,-2.099993833e-03,-6.768368734e-04,1.637916915e-04,-5.130451819e-04,-1.664220071e-03,-1.965731762e-04,-1.860793247e-03
-4.5,1.477810946e-04,-6.059912071e-05,8.718197391e-05,1.718692398e-04,-9.066274982e-05,8.120649003e-05,3.594752536e-04,4.399065016e-05,4.034659037e-04,2.359203981e-04,7.039792710e-05,3.063183253e-04,5.070504592e-04,7.935711894e-05,5.864075781e-04,5.092869196e-05,2.002267005e-04,2.511553924e-04,3.248529109e-04,1.879436169e-04,5.127965278e-04,1.608189453e-04,-2.325230107e-04,-7.170406535e-05,3.021069453e-04,8.521664191e-05,3.873235872e-04,6.804169253e-05,1.090048683e-04,1.770465608e-04,2.790020673e-04,1.949345255e-04,4.739365929e-04,-9.647360922e-04,1.770241687e-05,-9.470336753e-04,-7.006600911e-04,1.571824461e-04,-5.434776450e-04,-8.546507375e-04,-1.027972966e-05,-8.649304672e-04,-2.322728301e-04,1.525797473e-04,-7.969308278e-05,-7.811202348e-04,-1.148546641e-04,-8.959748989e-04,-1.101733317e-03,2.102582163e-04,-8.914751009e-04,-4.856922874e-04,-1.865005632e-04,-6.721928506e-04,-9.170357435e-04,3.496574307e-05,-8.820700004e-04,-2.219736668e-04,3.086959150e-05,-1.911040753e-04,2.215748278e-04,1.079851519e-04,3.295599797e-04,5.184346403e-04,-7.274441832e-04,-2.090095429e-04,3.218902254e-04,7.244290971e-05,3.943331352e-04,3.240263945e-04,5.973850734e-05,3.837649018e-04,-1.124910588e-03,1.519809931e-04,-9.729295947e-04,-5.674382441e-05,7.942048515e-05,2.267666075e-05,-1.085578886e-03,4.673243871e-05,-1.038846447e-03,-4.089139993e-05,-2.700786436e-04,-3.109700435e-04,-6.374604489e-04,-1.984551430e-05,-6.573059632e-04,1.524993972e-04,-1.533757534e-04,-8.763561690e-07,-9.090913944e-04,-1.559739306e-04,-1.065065325e-03,-2.404295268e-04,-9.139230413e-05,-3.318218309e-04,-1.578443925e-03,3.580651670e-04,-1.220378758e-03,-1.570294474e-03,-3.582042759e-04,-1.928498750e-03,-5.759689139e-04,1.668880841e-04,-4.090808298e-04,-1.519843033e-03,-1.680866955e-04,-1.687929729e-03
-4.4,1.510392803e-04,-7.101295605e-05,8.002632429e-05,2.324319035e-04,-1.171722245e-04,1.152596789e-04,3.539229712e-04,2.947808756e-05,3.834010588e-04,2.662617459e-04,6.303139948e-05,3.292931454e-04,5.013902579e-04,6.775315474e-05,5.691434127e-04,1.078855217e-04,1.849383239e-04,2.928238456e-04,3.464942792e-04,1.839434033e-04,5.304376824e-04,1.559115449e-04,-2.037679948e-04,-4.785644995e-05,3.083682988e-04,8.468363152e-05,3.930519303e-04,1.040907670e-04,1.080552220e-04,2.121459890e-04,2.778914391e-04,1.872241317e-04,4.651155708e-04,-9.168015053e-04,2.131738762e-05,-8.954841177e-04,-6.805869354e-04,1.584627508e-04,-5.221241846e-04,-7.820789489e-04,-8.973480745e-07,-7.829762969e-04,-2.062868873e-04,1.456741621e-04,-6.061272527e-05,-7.147912407e-04,-1.075537506e-04,-8.223449913e-04,-1.002469707e-03,2.218608432e-04,-7.806088639e-04,-4.227188911e-04,-1.739460988e-04,-5.966649898e-04,-8.356821709e-04,5.838246883e-05,-7.772997021e-04,-1.638468161e-04,3.703653072e-05,-1.268102854e-04,2.289002533e-04,1.010286698e-04,3.299289231e-04,5.089881250e-04,-6.524180569e-04,-1.434299320e-04,3.227733484e-04,6.333392305e-05,3.861072715e-04,3.292991575e-04,3.872251793e-05,3.680216755e-04,-1.102637100e-03,1.407127403e-04,-9.619243602e-04,-4.453723370e-05,6.959640373e-05,2.505917003e-05,-1.027456606e-03,2.774023925e-05,-9.997163669e-04,1.999317220e-05,-2.568967667e-04,-2.369035945e-04,-5.889439062e-04,-7.265349426e-06,-5.962092556e-04,2.335744632e-04,-1.584190659e-04,7.515539736e-05,-8.098351896e-04,-1.308284869e-04,-9.406636765e-04,-1.359500963e-04,-7.922205750e-05,-2.151721538e-04,-1.471671155e-03,3.356147499e-04,-1.136056405e-03,-1.428305049e-03,-3.182348141e-04,-1.746539863e-03,-4.707340292e-04,1.687094960e-04,-3.020245332e-04,-1.366546457e-03,-1.394181125e-04,-1.505964569e-03
-4.3,1.537427138e-04,-8.107530583e-05,7.266740793e-05,2.939197044e-04,-1.434443748e-04,1.504753295e-04,3.473023120e-04,1.463681754e-05,3.619391296e-04,2.962808801e-04,5.504966723e-05,3.513305473e-04,4.942352090e-04,5.576887597e-05,5.500040850e-04,1.652400006e-04,1.693477014e-04,3.345877019e-04,3.664965532e-04,1.786993767e-04,5.451959300e-04,1.499072972e-04,-1.739222504e-04,-2.401495322e-05,3.128363570e-04,8.363442953e-05,3.964707865e-04,1.400524026e-04,1.064742036e-04,2.465266062e-04,2.758678424e-04,1.785611941e-04,4.544290366e-04,-8.650505916e-04,2.457669569e-05,-8.404738959e-04,-6.583424092e-04,1.591785596e-04,-4.991638496e-04,-7.055239260e-04,7.440564633e-06,-6.980833613e-04,-1.798568068e-04,1.381897492e-04,-4.166705765e-05,-6.451296864e-04,-9.954312649e-05,-7.446728129e-04,-8.989390754e-04,2.328911077e-04,-6.660479677e-04,-3.569224827e-04,-1.605638612e-04,-5.174863438e-04,-7.483690143e-04,8.073187389e-05,-6.676371404e-04,-1.030233476e-04,4.296382058e-05,-6.005952707e-05,2.356599057e-04,9.353590986e-05,3.291958155e-04,4.994228388e-04,-5.759271835e-04,-7.650434469e-05,3.228883959e-04,5.361817310e-05,3.765065690e-04,3.328990570e-04,1.762391842e-05,3.505229754e-04,-1.074812443e-03,1.279120572e-04,-9.469003860e-04,-3.223883913e-05,5.897862082e-05,2.673978169e-05,-9.643385401e-04,7.307357636e-06,-9.570311825e-04,8.054651686e-05,-2.415334576e-04,-1.609869407e-04,-5.365081956e-04,5.158336479e-06,-5.313498591e-04,3.143301504e-04,-1.613158198e-04,1.530143307e-04,-7.057889432e-04,-1.031229880e-04,-8.089119312e-04,-2.883074665e-05,-6.508241539e-05,-9.391316204e-05,-1.357120932e-03,3.114876164e-04,-1.045633316e-03,-1.277653617e-03,-2.763276784e-04,-1.553981295e-03,-3.611010679e-04,1.691361315e-04,-1.919649363e-04,-1.204319666e-03,-1.104326332e-04,-1.314752299e-03
-4.2,1.557134407e-04,-9.075830799e-05,6.495513275e-05,3.558720085e-04,-1.693948961e-04,1.864771124e-04,3.393558270e-04,-4.657267202e-07,3.388901003e-04,3.256403790e-04,4.646173151e-05,3.721021105e-04,4.853693642e-04,4.344793342e-05,5.288172976e-04,2.224570180e-04,1.535706453e-04,3.760276633e-04,3.844674338e-04,1.721917723e-04,5.566592061e-04,1.428192892e-04,-1.434365585e-04,-6.172692741e-07,3.152604368e-04,8.206959557e-05,3.973300324e-04,1.756164787e-04,1.042977227e-04,2.799142015e-04,2.726221140e-04,1.689554098e-04,4.415775238e-04,-8.098333223e-04,2.749175151e-05,-7.823415708e-04,-6.342796271e-04,1.592424906e-04,-4.750371365e-04,-6.253358432e-04,1.482058591e-05,-6.105152573e-04,-1.532920336e-04,1.301832000e-04,-2.310883361e-05,-5.723034385e-04,-9.086353080e-05,-6.631669693e-04,-7.912044898e-04,2.434670063e-04,-5.477374835e-04,-2.884563441e-04,-1.463631525e-04,-4.348194966e-04,-6.551487299e-04,1.018557577e-04,-5.532929722e-04,-3.968415581e-05,4.856652927e-05,8.882373463e-06,2.414864178e-04,8.551737920e-05,3.270037970e-04,4.897581510e-04,-4.984166035e-04,-8.658452529e-06,3.218999144e-04,4.334220105e-05,3.652421155e-04,3.343333596e-04,-3.402382207e-06,3.309309774e-04,-1.042190119e-03,1.138989304e-04,-9.282911881e-04,-2.026365488e-05,4.766738305e-05,2.740372817e-05,-8.967933488e-04,-1.431248175e-05,-9.111058306e-04,1.402247506e-04,-2.240557705e-04,-8.383101985e-05,-4.804066781e-04,1.745058692e-05,-4.629560911e-04,3.943375576e-04,-1.619443899e-04,2.323931677e-04,-5.972244408e-04,-7.273560003e-05,-6.699600408e-04,8.073244108e-05,-4.885198817e-05,3.188045291e-05,-1.234366369e-03,2.859343587e-04,-9.484320107e-04,-1.118256824e-03,-2.324636899e-04,-1.350720514e-03,-2.470641226e-04,1.680710513e-04,-7.899307130e-05,-1.033204925e-03,-8.099318182e-05,-1.114198107e-03
-4.1,1.567734104e-04,-1.000373867e-04,5.673602363e-05,4.177847334e-04,-1.949375969e-04,2.228471365e-04,3.298142245e-04,-1.575919008e-05,3.140550345e-04,3.539871849e-04,3.728372747e-05,3.912709124e-04,4.745629089e-04,3.083541760e-05,5.053983265e-04,2.789947442e-04,1.376972260e-04,4.166919702e-04,4.000049807e-04,1.644120714e-04,5.644170522e-04,1.346521699e-04,-1.127771200e-04,2.187504990e-05,3.153940496e-04,7.999421349e-05,3.953882631e-04,2.104601211e-04,1.015678225e-04,3.120279437e-04,2.678310398e-04,1.584240974e-04,4.262551372e-04,-7.515335646e-04,3.009314352e-05,-7.214404211e-04,-6.087665748e-04,1.585651498e-04,-4.502014251e-04,-5.418961793e-04,2.135908639e-05,-5.205370929e-04,-1.269095741e-04,1.217137443e-04,-5.195829847e-06,-4.965009411e-04,-8.155616478e-05,-5.780571059e-04,-6.793150438e-04,2.537052003e-04,-4.256098435e-04,-2.174956332e-04,-1.313533657e-04,-3.488489989e-04,-5.561449264e-04,1.216370169e-04,-4.345079095e-04,2.595496901e-05,5.376630027e-05,7.972126928e-05,2.459986687e-04,7.698891394e-05,3.229875827e-04,4.799945425e-04,-4.203093768e-04,5.968516576e-05,3.194555686e-04,3.256059833e-05,3.520161669e-04,3.331099473e-04,-2.420985699e-05,3.089000904e-04,-1.005590525e-03,9.901174020e-05,-9.065787850e-04,-9.040206502e-06,3.577532181e-05,2.673511531e-05,-8.254345593e-04,-3.683262644e-05,-8.622671858e-04,1.984689848e-04,-2.045394530e-04,-6.070468215e-06,-4.209389187e-04,2.963938984e-05,-3.912995288e-04,4.731562560e-04,-1.602018867e-04,3.129543693e-04,-4.844505460e-04,-3.959735765e-05,-5.240479037e-04,1.925036758e-04,-3.045363411e-05,1.620500417e-04,-1.103030682e-03,2.592743212e-04,-8.437563606e-04,-9.500529576e-04,-1.866382758e-04,-1.136691233e-03,-1.286472502e-04,1.654409843e-04,3.679373414e-05,-8.532919413e-04,-5.097116703e-05,-9.042631084e-04
-4,1.567482156e-04,-1.088904117e-04,4.785780390e-05,4.791164358e-04,-2.199816974e-04,2.591347384e-04,3.184004908e-04,-3.117123586e-05,2.872292549e-04,3.809569295e-04,2.753904521e-05,4.084959748e-04,4.615766308e-04,1.797756569e-05,4.795541965e-04,3.343126621e-04,1.217911571e-04,4.561038192e-04,4.127046633e-04,1.553639778e-04,5.680686412e-04,1.253973103e-04,-8.241449517e-05,4.298281510e-05,3.129983162e-04,7.741776362e-05,3.904160798e-04,2.442544412e-04,9.833248846e-05,3.425869296e-04,2.611625149e-04,1.469924633e-04,4.081549782e-04,-6.905587947e-04,3.242753189e-05,-6.581312628e-04,-5.821798800e-04,1.570574509e-04,-4.251224291e-04,-4.556084069e-04,2.719612468e-05,-4.284122823e-04,-1.010280215e-04,1.128425212e-04,1.181449971e-05,-4.179292290e-04,-7.166097220e-05,-4.895902012e-04,-5.633052079e-04,2.637153446e-04,-2.995898633e-04,-1.442354893e-04,-1.155445115e-04,-2.597800008e-04,-4.515493068e-04,1.399994423e-04,-3.115498645e-04,9.364185406e-05,5.849533358e-05,1.521371876e-04,2.488093204e-04,6.797223549e-05,3.167815559e-04,4.701219346e-04,-3.420212135e-04,1.281007211e-04,3.151923700e-04,2.133607769e-05,3.365284477e-04,3.287476081e-04,-4.466181385e-05,2.840857942e-04,-9.658770492e-04,8.359458980e-05,-8.822824594e-04,9.982160067e-07,2.342622741e-05,2.442444341e-05,-7.509066287e-04,-5.993941781e-05,-8.108460465e-04,2.547136476e-04,-1.830657095e-04,7.164793815e-05,-3.584450274e-04,4.175329733e-05,-3.166917301e-04,5.503420806e-04,-1.560088579e-04,3.943332228e-04,-3.678151475e-04,-3.695243867e-06,-3.715103914e-04,3.062125552e-04,-9.863249661e-06,2.963493056e-04,-9.628078456e-04,2.319076754e-04,-7.309001702e-04,-7.730099875e-04,-1.388579738e-04,-9.118679613e-04,-5.908228209e-06,1.611942942e-04,1.552860660e-04,-6.647151408e-04,-2.025244237e-05,-6.849675831e-04
-3.9,1.554713794e-04,-1.172967931e-04,3.817458630e-05,5.392965136e-04,-2.444292093e-04,2.948673043e-04,3.048349885e-04,-4.662858602e-05,2.582064025e-04,4.061794710e-04,1.725829189e-05,4.234377629e-04,4.461679345e-04,4.921505213e-06,4.510894397e-04,3.878793408e-04,1.058908768e-04,4.937702176e-04,4.221683554e-04,1.450640068e-04,5.672323622e-04,1.150278492e-04,-5.281002433e-05,6.221782485e-05,3.078464714e-04,7.435390887e-05,3.822003803e-04,2.766723588e-04,9.464519589e-05,3.713175547e-04,2.522819152e-04,1.346937026e-04,3.869756177e-04,-6.273267344e-04,3.455363841e-05,-5.927730960e-04,-5.548981933e-04,1.546342716e-04,-4.002639217e-04,-3.668866257e-04,3.248865652e-05,-3.343979692e-04,-7.596082748e-05,1.036319542e-04,2.767112677e-05,-3.368104913e-04,-6.121542094e-05,-3.980259123e-04,-4.431930894e-04,2.735933513e-04,-1.695997381e-04,-6.888870284e-05,-9.894733209e-05,-1.678360349e-04,-3.416163370e-04,1.569069589e-04,-1.847093781e-04,1.630869667e-04,6.270019124e-05,2.257871579e-04,2.495332098e-04,5.849544123e-05,3.080286510e-04,4.601295364e-04,-2.639762200e-04,1.961533165e-04,3.087439961e-04,9.739409251e-06,3.184834053e-04,3.207868289e-04,-6.463245007e-05,2.561543788e-04,-9.239264701e-04,6.798405572e-05,-8.559424144e-04,9.423410922e-06,1.075402280e-05,2.017743372e-05,-6.738703718e-04,-8.329874383e-05,-7.571691156e-04,3.083976299e-04,-1.597192852e-04,1.486783447e-04,-2.932989305e-04,5.381957541e-05,-2.394793551e-04,6.254563797e-04,-1.493149097e-04,4.761414700e-04,-2.477067584e-04,3.492812886e-05,-2.127786295e-04,4.215588228e-04,1.288448313e-05,4.344433059e-04,-8.134798103e-04,2.043180181e-04,-6.091617921e-04,-5.871340901e-04,-8.913742806e-05,-6.762715182e-04,1.210588291e-04,1.552976093e-04,2.763564384e-04,-4.676544163e-04,1.126135688e-05,-4.563930594e-04
-3.8,1.527888879e-04,-1.252366351e-04,2.755225287e-05,5.977352349e-04,-2.681730799e-04,3.295621550e-04,2.888412196e-04,-6.205819986e-05,2.267830197e-04,4.292853054e-04,6.479078991e-06,4.357643844e-04,4.280977803e-04,-8.285056397e-06,4.198127239e-04,4.391795323e-04,9.001194743e-05,5.291914797e-04,4.280144544e-04,1.335417412e-04,5.615561956e-04,1.034953866e-04,-2.440215027e-05,7.909323634e-05,2.997286816e-04,7.082027001e-05,3.705489516e-04,3.073967108e-04,9.056423988e-05,3.979609506e-04,2.408591604e-04,1.215689799e-04,3.624281402e-04,-5.622518947e-04,3.653831604e-05,-5.257135787e-04,-5.272950744e-04,1.512188573e-04,-3.760762171e-04,-2.761438699e-04,3.740377351e-05,-2.387400964e-04,-5.200983979e-05,9.414540149e-05,4.213556170e-05,-2.533772401e-04,-5.025457302e-05,-3.036318132e-04,-3.189782776e-04,2.834147709e-04,-3.556350666e-05,8.316340150e-06,-8.157255742e-05,-7.325621727e-05,-2.266575233e-04,1.723636535e-04,-5.429386979e-05,2.339636078e-04,6.634475978e-05,3.003083676e-04,2.477959561e-04,4.859350759e-05,2.963894637e-04,4.500138451e-04,-1.866186456e-04,2.633951995e-04,2.997484177e-04,-2.150817310e-06,2.975976003e-04,3.087999643e-04,-8.400751810e-05,2.247924462e-04,-8.805956064e-04,5.249524912e-05,-8.281003573e-04,1.582251532e-05,-2.098257783e-06,1.372425754e-05,-5.949899891e-04,-1.065613539e-04,-7.015513429e-04,3.589778722e-04,-1.345885533e-04,2.243893189e-04,-2.259012554e-04,6.586328351e-05,-1.600379719e-04,6.980747960e-04,-1.401038513e-04,5.579709447e-04,-1.245548523e-04,7.617721255e-05,-4.837763974e-05,5.382151527e-04,3.769462154e-05,5.759097742e-04,-6.549284671e-04,1.770635238e-04,-4.778649433e-04,-3.924772867e-04,-3.749781666e-05,-4.299751034e-04,2.521210698e-04,1.477329841e-04,3.998540539e-04,-2.623382759e-04,4.365450515e-05,-2.186837707e-04
-3.7,1.485633459e-04,-1.326900767e-04,1.587326919e-05,6.538348627e-04,-2.910966327e-04,3.627382300e-04,2.701515718e-04,-7.738854574e-05,1.927630261e-04,4.499121046e-04,-4.754318798e-06,4.451577858e-04,4.071374807e-04,-2.159421442e-05,3.855432663e-04,4.877199158e-04,7.415094769e-05,5.618708635e-04,4.298878509e-04,1.208400009e-04,5.507278518e-04,9.072938639e-05,2.405719390e-06,9.313510578e-05,2.884563430e-04,6.683827121e-05,3.552946142e-04,3.361276972e-04,8.615200137e-05,4.222796986e-04,2.265757862e-04,1.076673702e-04,3.342431565e-04,-4.957356389e-04,3.845346707e-05,-4.572821718e-04,-4.997318115e-04,1.467471523e-04,-3.529846592e-04,-1.837820559e-04,4.211235723e-05,-1.416696986e-04,-2.946007152e-05,8.444740316e-05,5.498733163e-05,-1.678672663e-04,-3.881253403e-05,-2.066798003e-04,-1.906411036e-04,2.932294322e-04,1.025883286e-04,8.713646091e-05,-6.342915492e-05,2.370730599e-05,-1.070366722e-04,1.864146256e-04,7.937795333e-05,3.059097351e-04,6.941170842e-05,3.753214435e-04,2.432421633e-04,3.830867024e-05,2.815508336e-04,4.397830255e-04,-1.104190888e-04,3.293639367e-04,2.878551109e-04,-1.424862161e-05,2.736064893e-04,2.924000320e-04,-1.026845768e-04,1.897154553e-04,-8.366882804e-04,3.740785787e-05,-7.992804226e-04,1.980762293e-05,-1.497995206e-05,4.827670871e-06,-5.149218211e-04,-1.293675900e-04,-6.442894112e-04,4.059434780e-04,-1.077674128e-04,2.981760652e-04,-1.566721749e-04,7.790685957e-05,-7.876531529e-05,7.677941992e-04,-1.283972656e-04,6.393969336e-04,1.172085537e-06,1.199066743e-04,1.210787599e-04,6.558273080e-04,6.441482931e-05,7.202421373e-04,-4.871453379e-04,1.507621092e-04,-3.363832287e-04,-1.891440172e-04,1.603249702e-05,-1.731115201e-04,3.871034035e-04,1.384972454e-04,5.256006488e-04,-4.904768271e-05,7.699955898e-05,2.795187627e-05
-3.6,1.426772580e-04,-1.396368128e-04,3.040445216e-06,7.070011975e-04,-3.130743549e-04,3.939268426e-04,2.485125143e-04,-9.255083201e-05,1.559616823e-04,4.677107206e-04,-1.639134232e-05,4.513193783e-04,3.830746138e-04,-3.495824030e-05,3.481163735e-04,5.330333165e-04,5.829102367e-05,5.913243402e-04,4.274689244e-04,1.070151172e-04,5.344840417e-04,7.664026934e-05,2.725437346e-05,1.038946428e-04,2.738655463e-04,6.243307148e-05,3.362986177e-04,3.625891824e-04,8.147424412e-05,4.440634266e-04,2.091316130e-04,9.304577574e-05,3.021773887e-04,-4.281613433e-04,4.037352514e-05,-3.877878182e-04,-4.725509278e-04,1.411713142e-04,-3.313796135e-04,-9.018464047e-05,4.678318100e-05,-4.340145947e-05,-8.575787517e-06,7.460437020e-05,6.602858268e-05,-8.051989053e-05,-2.692443204e-05,-1.074443226e-04,-5.814516516e-05,3.030584492e-04,2.449132840e-04,1.673129898e-04,-4.452200330e-05,1.227909865e-04,1.683458856e-05,1.991457455e-04,2.159803341e-04,3.785314933e-04,7.190214001e-05,4.504336333e-04,2.355428493e-04,2.769048898e-05,2.632333383e-04,4.294572252e-04,-3.587519048e-05,3.935820347e-04,2.727316076e-04,-2.646122063e-05,2.462703869e-04,2.712479007e-04,-1.205727880e-04,1.506751128e-04,-7.929271192e-04,2.295437287e-05,-7.699727464e-04,2.102410830e-05,-2.773491297e-05,-6.710804670e-06,-4.343031859e-04,-1.513535213e-04,-5.856567072e-04,4.488279231e-04,-7.935769239e-05,3.694702307e-04,-8.604421289e-05,8.996946697e-05,3.925254082e-06,8.342373991e-04,-1.142557775e-04,7.199816215e-04,1.289710030e-04,1.659240591e-04,2.948950621e-04,7.740125856e-04,9.284138688e-05,8.668539725e-04,-3.102417753e-04,1.260767117e-04,-1.841650635e-04,2.270314462e-05,7.141469327e-05,9.411783789e-05,5.257833993e-04,1.276040032e-04,6.533874025e-04,1.718803754e-04,1.113587196e-04,2.832390950e-04
-3.5,1.350353669e-04,-1.460556697e-04,-1.102030277e-05,7.566550652e-04,-3.339735782e-04,4.226814870e-04,2.236891957e-04,-1.074800654e-04,1.162091303e-04,4.823504934e-04,-2.837551343e-05,4.539749800e-04,3.557180503e-04,-4.832986043e-05,3.073881899e-04,5.746824061e-04,4.240812788e-05,6.170905339e-04,4.204815614e-04,9.213726613e-05,5.126188275e-04,6.112651209e-05,4.983388506e-05,1.109603971e-04,2.558199938e-04,5.763354887e-05,3.134535427e-04,3.865340319e-04,7.659938074e-05,4.631334127e-04,1.882510179e-04,7.776878513e-05,2.660198030e-04,-3.598937551e-04,4.237301075e-05,-3.175207443e-04,-4.460707729e-04,1.344620218e-04,-3.116087511e-04,4.288137267e-06,5.157723725e-05,5.586537451e-05,1.040294090e-05,6.468512536e-05,7.508806626e-05,8.425918399e-06,-1.462790386e-05,-6.201985456e-06,7.855559168e-05,3.128945812e-04,3.914501728e-04,2.485704340e-04,-2.484977284e-05,2.237206611e-04,1.445027748e-04,2.106799308e-04,3.551827056e-04,4.514084732e-04,7.383358705e-05,5.252420602e-04,2.244020173e-04,1.679559497e-05,2.411976123e-04,4.190641306e-04,3.649482344e-05,4.555589541e-04,2.540696346e-04,-3.868971892e-05,2.153799156e-04,2.450580380e-04,-1.375921085e-04,1.074659295e-04,-7.499328834e-04,9.313212170e-06,-7.406196712e-04,1.915757729e-05,-4.020391017e-05,-2.104633288e-05,-3.537401153e-04,-1.721591715e-04,-5.258992869e-04,4.872186442e-04,-4.947103252e-05,4.377476116e-04,-1.445514967e-05,1.020661734e-04,8.761102378e-05,8.970564607e-04,-9.777796402e-05,7.992784966e-04,2.583105947e-04,2.139926626e-04,4.723032573e-04,8.923576473e-04,1.227273930e-04,1.015085040e-03,-1.244583338e-04,1.037023790e-04,-2.075595482e-05,2.428382056e-04,1.285945785e-04,3.714327841e-04,6.678843823e-04,1.150881469e-04,7.829725292e-04,4.000493014e-04,1.467846059e-04,5.468339073e-04
