Time,S1D1HbO,S1D1HbR,S1D1HbT,S2D2HbO,S2D2HbR,S2D2HbT,S3D3HbO,S3D3HbR,S3D3HbT,S4D4HbO,S4D4HbR,S4D4HbT,S5D5HbO,S5D5HbR,S5D5HbT,S6D6HbO,S6D6HbR,S6D6HbT,S7D7HbO,S7D7HbR,S7D7HbT,S8D8HbO,S8D8HbR,S8D8HbT,S9D9HbO,S9D9HbR,S9D9HbT,S10D10HbO,S10D10HbR,S10D10HbT,S11D11HbO,S11D11HbR,S11D11HbT,S12D12HbO,S12D12HbR,S12D12HbT,S13D13HbO,S13D13HbR,S13D13HbT,S14D14HbO,S14D14HbR,S14D14HbT,S15D15HbO,S15D15HbR,S15D15HbT,S16D16HbO,S16D16HbR,S16D16HbT,S17D17HbO,S17D17HbR,S17D17HbT,S18D18HbO,S18D18HbR,S18D18HbT,S19D19HbO,S19D19HbR,S19D19HbT,S20D20HbO,S20D20HbR,S20D20HbT,S21D21HbO,S21D21HbR,S21D21HbT,S22D22HbO,S22D22HbR,S22D22HbT,S23D23HbO,S23D23HbR,S23D23HbT,S24D24HbO,S24D24HbR,S24D24HbT,S25D25HbO,S25D25HbR,S25D25HbT,S26D26HbO,S26D26HbR,S26D26HbT,S27D27HbO,S27D27HbR,S27D27HbT,S28D28HbO,S28D28HbR,S28D28HbT,S29D29HbO,S29D29HbR,S29D29HbT,S30D30HbO,S30D30HbR,S30D30HbT,S31D31HbO,S31D31HbR,S31D31HbT,S32D32HbO,S32D32HbR,S32D32HbT,S33D33HbO,S33D33HbR,S33D33HbT,S34D34HbO,S34D34HbR,S34D34HbT,S35D35HbO,S35D35HbR,S35D35HbT,S36D36HbO,S36D36HbR,S36D36HbT,
-10,1.221890794e-03,-1.447707044e-04,1.077120090e-03,-8.207186728e-04,2.973321999e-04,-5.233864728e-04,9.806431572e-04,3.461483052e-05,1.015257988e-03,3.269041660e-04,8.021125994e-05,4.071154260e-04,9.194488619e-04,-1.268747701e-04,7.925740917e-04,-5.680670357e-04,4.179351694e-04,-1.501318664e-04,-1.128591967e-04,3.956013722e-06,-1.089031830e-04,3.016920210e-04,4.520449969e-04,7.537370179e-04,-2.604531020e-04,1.935585943e-04,-6.689450771e-05,-6.712993557e-04,5.650168382e-04,-1.062825175e-04,1.935460818e-04,2.404378377e-04,4.339839195e-04,1.325779322e-03,5.842390616e-04,1.910018383e-03,1.000984954e-03,3.646678175e-04,1.365652772e-03,-1.278551761e-04,2.947095791e-05,-9.838421815e-05,4.365915878e-04,3.620959075e-04,7.986874953e-04,1.204757588e-03,2.689335980e-04,1.473691186e-03,9.717579788e-04,2.189547896e-04,1.190712768e-03,2.352268944e-03,3.511614573e-04,2.703430401e-03,1.323639461e-03,3.762288979e-04,1.699868359e-03,-9.069444941e-04,1.063557091e-03,1.566125969e-04,-2.894651140e-04,-6.415350124e-05,-3.536186153e-04,-3.970461281e-04,4.240400084e-04,2.699388027e-05,1.807704868e-04,1.030179737e-04,2.837884605e-04,-9.003971267e-04,6.286150733e-04,-2.717820534e-04,-6.603157844e-05,-4.398267572e-04,-5.058583356e-04,-5.772269249e-04,-1.902451221e-04,-7.674720470e-04,-3.933352743e-04,-3.667394440e-04,-7.600747183e-04,-1.664995523e-03,2.638229093e-04,-1.401172614e-03,2.851268846e-04,1.375497523e-04,4.226766369e-04,-5.316870397e-04,-5.353953499e-05,-5.852265747e-04,6.275940403e-04,3.859535033e-05,6.661893906e-04,1.204389132e-04,9.988723234e-05,2.203261455e-04,2.030842680e-03,-3.732187115e-05,1.993520809e-03,-1.519482304e-05,-3.332043120e-04,-3.483991350e-04,6.114146300e-04,3.235917354e-04,9.350063654e-04,4.339511716e-04,-2.229420820e-04,2.110090896e-04
-9.9,1.261646185e-03,-1.640760369e-04,1.097570148e-03,-7.310837732e-04,2.744581672e-04,-4.566256060e-04,1.025872255e-03,1.501272813e-05,1.040884983e-03,3.889517331e-04,7.667900200e-05,4.656307351e-04,9.220545295e-04,-1.195424923e-04,8.025120372e-04,-4.980687237e-04,3.924235585e-04,-1.056451652e-04,-5.492624777e-05,-8.954032951e-06,-6.388028072e-05,3.297539388e-04,4.599088045e-04,7.896627433e-04,-2.165576097e-04,1.820041833e-04,-3.455342634e-05,-5.793718678e-04,5.343046496e-04,-4.506721820e-05,3.198170317e-04,2.209611317e-04,5.407781634e-04,1.386679023e-03,5.711156246e-04,1.957794647e-03,1.083180434e-03,3.504915800e-04,1.433672014e-03,-7.720556360e-05,6.108324579e-06,-7.109723902e-05,5.307033530e-04,3.321344252e-04,8.628377781e-04,1.257496849e-03,2.636368128e-04,1.521133661e-03,1.024562864e-03,2.095360777e-04,1.234098942e-03,2.417457783e-03,3.389886973e-04,2.756446480e-03,1.404240739e-03,3.483240375e-04,1.752564777e-03,-8.087132074e-04,1.030454357e-03,2.217411492e-04,-1.757934643e-04,-7.917838773e-05,-2.549718520e-04,-3.214052247e-04,3.952551585e-04,7.384993384e-05,2.907355903e-04,9.737168612e-05,3.881072765e-04,-7.966961345e-04,6.117622996e-04,-1.849338350e-04,3.178702680e-05,-4.622354320e-04,-4.304484052e-04,-4.808049678e-04,-2.306492754e-04,-7.114542432e-04,-3.069250433e-04,-3.720554634e-04,-6.789805067e-04,-1.578292438e-03,2.313228026e-04,-1.346969635e-03,3.532083997e-04,1.153815221e-04,4.685899218e-04,-4.399282694e-04,-8.233037696e-05,-5.222586463e-04,6.881093584e-04,3.180135250e-05,7.199107109e-04,1.970797874e-04,8.594290074e-05,2.830226881e-04,2.090492745e-03,-5.384937183e-05,2.036643373e-03,7.191956551e-05,-3.642805354e-04,-2.923609699e-04,6.817454321e-04,3.223242679e-04,1.004069700e-03,5.030137771e-04,-2.694176189e-04,2.335961582e-04
-9.8,1.295563898e-03,-1.834410610e-04,1.112122837e-03,-6.417352721e-04,2.510364590e-04,-3.906988131e-04,1.064470089e-03,-7.982588567e-06,1.056487501e-03,4.481319379e-04,7.368584733e-05,5.218177853e-04,9.187328453e-04,-1.134609445e-04,8.052719007e-04,-4.283469167e-04,3.649650232e-04,-6.338189348e-05,1.658412448e-06,-2.311073300e-05,-2.145232056e-05,3.568639863e-04,4.664508821e-04,8.233148685e-04,-1.749980062e-04,1.688800791e-04,-6.117927157e-06,-4.877713140e-04,5.018935023e-04,1.412218835e-05,4.417397300e-04,1.999740390e-04,6.417137690e-04,1.448495986e-03,5.575723522e-04,2.006068338e-03,1.166088433e-03,3.356766774e-04,1.501765110e-03,-2.690585285e-05,-1.704699851e-05,-4.395285136e-05,6.246010110e-04,3.016716432e-04,9.262726541e-04,1.310355572e-03,2.572361338e-04,1.567591706e-03,1.079441998e-03,1.995474242e-04,1.278989422e-03,2.480740012e-03,3.259402577e-04,2.806680270e-03,1.483416340e-03,3.202700136e-04,1.803686354e-03,-7.095708808e-04,9.944109971e-04,2.848401162e-04,-6.380289627e-05,-9.477344173e-05,-1.585763380e-04,-2.472120905e-04,3.654860157e-04,1.182739252e-04,3.971146717e-04,8.974972633e-05,4.868643980e-04,-6.951111641e-04,5.936527809e-04,-1.014583832e-04,1.289855925e-04,-4.848783514e-04,-3.558927589e-04,-3.842523981e-04,-2.710225125e-04,-6.552749106e-04,-2.234504523e-04,-3.757928959e-04,-5.992433482e-04,-1.489045536e-03,1.974127355e-04,-1.291632801e-03,4.194698249e-04,9.277036018e-05,5.122401850e-04,-3.502030639e-04,-1.130053708e-04,-4.632084347e-04,7.474441891e-04,2.457456182e-05,7.720187510e-04,2.728276479e-04,7.044751371e-05,3.432751616e-04,2.148095400e-03,-6.929063196e-05,2.078804768e-03,1.549972569e-04,-3.944455332e-04,-2.394482763e-04,7.541144585e-04,3.166576169e-04,1.070772075e-03,5.698203226e-04,-3.174220698e-04,2.523982527e-04
-9.7,1.323287146e-03,-2.029478413e-04,1.120339305e-03,-5.530050508e-04,2.271187735e-04,-3.258862773e-04,1.096064293e-03,-3.452083062e-05,1.061543463e-03,5.040937085e-04,7.126699365e-05,5.753607021e-04,9.094661499e-04,-1.086459384e-04,8.008202115e-04,-3.592352695e-04,3.357289344e-04,-2.350633515e-05,5.659583211e-05,-3.848912316e-05,1.810670895e-05,3.829437595e-04,4.714831102e-04,8.544268696e-04,-1.359283024e-04,1.542276325e-04,1.829933012e-05,-3.968930380e-04,4.678727462e-04,7.097970827e-05,5.584755140e-04,1.775512985e-04,7.360268125e-04,1.511103945e-03,5.435749259e-04,2.054678871e-03,1.249322645e-03,3.203216723e-04,1.569644317e-03,2.286916973e-05,-3.995771979e-05,-1.708855006e-05,7.179233602e-04,2.707723966e-04,9.886957568e-04,1.363048965e-03,2.497242795e-04,1.612773244e-03,1.136074694e-03,1.889964771e-04,1.325071171e-03,2.541798858e-03,3.120483518e-04,2.853847210e-03,1.560697929e-03,2.922733552e-04,1.852971284e-03,-6.099513922e-04,9.555945323e-04,3.456431401e-04,4.581464760e-05,-1.109648615e-04,-6.515021388e-05,-1.747044893e-04,3.347687846e-04,1.600642953e-04,4.992887067e-04,8.011678928e-05,5.794054960e-04,-5.958996102e-04,5.743266957e-04,-2.157291449e-05,2.249920290e-04,-5.076986203e-04,-2.827065912e-04,-2.879643322e-04,-3.112795522e-04,-5.992438844e-04,-1.431827628e-04,-3.782021127e-04,-5.213848755e-04,-1.397604995e-03,1.621401235e-04,-1.235464871e-03,4.835461337e-04,6.978412767e-05,5.533302614e-04,-2.630236039e-04,-1.454580811e-04,-4.084816850e-04,8.051690890e-04,1.691194834e-05,8.220810373e-04,3.472056524e-04,5.348589415e-05,4.006915465e-04,2.203390315e-03,-8.390128106e-05,2.119489034e-03,2.335686778e-04,-4.232371669e-04,-1.896684891e-04,8.279247879e-04,3.066977062e-04,1.134622494e-03,6.339645602e-04,-3.665748076e-04,2.673897527e-04
-9.6,1.344550280e-03,-2.226820635e-04,1.121868217e-03,-4.652069824e-04,2.027528438e-04,-2.624541386e-04,1.120379416e-03,-6.471666107e-05,1.055662755e-03,5.565327989e-04,6.944911120e-05,6.259819101e-04,8.943028633e-04,-1.051112252e-04,7.891916381e-04,-2.910690978e-04,3.049037776e-04,1.383467985e-05,1.096064859e-04,-5.506003680e-05,5.454644905e-05,4.078985023e-04,4.748402959e-04,8.827387982e-04,-9.947306519e-05,1.380951059e-04,3.862204069e-05,-3.071118783e-04,4.323381738e-04,1.252262955e-04,6.692474002e-04,1.537722692e-04,8.230196694e-04,1.574375590e-03,5.291002651e-04,2.103475855e-03,1.332487301e-03,3.045275893e-04,1.637014890e-03,7.194557459e-05,-6.259143333e-05,9.354141261e-06,8.103096493e-04,2.395005884e-04,1.049810238e-03,1.415290146e-03,2.411066840e-04,1.656396830e-03,1.194056260e-03,1.779230979e-04,1.371979358e-03,2.600326904e-03,2.973556855e-04,2.897682589e-03,1.635632278e-03,2.645297026e-04,1.900161981e-03,-5.102890454e-04,9.141899247e-04,4.039008793e-04,1.523994372e-04,-1.277751050e-04,2.462433222e-05,-1.041042659e-04,3.031472961e-04,1.990430302e-04,5.966816792e-04,6.845582228e-05,6.651375015e-04,-4.992987078e-04,5.538352161e-04,5.453650827e-05,3.192212326e-04,-5.306335358e-04,-2.114123032e-04,-1.923458676e-04,-3.513257893e-04,-5.436716570e-04,-6.635153058e-05,-3.795621884e-04,-4.459137189e-04,-1.304338045e-03,1.255634576e-04,-1.178774588e-03,5.450920821e-04,4.649026217e-05,5.915823443e-04,-1.788867121e-04,-1.795680292e-04,-3.584547412e-04,8.608569775e-04,8.812560923e-06,8.696695385e-04,4.197492140e-04,3.514546902e-05,4.548946830e-04,2.256118614e-03,-9.792950061e-05,2.158189113e-03,3.072121101e-04,-4.502926973e-04,-1.430805872e-04,9.025741027e-04,2.925942038e-04,1.195168306e-03,6.950114386e-04,-4.164694357e-04,2.785420029e-04
-9.5,1.359178177e-03,-2.427315758e-04,1.116446601e-03,-3.786342705e-04,1.779830685e-04,-2.006512020e-04,1.137235559e-03,-9.864553137e-05,1.038590028e-03,6.051933408e-04,6.825145938e-05,6.734448002e-04,8.733551903e-04,-1.028676328e-04,7.704875575e-04,-2.241833157e-04,2.726947965e-04,4.851148078e-05,1.604324358e-04,-7.278917518e-05,8.764326058e-05,4.316203697e-04,4.763845302e-04,9.080049000e-04,-6.572785151e-05,1.205373552e-04,5.480950366e-05,-2.187804036e-04,3.953922953e-04,1.766118917e-04,7.733462059e-04,1.287207157e-04,9.020669216e-04,1.638182887e-03,5.141388548e-04,2.152321742e-03,1.415181683e-03,2.883965427e-04,1.703578226e-03,1.201508058e-04,-8.491964092e-05,3.523116485e-05,9.014002623e-04,2.079202566e-04,1.109320519e-03,1.466794447e-03,2.314019599e-04,1.698196407e-03,1.252905613e-03,1.663990477e-04,1.419304661e-03,2.656029961e-03,2.819153611e-04,2.937945322e-03,1.707783655e-03,2.372220388e-04,1.945005694e-03,-4.110141596e-04,8.703973066e-04,4.593831469e-04,2.553293215e-04,-1.452219660e-04,1.101073555e-04,-3.561641387e-05,2.706729738e-04,2.350565600e-04,6.887644881e-04,5.476834238e-05,7.435328304e-04,-4.055253594e-04,5.322401461e-04,1.267147867e-04,4.110794094e-04,-5.536138072e-04,-1.425343977e-04,-9.780906693e-05,-3.910576138e-04,-4.888666808e-04,6.846307537e-06,-3.801693242e-04,-3.733230166e-04,-1.209625982e-03,8.775306934e-05,-1.121872913e-03,6.037853069e-04,2.295549199e-05,6.267407989e-04,-9.826720870e-05,-2.152038766e-04,-3.134710853e-04,9.140871187e-04,2.787765130e-07,9.143658952e-04,4.900092594e-04,1.551702425e-05,5.055262836e-04,2.306006278e-03,-1.116021306e-04,2.194404147e-03,3.755625012e-04,-4.753486337e-04,-9.978613255e-05,9.774600856e-04,2.745413423e-04,1.252001428e-03,7.525044038e-04,-4.666864356e-04,2.858179682e-04
-9.4,1.367082368e-03,-2.631838145e-04,1.103898554e-03,-2.935582851e-04,1.528510805e-04,-1.407072046e-04,1.146542147e-03,-1.363399077e-04,1.010202239e-03,6.498683119e-04,6.768698442e-05,7.175552963e-04,8.467949883e-04,-1.019220993e-04,7.448728890e-04,-1.589101097e-04,2.393201939e-04,8.041008420e-05,2.088380095e-04,-9.163621457e-05,1.172017949e-04,4.539913323e-04,4.760091080e-04,9.300004403e-04,-3.476147193e-05,1.016155338e-04,6.685406183e-05,-1.322284691e-04,3.571445155e-04,2.249160464e-04,8.701343776e-04,1.024846247e-04,9.726190023e-04,1.702395275e-03,4.986963359e-04,2.201091611e-03,1.497002803e-03,2.720306996e-04,1.769033502e-03,1.673131252e-04,-1.069166908e-04,6.039643442e-05,9.908364020e-04,1.760963489e-04,1.166932751e-03,1.517282476e-03,2.206425907e-04,1.737925067e-03,1.312076573e-03,1.545259043e-04,1.466602478e-03,2.708629384e-03,2.657906596e-04,2.974420044e-03,1.776736049e-03,2.105177864e-04,1.987253835e-03,-3.125492275e-04,8.244294243e-04,5.118801968e-04,3.540235241e-04,-1.633177754e-04,1.907057487e-04,3.057075543e-05,2.374046080e-04,2.679753634e-04,7.750571638e-04,3.907450595e-05,8.141316697e-04,-3.147774009e-04,5.096134071e-04,1.948360062e-04,4.999672425e-04,-5.765627123e-04,-7.659546974e-05,-4.771451652e-06,-4.303629733e-04,-4.351344250e-04,7.623508505e-05,-3.803255576e-04,-3.040904725e-04,-1.113863920e-03,4.879230654e-05,-1.065071614e-03,6.593280237e-04,-7.541604012e-07,6.585738633e-04,-2.161386153e-05,-2.522259396e-04,-2.738398011e-04,9.644483173e-04,-8.682655945e-06,9.557656614e-04,5.575540918e-04,-5.304818827e-06,5.522492730e-04,2.352757194e-03,-1.251178683e-04,2.227639326e-03,4.383115094e-04,-4.982329702e-04,-5.992146073e-05,1.051984144e-03,2.527778525e-04,1.304761997e-03,8.059742940e-04,-5.168073672e-04,2.891669268e-04
-9.3,1.368253807e-03,-2.841225108e-04,1.084131296e-03,-2.102289632e-04,1.273963173e-04,-8.283264596e-05,1.148286845e-03,-1.777855924e-04,9.705012522e-04,6.903992270e-04,6.776303797e-05,7.581622650e-04,8.148479826e-04,-1.022766013e-04,7.125713813e-04,-9.557639489e-05,2.050062167e-04,1.094298218e-04,2.546092733e-04,-1.115540683e-04,1.430552050e-04,4.748868057e-04,4.736401348e-04,9.485269405e-04,-6.619415967e-06,8.139679952e-05,7.477738356e-05,-4.776381121e-05,3.177113412e-04,2.699475300e-04,9.590479047e-04,7.515607994e-05,1.034203985e-03,1.766876536e-03,4.827942884e-04,2.249670824e-03,1.577546162e-03,2.555320770e-04,1.833078239e-03,2.132604871e-04,-1.285586228e-04,8.470186436e-05,1.078259667e-03,1.440950512e-04,1.222354718e-03,1.566482200e-03,2.088755161e-04,1.775357716e-03,1.370973206e-03,1.424313035e-04,1.513404509e-03,2.757862709e-03,2.490546997e-04,3.006917408e-03,1.842095425e-03,1.845650413e-04,2.026660466e-03,-2.153053335e-04,7.765090179e-04,5.612036844e-04,4.479452552e-04,-1.820687684e-04,2.658764868e-04,9.428484565e-05,2.034080061e-04,2.976928518e-04,8.551300433e-04,2.141307448e-05,8.765431178e-04,-2.272356236e-04,4.860364568e-04,2.588008332e-04,5.852821267e-04,-5.993951864e-04,-1.411305973e-05,8.634427050e-05,-4.691220292e-04,-3.827777587e-04,1.416488943e-04,-3.803287923e-04,-2.386798980e-04,-1.017461699e-03,8.778573751e-06,-1.008683126e-03,7.114475720e-04,-2.457301651e-05,6.868745555e-04,5.065251560e-05,-2.904877541e-04,-2.398352385e-04,1.011541550e-03,-1.805971496e-05,9.934818348e-04,6.219705199e-04,-2.722149937e-05,5.947490206e-04,2.396052086e-03,-1.386431854e-04,2.257408900e-03,4.952001699e-04,-5.188521724e-04,-2.365200250e-05,1.125554537e-03,2.275856383e-04,1.353140175e-03,8.549496962e-04,-5.664282949e-04,2.885214013e-04
-9.2,1.362753979e-03,-3.056247463e-04,1.057129233e-03,-1.288757810e-04,1.016566145e-04,-2.721916654e-05,1.142521959e-03,-2.229180193e-04,9.196039399e-04,7.266755453e-04,6.848182941e-05,7.951573747e-04,7.777873836e-04,-1.039271244e-04,6.738602592e-04,-3.450117431e-05,1.699822168e-04,1.354810425e-04,2.975534262e-04,-1.324883935e-04,1.650650327e-04,4.941810612e-04,4.692353134e-04,9.634163746e-04,1.867299623e-05,5.995402410e-05,7.862702033e-05,3.432722444e-05,2.772167991e-04,3.115440236e-04,1.039597535e-03,4.683121736e-05,1.086428753e-03,1.831482249e-03,4.664701106e-04,2.297952360e-03,1.656406087e-03,2.390031958e-04,1.895409283e-03,2.578199382e-04,-1.498219411e-04,1.079979971e-04,1.163312985e-03,1.119836715e-04,1.275296657e-03,1.614130927e-03,1.961620692e-04,1.810292996e-03,1.428967825e-03,1.302638505e-04,1.559231675e-03,2.803483781e-03,2.317898598e-04,3.035273641e-03,1.903491973e-03,1.594893090e-04,2.062981282e-03,-1.196780874e-04,7.268661856e-04,6.071880982e-04,5.366041524e-04,-2.014746181e-04,3.351295343e-04,1.553689520e-04,1.687557155e-04,3.241246675e-04,9.286049816e-04,1.841338229e-06,9.304463198e-04,-1.430653173e-04,4.615996946e-04,3.185343773e-04,6.664207915e-04,-6.220169831e-04,4.440380835e-05,1.751107199e-04,-5.072077988e-04,-3.320970789e-04,2.029228855e-04,-3.804648064e-04,-1.775419209e-04,-9.208435717e-04,-3.217634144e-05,-9.530199131e-04,7.598966214e-04,-4.843511470e-05,7.114615067e-04,1.181402100e-04,-3.298370868e-04,-2.116968768e-04,1.054982768e-03,-2.783432564e-05,1.027148442e-03,6.828652330e-04,-5.013065711e-05,6.327345759e-04,2.435548042e-03,-1.523074213e-04,2.283240621e-03,5.460094221e-04,-5.371772304e-04,8.832191645e-06,1.197590747e-03,1.992863369e-04,1.396877084e-03,8.989687918e-04,-6.151706207e-04,2.837981711e-04
-9.1,1.350706459e-03,-3.277589852e-04,1.022947474e-03,-4.970810108e-05,7.566872464e-05,2.596062355e-05,1.129351322e-03,-2.716189406e-04,8.577323809e-04,7.586339708e-04,6.984105609e-05,8.284750269e-04,7.359281159e-04,-1.068628858e-04,6.290652300e-04,2.400737406e-05,1.344765574e-04,1.584839315e-04,3.374992049e-04,-1.543773436e-04,1.831218613e-04,5.117544769e-04,4.627813058e-04,9.745357827e-04,4.110887148e-05,3.736551450e-05,7.847438597e-05,1.137798357e-04,2.357930029e-04,3.495728386e-04,1.111370424e-03,1.761024070e-05,1.128980665e-03,1.896059305e-03,4.497761396e-04,2.345835445e-03,1.733177705e-03,2.225480354e-04,1.955725741e-03,3.008184188e-04,-1.706824176e-04,1.301360012e-04,1.245643826e-03,7.983034142e-05,1.325474168e-03,1.659977950e-03,1.825769106e-04,1.842554861e-03,1.485418873e-03,1.181879480e-04,1.603606821e-03,2.845264143e-03,2.140867089e-04,3.059350852e-03,1.960582345e-03,1.353918289e-04,2.095974174e-03,-2.604238788e-05,6.757352976e-04,6.496929097e-04,6.195593784e-04,-2.215281326e-04,3.980312458e-04,2.136822596e-04,1.335268728e-04,3.472091324e-04,9.951572165e-04,-1.956507700e-05,9.755921395e-04,-6.241657289e-05,4.364018535e-04,3.739852807e-04,7.427835427e-04,-6.443241492e-04,9.845939348e-05,2.610980841e-04,-5.444868187e-04,-2.833887346e-04,2.598889677e-04,-3.810007669e-04,-1.211117992e-04,-8.244449988e-04,-7.394687486e-05,-8.983918737e-04,8.044537157e-04,-7.227352252e-05,7.321801932e-04,1.804881242e-04,-3.701168868e-04,-1.896287626e-04,1.094406598e-03,-3.798184895e-05,1.056424749e-03,7.398670637e-04,-7.392638899e-05,6.659406747e-04,2.470875458e-03,-1.661958875e-04,2.304679570e-03,5.905538530e-04,-5.532318567e-04,3.732199630e-05,1.267529949e-03,1.682353450e-04,1.435765294e-03,9.375922323e-04,-6.626886545e-04,2.749035779e-04
-9,1.332289449e-03,-3.505835020e-04,9.817059469e-04,2.708543457e-05,4.946865098e-05,7.655408555e-05,1.108919146e-03,-3.237140892e-04,7.852050570e-04,7.862574701e-04,7.183488973e-05,8.580923598e-04,6.896220417e-04,-1.110658846e-04,5.785561572e-04,7.965489371e-05,9.871393267e-05,1.783688264e-04,3.742983775e-04,-1.771514950e-04,1.971468825e-04,5.275015779e-04,4.542913363e-04,9.817929143e-04,6.069929643e-05,1.371469608e-05,7.441399250e-05,1.903520389e-04,1.935805259e-04,3.839325648e-04,1.174032267e-03,-1.240259733e-05,1.161629669e-03,1.960447156e-03,4.327785032e-04,2.393225659e-03,1.807461400e-03,2.062725660e-04,2.013733966e-03,3.420847588e-04,-1.911140499e-04,1.509707089e-04,1.324909051e-03,4.770400479e-05,1.372613056e-03,1.703787714e-03,1.682061603e-04,1.871993875e-03,1.539686529e-03,1.063798482e-04,1.646066377e-03,2.882996180e-03,1.960425239e-04,3.079038704e-03,2.013051714e-03,1.123495345e-04,2.125401249e-03,6.525353701e-05,6.233513667e-04,6.886049037e-04,6.964232470e-04,-2.422151152e-04,4.542081318e-04,2.691014155e-04,9.780701707e-05,3.669084325e-04,1.054517491e-03,-4.271265138e-05,1.011804840e-03,1.457623820e-05,4.105493714e-04,4.251256096e-04,8.137802936e-04,-6.662030255e-04,1.475772681e-04,3.438783102e-04,-5.808199735e-04,-2.369416633e-04,3.123749082e-04,-3.821793786e-04,-6.980447040e-05,-7.287069191e-04,-1.163950143e-04,-8.451019334e-04,8.449241885e-04,-9.601982959e-05,7.489043589e-04,2.373678804e-04,-4.111664844e-04,-1.737986040e-04,1.129470961e-03,-4.847105846e-05,1.080999902e-03,7.926299965e-04,-9.849966525e-05,6.941303313e-04,2.501634443e-03,-1.803429410e-04,2.321291502e-03,6.286803442e-04,-5.670829354e-04,6.159740876e-05,1.334834841e-03,1.348138497e-04,1.469648690e-03,9.704150826e-04,-7.086740290e-04,2.617410536e-04
-8.9,1.307728296e-03,-3.741443764e-04,9.335839196e-04,1.013376987e-04,2.309171295e-05,1.244294117e-04,1.081400329e-03,-3.789718445e-04,7.024284850e-04,8.095735067e-04,7.445506731e-05,8.840285741e-04,6.392534905e-04,-1.165107143e-04,5.227427762e-04,1.321631657e-04,6.291428867e-05,1.950774543e-04,4.078272216e-04,-2.007338236e-04,2.070933980e-04,5.413387668e-04,4.438031154e-04,9.851418822e-04,7.747290486e-05,-1.091031963e-05,6.656258523e-05,2.638261477e-04,1.507282267e-04,4.145543744e-04,1.227328788e-03,-4.309916233e-05,1.184229626e-03,2.024478962e-03,4.155560397e-04,2.440035002e-03,1.878868311e-03,1.902845209e-04,2.069152832e-03,3.814516428e-04,-2.110881957e-04,1.703634472e-04,1.400779444e-03,1.567506539e-05,1.416454509e-03,1.745342255e-03,1.531453355e-04,1.898487591e-03,1.591145187e-03,9.502520520e-05,1.686170392e-03,2.916496586e-03,1.777599979e-04,3.094256584e-03,2.060614983e-03,9.041632836e-05,2.151031311e-03,1.538928527e-04,5.699467346e-04,7.238395874e-04,7.668642989e-04,-2.635143657e-04,5.033499332e-04,3.215215431e-04,6.168774772e-05,3.832092908e-04,1.106473343e-03,-6.749072770e-05,1.038982616e-03,8.779457831e-05,3.841557436e-04,4.719503219e-04,8.788373397e-04,-6.875307959e-04,1.913065438e-04,4.230298769e-04,-6.160635602e-04,-1.930336833e-04,3.602040257e-04,-3.842132375e-04,-2.400921187e-05,-6.340697211e-04,-1.593719426e-04,-7.934416637e-04,8.811409722e-04,-1.196040361e-04,7.615369361e-04,2.884860688e-04,-4.528231406e-04,-1.643370718e-04,1.159861735e-03,-5.926458589e-05,1.100597149e-03,8.408361053e-04,-1.237390309e-04,7.170970744e-04,2.527396068e-03,-1.947287404e-04,2.332667328e-03,6.602693017e-04,-5.788315927e-04,8.143770907e-05,1.399001496e-03,9.941993948e-05,1.498421435e-03,9.970749524e-04,-7.528568096e-04,2.442181428e-04
-8.8,1.277286801e-03,-3.984729256e-04,8.788138755e-04,1.729030507e-04,-3.427778497e-06,1.694752722e-04,1.046990792e-03,-4.371024164e-04,6.098883754e-04,8.286509194e-04,7.769175947e-05,9.063426789e-04,5.852341059e-04,-1.231645729e-04,4.620695330e-04,1.812715047e-04,2.729258416e-05,2.085640888e-04,4.379867253e-04,-2.250396283e-04,2.129470970e-04,5.532112657e-04,4.313757677e-04,9.845870334e-04,9.147422936e-05,-3.641725553e-05,5.505697383e-05,3.340092413e-04,1.073924335e-04,4.414016748e-04,1.271085378e-03,-7.436777627e-05,1.196717602e-03,2.087981368e-03,3.981990444e-04,2.486180412e-03,1.947024732e-03,1.746925937e-04,2.121717325e-03,4.187564811e-04,-2.305728059e-04,1.881836752e-04,1.472942352e-03,-1.618329737e-05,1.456759054e-03,1.784441626e-03,1.374975947e-04,1.921939220e-03,1.639192741e-03,8.431755777e-05,1.723510298e-03,2.945608257e-03,1.593465720e-04,3.104954829e-03,2.103016280e-03,6.962545524e-05,2.172641736e-03,2.395917609e-04,5.157489891e-04,7.553407500e-04,8.306087475e-04,-2.853977678e-04,5.452109798e-04,3.708558669e-04,2.526633981e-05,3.961222067e-04,1.150868739e-03,-9.377256088e-05,1.057096178e-03,1.571345554e-04,3.573408623e-04,5.144754178e-04,9.374034782e-04,-7.081764502e-04,2.292270280e-04,4.981413570e-04,-6.500704929e-04,-1.519291359e-04,4.031929078e-04,-3.872793013e-04,1.591360649e-05,-5.409691064e-04,-2.027197243e-04,-7.436888307e-04,9.129648662e-04,-1.429549056e-04,7.700099606e-04,3.335861513e-04,-4.949237450e-04,-1.613375936e-04,1.185296385e-03,-7.031951594e-05,1.114976869e-03,8.841976272e-04,-1.495315803e-04,7.346660469e-04,2.547710380e-03,-2.092808309e-04,2.338429549e-03,6.852352298e-04,-5.886037555e-04,9.663147434e-05,1.459565898e-03,6.246002311e-05,1.522025921e-03,1.017254601e-03,-7.950028016e-04,2.222517990e-04
-8.7,1.241256978e-03,-4.235828167e-04,8.176741613e-04,2.416560997e-04,-3.005718258e-05,2.115989171e-04,1.005897486e-03,-4.977577474e-04,5.081397388e-04,8.435953853e-04,8.153397810e-05,9.251293634e-04,5.279966227e-04,-1.309874499e-04,3.970091728e-04,2.267378774e-04,-7.941831748e-06,2.187960457e-04,4.647012233e-04,-2.499764726e-04,2.147247507e-04,5.630991065e-04,4.170846797e-04,9.801837861e-04,1.027607099e-04,-6.271014130e-05,4.005056858e-05,4.007322908e-04,6.373562119e-05,4.644679120e-04,1.305204628e-03,-1.060936233e-04,1.199111004e-03,2.150773215e-03,3.808074824e-04,2.531580697e-03,2.011574652e-03,1.596053935e-04,2.171180045e-03,4.538412460e-04,-2.495317091e-04,2.043095369e-04,1.541102372e-03,-4.779341648e-05,1.493308955e-03,1.820902149e-03,1.213723346e-04,1.942274484e-03,1.683257780e-03,7.445647395e-05,1.757714254e-03,2.970200089e-03,1.409142014e-04,3.111114290e-03,2.140026825e-03,4.999269220e-05,2.190019518e-03,3.220979823e-04,4.609803279e-04,7.830783102e-04,8.874401096e-04,-3.078304199e-04,5.796096897e-04,4.170339616e-04,-1.135455465e-05,4.056794070e-04,1.187602180e-03,-1.214165930e-04,1.066185587e-03,2.225046277e-04,3.302303325e-04,5.527349603e-04,9.889548368e-04,-7.280020366e-04,2.609528002e-04,5.688131516e-04,-6.826915128e-04,-1.138783612e-04,4.411467581e-04,-3.915135745e-04,4.963318367e-05,-4.498342042e-04,-2.462730722e-04,-6.961072764e-04,9.402842251e-04,-1.660006633e-04,7.742835618e-04,3.724499211e-04,-5.373064221e-04,-1.648565010e-04,1.205526251e-03,-8.158780893e-05,1.123938442e-03,9.224580142e-04,-1.757640297e-04,7.466939846e-04,2.562117920e-03,-2.238780145e-04,2.338239905e-03,7.035253228e-04,-5.965405045e-04,1.069848183e-04,1.516108315e-03,2.434154034e-05,1.540449855e-03,1.030678991e-03,-8.349067547e-04,1.957722362e-04
-8.6,1.199948178e-03,-4.494672575e-04,7.504809203e-04,3.074896439e-04,-5.676605231e-05,2.507235916e-04,9.583294749e-04,-5.605337281e-04,3.977957468e-04,8.545443173e-04,8.596921113e-05,9.405135284e-04,4.679879870e-04,-1.399324503e-04,3.280555367e-04,2.683403825e-04,-4.258673330e-05,2.257536492e-04,4.879162876e-04,-2.754444117e-04,2.124718759e-04,5.710217551e-04,4.010144523e-04,9.720362073e-04,1.113993153e-04,-8.968963931e-05,2.170967600e-05,4.638487055e-04,1.992476856e-05,4.837734740e-04,1.329662656e-03,-1.381591072e-04,1.191503549e-03,2.212664452e-03,3.634887875e-04,2.576153240e-03,2.072181559e-03,1.451302532e-04,2.217311812e-03,4.865522344e-04,-2.679239738e-04,2.186282606e-04,1.604981139e-03,-7.907123648e-05,1.525909903e-03,1.854553473e-03,1.048839757e-04,1.959437449e-03,1.722806585e-03,6.564371648e-05,1.788450302e-03,2.990165435e-03,1.225792244e-04,3.112744660e-03,2.171442261e-03,3.152007459e-05,2.202962336e-03,4.011874262e-04,4.058582953e-04,8.070457214e-04,9.371977688e-04,-3.307708569e-04,6.064269119e-04,4.599996489e-04,-4.806718577e-05,4.119324631e-04,1.216624225e-03,-1.502678533e-04,1.066356372e-03,2.838232655e-04,3.029547500e-04,5.867780155e-04,1.032998917e-03,-7.468641380e-04,2.861347786e-04,6.346583514e-04,-7.137763496e-04,-7.911799817e-05,4.738545561e-04,-3.970063226e-04,7.684823354e-05,-3.610866097e-04,-2.898612535e-04,-6.509478632e-04,9.630143848e-04,-1.886698337e-04,7.743445512e-04,4.048989591e-04,-5.798122620e-04,-1.749133029e-04,1.220338127e-03,-9.301650079e-05,1.127321627e-03,9.553924878e-04,-2.023237511e-04,7.530687367e-04,2.570161382e-03,-2.383547015e-04,2.331806681e-03,7.151168204e-04,-6.027893815e-04,1.123274389e-04,1.568255835e-03,-1.453313386e-05,1.553722701e-03,1.037108250e-03,-8.723823842e-04,1.647258658e-04
-8.5,1.153677804e-03,-4.760971775e-04,6.775806261e-04,3.703126611e-04,-8.352593675e-05,2.867867243e-04,9.044920842e-04,-6.249764446e-04,2.795156396e-04,8.616624413e-04,9.098206912e-05,9.526445105e-04,4.056626927e-04,-1.499461577e-04,2.557165350e-04,3.058792636e-04,-7.644909563e-05,2.294301679e-04,5.075971316e-04,-3.013367842e-04,2.062603474e-04,5.770404711e-04,3.832513781e-04,9.602918492e-04,1.174640557e-04,-1.172532849e-04,2.107707246e-07,5.232334837e-04,-2.387049150e-05,4.993629922e-04,1.344505512e-03,-1.704441638e-04,1.174061348e-03,2.273456406e-03,3.463556983e-04,2.619812104e-03,2.128531163e-03,1.313718719e-04,2.259903035e-03,5.167407599e-04,-2.857034289e-04,2.310373310e-04,1.664317553e-03,-1.099244189e-04,1.554393134e-03,1.885235595e-03,8.815102397e-05,1.973386619e-03,1.757350687e-03,5.807674576e-05,1.815427432e-03,3.005420516e-03,1.044622451e-04,3.109882761e-03,2.197080942e-03,1.419976518e-05,2.211280708e-03,4.766606194e-04,3.505977070e-04,8.272583265e-04,9.797755524e-04,-3.541714221e-04,6.256041303e-04,4.997096592e-04,-8.475909789e-05,4.149505614e-04,1.237935433e-03,-1.801593721e-04,1.057776061e-03,3.410177087e-04,2.756489421e-04,6.166666508e-04,1.069078990e-03,-7.646154781e-04,3.044635118e-04,6.953044348e-04,-7.431748512e-04,-4.787041638e-05,5.010871024e-04,-4.037982118e-04,9.728889066e-05,-2.751386430e-04,-3.333097833e-04,-6.084484263e-04,9.810972038e-04,-2.108920132e-04,7.702051906e-04,4.307968234e-04,-6.222876646e-04,-1.914908413e-04,1.229556045e-03,-1.045478897e-04,1.125008155e-03,9.828088770e-04,-2.290997081e-04,7.537091689e-04,2.571397164e-03,-2.525068355e-04,2.318890329e-03,7.200145950e-04,-6.074977476e-04,1.125168474e-04,1.615684458e-03,-5.377266176e-05,1.561911796e-03,1.036330017e-03,-9.072522264e-04,1.290777908e-04
-8.4,1.102765504e-03,-5.034213909e-04,5.993441133e-04,4.300491410e-04,-1.103093565e-04,3.197397845e-04,8.445848323e-04,-6.905924105e-04,1.539924218e-04,8.651386191e-04,9.655230865e-05,9.616909277e-04,3.414770320e-04,-1.609689423e-04,1.805080897e-04,3.391791458e-04,-1.093470804e-04,2.298320654e-04,5.237283597e-04,-3.275416862e-04,1.961866736e-04,5.812573860e-04,3.638774272e-04,9.451348132e-04,1.210349685e-04,-1.452957997e-04,-2.426083119e-05,5.787836222e-04,-6.747989479e-05,5.113037274e-04,1.349846415e-03,-2.028266390e-04,1.147019776e-03,2.332943878e-03,3.295243147e-04,2.662468192e-03,2.180335594e-03,1.184309783e-04,2.298766572e-03,5.442651003e-04,-3.028184572e-04,2.414466431e-04,1.718869327e-03,-1.402510506e-04,1.578618276e-03,1.912796775e-03,7.129553826e-05,1.984092313e-03,1.786454661e-03,5.194030583e-05,1.838394967e-03,3.015903821e-03,8.668790691e-05,3.102591728e-03,2.216784519e-03,-1.982736220e-06,2.214801782e-03,5.483400284e-04,2.954130766e-04,8.437531049e-04,1.015120878e-03,-3.779786910e-04,6.371421867e-04,5.361333194e-04,-1.213136523e-04,4.148196671e-04,1.251585015e-03,-2.109135577e-04,1.040671458e-03,3.940241720e-04,2.484511770e-04,6.424753490e-04,1.096779584e-03,-7.811064979e-04,3.156730865e-04,7.503968965e-04,-7.707381015e-04,-2.034120504e-05,5.225994503e-04,-4.118777948e-04,1.107216554e-04,-1.923901903e-04,-3.764413618e-04,-5.688315521e-04,9.945008453e-04,-2.325984818e-04,7.619023635e-04,4.500520170e-04,-6.645872345e-04,-2.145352176e-04,1.233043644e-03,-1.161199547e-04,1.116923689e-03,1.004549059e-03,-2.559831504e-04,7.485659087e-04,2.565408030e-03,-2.661001502e-04,2.299307880e-03,7.182496879e-04,-6.108086249e-04,1.074410630e-04,1.658121608e-03,-9.300320201e-05,1.565118406e-03,1.028155640e-03,-9.393411752e-04,8.881446458e-05
-8.3,1.047530706e-03,-5.313688108e-04,5.161618952e-04,4.866377441e-04,-1.370884003e-04,3.495493438e-04,7.788017816e-04,-7.568610426e-04,2.194073896e-05,8.651832607e-04,1.026530856e-04,9.678363463e-04,2.758841801e-04,-1.729351784e-04,1.029490017e-04,3.680908665e-04,-1.411113566e-04,2.269795099e-04,5.363147731e-04,-3.539440155e-04,1.823707576e-04,5.838107735e-04,3.429674001e-04,9.267781736e-04,1.221978674e-04,-1.737095505e-04,-5.151168313e-05,6.304192561e-04,-1.107346176e-04,5.196846385e-04,1.345863394e-03,-2.351828063e-04,1.110680588e-03,2.390918193e-03,3.131120985e-04,2.704030291e-03,2.227337837e-03,1.064032625e-04,2.333741099e-03,5.689930832e-04,-3.192121349e-04,2.497809483e-04,1.768415609e-03,-1.699396131e-04,1.598475996e-03,1.937092738e-03,5.444263400e-05,1.991535372e-03,1.809744025e-03,4.739703933e-05,1.857141065e-03,3.021576646e-03,6.938423218e-05,3.090960878e-03,2.230421127e-03,-1.704663002e-05,2.213374497e-03,6.160685816e-04,2.405204661e-04,8.565890477e-04,1.043234013e-03,-4.021337281e-04,6.411002853e-04,5.692525053e-04,-1.576106246e-04,4.116418807e-04,1.257669457e-03,-2.423435684e-04,1.015325888e-03,4.427887474e-04,2.215023328e-04,6.642910802e-04,1.115732488e-03,-7.961867546e-04,3.195457333e-04,7.996042399e-04,-7.963195468e-04,3.284693130e-06,5.381366996e-04,-4.211809763e-04,1.169557233e-04,-1.132251174e-04,-4.190760329e-04,-5.323011503e-04,1.003219563e-03,-2.537227481e-04,7.494968144e-04,4.626203756e-04,-7.065763652e-04,-2.439559895e-04,1.230706692e-03,-1.276670783e-04,1.103039613e-03,1.020490406e-03,-2.828678498e-04,7.376225563e-04,2.551817765e-03,-2.788793040e-04,2.272938461e-03,7.098784489e-04,-6.128590119e-04,9.701943697e-05,1.695348437e-03,-1.318746259e-04,1.563473811e-03,1.012422582e-03,-9.684757263e-04,4.394685561e-05
-8.2,9.882921458e-04,-5.598520372e-04,4.284401086e-04,5.400313132e-04,-1.638334178e-04,3.761978954e-04,7.073321097e-04,-8.232475859e-04,-1.159154762e-04,8.620250496e-04,1.092500516e-04,9.712751012e-04,2.093293309e-04,-1.857733819e-04,2.355594901e-05,3.924925537e-04,-1.715857305e-04,2.209068232e-04,5.453819950e-04,-3.804276959e-04,1.649542991e-04,5.848670361e-04,3.205897366e-04,9.054567727e-04,1.210434522e-04,-2.023850833e-04,-8.134163108e-05,6.780841426e-04,-1.534690843e-04,5.246150583e-04,1.332796079e-03,-2.673879757e-04,1.065408103e-03,2.447169426e-03,2.972355478e-04,2.744404974e-03,2.269314547e-03,9.537854248e-05,2.364693090e-03,5.908042323e-04,-3.348226767e-04,2.559815556e-04,1.812759140e-03,-1.988700229e-04,1.613889117e-03,1.957986825e-03,3.771937927e-05,1.995706205e-03,1.826912692e-03,4.457776151e-05,1.871490454e-03,3.022423734e-03,5.268133763e-05,3.075105072e-03,2.237889960e-03,-3.101484408e-05,2.206875116e-03,6.797089071e-04,1.861379441e-04,8.658468512e-04,1.064166468e-03,-4.265720869e-04,6.375943814e-04,5.990608472e-04,-1.935268368e-04,4.055340104e-04,1.256330099e-03,-2.742547089e-04,9.820753896e-04,4.872678047e-04,1.949450051e-04,6.822128097e-04,1.125621739e-03,-8.097060729e-04,3.159156665e-04,8.426225098e-04,-8.197761707e-04,2.284633909e-05,5.474409842e-04,-4.315933032e-04,1.158476810e-04,-3.800882710e-05,-4.610312186e-04,-4.990400457e-04,1.007272999e-03,-2.742012027e-04,7.330717967e-04,4.685050041e-04,-7.481324781e-04,-2.796274739e-04,1.222494838e-03,-1.391209503e-04,1.083373888e-03,1.030546187e-03,-3.096497960e-04,7.208963913e-04,2.530307650e-03,-2.905763164e-04,2.239731334e-03,6.949824938e-04,-6.137811806e-04,8.120131314e-05,1.727200409e-03,-1.700650578e-04,1.557135352e-03,9.890020655e-04,-9.944880182e-04,-5.485952735e-06
-8.1,9.253684654e-04,-5.887719216e-04,3.365965438e-04,5.901951163e-04,-1.905118118e-04,3.996833045e-04,6.303593824e-04,-8.892152326e-04,-2.588558502e-04,8.559060681e-04,1.163013236e-04,9.722073917e-04,1.422442090e-04,-1.994062872e-04,-5.716207820e-05,4.122901548e-04,-2.006276205e-04,2.116625343e-04,5.509758377e-04,-4.068775959e-04,1.440982418e-04,5.846112931e-04,2.968098832e-04,8.814211763e-04,1.176649929e-04,-2.312116388e-04,-1.135466459e-04,7.217444674e-04,-1.955222942e-04,5.262221732e-04,1.310940821e-03,-2.993170876e-04,1.011623733e-03,2.501486525e-03,2.820077604e-04,2.783494286e-03,2.306076247e-03,8.543999646e-05,2.391516243e-03,6.095908280e-04,-3.495840888e-04,2.600067393e-04,1.851726465e-03,-2.269148814e-04,1.624811584e-03,1.975350229e-03,2.125296812e-05,1.996603197e-03,1.837728651e-03,4.357246084e-05,1.881301112e-03,3.018452848e-03,3.670972149e-05,3.055162570e-03,2.239125445e-03,-4.391362582e-05,2.195211819e-03,7.391426844e-04,1.324844602e-04,8.716271446e-04,1.078017983e-03,-4.512236860e-04,6.267942971e-04,6.255617614e-04,-2.289367812e-04,3.966249803e-04,1.247749312e-03,-3.064458189e-04,9.413034931e-04,5.274272561e-04,1.689225656e-04,6.963498217e-04,1.126186538e-03,-8.215154955e-04,3.046710420e-04,8.791779417e-04,-8.409697419e-04,3.820819981e-05,5.502581407e-04,-4.429554301e-04,1.073027106e-04,3.291244525e-05,-5.021223060e-04,-4.692098607e-04,1.006704588e-03,-2.939738791e-04,7.127307091e-04,4.677530235e-04,-7.891442556e-04,-3.213912321e-04,1.208401999e-03,-1.504114154e-04,1.057990583e-03,1.034664396e-03,-3.362265077e-04,6.984378886e-04,2.500633471e-03,-3.009179504e-04,2.199715520e-03,6.736708429e-04,-6.137072762e-04,5.996356673e-05,1.753565102e-03,-2.072828688e-04,1.546282234e-03,9.578092917e-04,-1.017222151e-03,-5.941285963e-05
-8,8.590793204e-04,-6.180229472e-04,2.410563731e-04,6.371035705e-04,-2.170865340e-04,4.200170365e-04,5.480593523e-04,-9.542353432e-04,-4.061759909e-04,8.470752952e-04,1.237581129e-04,9.708334081e-04,7.504102724e-05,-2.137509032e-04,-1.387098759e-04,4.274177376e-04,-2.281088540e-04,1.993088836e-04,5.531603330e-04,-4.331809168e-04,1.199794162e-04,5.832388723e-04,2.716941996e-04,8.549330718e-04,1.121550079e-04,-2.600776441e-04,-1.479226361e-04,7.613861424e-04,-2.367388039e-04,5.246473385e-04,1.280644389e-03,-3.308452291e-04,9.497991601e-04,2.553655476e-03,2.675363620e-04,2.821191838e-03,2.337465474e-03,7.666338743e-05,2.414128861e-03,6.252581048e-04,-3.634269531e-04,2.618311517e-04,1.885166312e-03,-2.539405812e-04,1.631225731e-03,1.989061852e-03,5.168788154e-06,1.994230640e-03,1.842036892e-03,4.442367365e-05,1.886460566e-03,3.009692916e-03,2.159844129e-05,3.031291358e-03,2.234100166e-03,-5.577271982e-05,2.178327446e-03,7.942699088e-04,7.977762032e-05,8.740475291e-04,1.084932481e-03,-4.760127445e-04,6.089197362e-04,6.487656667e-04,-2.637131269e-04,3.850525397e-04,1.232145881e-03,-3.387105808e-04,8.934353004e-04,5.632411293e-04,1.435782266e-04,7.068193559e-04,1.117222367e-03,-8.314681652e-04,2.857542015e-04,9.090278343e-04,-8.597680720e-04,4.925976233e-05,5.463435214e-04,-4.550707273e-04,9.127279408e-05,9.921138096e-05,-5.421639028e-04,-4.429525218e-04,1.001579138e-03,-3.129850820e-04,6.885940557e-04,4.604501169e-04,-8.295088081e-04,-3.690586912e-04,1.188465432e-03,-1.614670336e-04,1.026998399e-03,1.032825464e-03,-3.624962671e-04,6.703291966e-04,2.462641101e-03,-3.096319692e-04,2.153009132e-03,6.460846096e-04,-6.127750537e-04,3.330955593e-05,1.774377582e-03,-2.432664989e-04,1.531111083e-03,9.188141684e-04,-1.036540963e-03,-1.177267943e-04
-7.9,7.897462550e-04,-6.474983776e-04,1.422478774e-04,6.807363449e-04,-2.435139972e-04,4.372223477e-04,4.605974936e-04,-1.017795326e-03,-5.571978324e-04,8.357812867e-04,1.315658125e-04,9.673470992e-04,8.106618383e-06,-2.287186369e-04,-2.206120185e-04,4.378375540e-04,-2.539165838e-04,1.839209702e-04,5.520152096e-04,-4.592280797e-04,9.278712994e-05,5.809489156e-04,2.453126697e-04,8.262615853e-04,1.046021624e-04,-2.888712054e-04,-1.842690429e-04,7.970117209e-04,-2.769696274e-04,5.200420935e-04,1.242297352e-03,-3.618480726e-04,8.804492796e-04,2.603456925e-03,2.539219608e-04,2.857378886e-03,2.363354652e-03,6.911612424e-05,2.432470776e-03,6.377244099e-04,-3.762792700e-04,2.614451399e-04,1.912947868e-03,-2.798087822e-04,1.633139086e-03,1.999008387e-03,-1.041102625e-05,1.988597361e-03,1.839759298e-03,4.712374498e-05,1.886883043e-03,2.996191589e-03,7.473164524e-06,3.003664753e-03,2.222826605e-03,-6.662615146e-05,2.156200453e-03,8.450083138e-04,2.823120936e-05,8.732395232e-04,1.085093915e-03,-5.008578087e-04,5.842361061e-04,6.686872494e-04,-2.977269833e-04,3.709602661e-04,1.209770735e-03,-3.708386855e-04,8.389320494e-04,5.946906657e-04,1.190541335e-04,7.137447991e-04,1.098581593e-03,-8.394202223e-04,2.591613709e-04,9.319610139e-04,-8.760461497e-04,5.591486420e-05,5.354673367e-04,-4.677132296e-04,6.775410710e-05,1.605799056e-04,-5.809713645e-04,-4.203914589e-04,9.919803324e-04,-3.311836344e-04,6.607966980e-04,4.467149030e-04,-8.691275306e-04,-4.224126275e-04,1.162764196e-03,-1.722153062e-04,9.905488896e-04,1.025039969e-03,-3.883575602e-04,6.366824089e-04,2.416277890e-03,-3.164514767e-04,2.099826413e-03,6.124019990e-04,-6.111302371e-04,1.271761861e-06,1.789614781e-03,-2.777831321e-04,1.511831649e-03,8.720519363e-04,-1.052333206e-03,-1.802812696e-04
-7.8,7.176925462e-04,-6.770932567e-04,4.059928952e-05,7.210752177e-04,-2.697416125e-04,4.513336052e-04,3.681280540e-04,-1.079404837e-03,-7.112767828e-04,8.222653388e-04,1.396652982e-04,9.619306370e-04,-5.820235651e-05,-2.442155991e-04,-3.024179556e-04,4.435396642e-04,-2.779536024e-04,1.655860619e-04,5.476338031e-04,-4.849130976e-04,6.272070543e-05,5.779402731e-04,2.177394315e-04,7.956797046e-04,9.508960425e-05,-3.174806136e-04,-2.223910093e-04,8.286381731e-04,-3.160730768e-04,5.125650964e-04,1.196328400e-03,-3.922022509e-04,8.041261491e-04,2.650665128e-03,2.412569096e-04,2.891922038e-03,2.383645497e-03,6.285594056e-05,2.446501438e-03,6.469221753e-04,-3.880672961e-04,2.588548791e-04,1.934960974e-03,-3.043788114e-04,1.630582162e-03,2.005085766e-03,-2.536859146e-05,1.979717175e-03,1.830891511e-03,5.161639321e-05,1.882507904e-03,2.978013582e-03,-5.546282053e-06,2.972467300e-03,2.205358176e-03,-7.651319211e-05,2.128844984e-03,8.912936566e-04,-2.194705258e-05,8.693466040e-04,1.078722990e-03,-5.256717506e-04,5.530512396e-04,6.853437227e-04,-3.308479622e-04,3.544957606e-04,1.180903913e-03,-4.026168939e-04,7.782870192e-04,6.217650570e-04,9.549041501e-05,7.172554720e-04,1.070174725e-03,-8.452316583e-04,2.249430667e-04,9.477995077e-04,-8.896870538e-04,5.811245392e-05,5.174211907e-04,-4.806350505e-04,3.678614019e-05,2.167314937e-04,-6.183620993e-04,-4.016306056e-04,9.780089447e-04,-3.485227373e-04,6.294862074e-04,4.266946885e-04,-9.079017996e-04,-4.812071111e-04,1.131417858e-03,-1.825828343e-04,9.488350234e-04,1.011347412e-03,-4.137088135e-04,5.976385984e-04,2.361596921e-03,-3.211165326e-04,2.040480389e-03,5.728401204e-04,-6.089218715e-04,-3.608175110e-05,1.799290154e-03,-3.106267059e-04,1.488663448e-03,8.176335089e-04,-1.064521639e-03,-2.468881296e-04
-7.7,6.432414996e-04,-7.067040876e-04,-6.346258797e-05,7.581024448e-04,-2.957055423e-04,4.623969025e-04,2.707953767e-04,-1.138601236e-03,-8.678058592e-04,8.067561741e-04,1.479942679e-04,9.547504419e-04,-1.235626777e-04,-2.601431362e-04,-3.837058140e-04,4.445413926e-04,-3.001377677e-04,1.444036249e-04,5.401218718e-04,-5.101333735e-04,2.998849828e-05,5.744096608e-04,1.890510560e-04,7.634607169e-04,8.369504272e-05,-3.457948656e-04,-2.620998229e-04,8.562959559e-04,-3.539152996e-04,5.023806564e-04,1.143200075e-03,-4.217856848e-04,7.214143906e-04,2.695049118e-03,2.296241728e-04,2.924673291e-03,2.398270315e-03,5.792925347e-05,2.456199568e-03,6.527999168e-04,-3.987164055e-04,2.540835113e-04,1.951118779e-03,-3.275108479e-04,1.623607931e-03,2.007202364e-03,-3.959117046e-05,1.967611193e-03,1.815497776e-03,5.780120599e-05,1.873298982e-03,2.955240671e-03,-1.734914416e-05,2.937891527e-03,2.181789498e-03,-8.547868826e-05,2.096310809e-03,9.330814375e-04,-7.055770186e-05,8.625237357e-04,1.066075120e-03,-5.503616440e-04,5.157134759e-04,6.987544796e-04,-3.629443189e-04,3.358101607e-04,1.145852661e-03,-4.338301206e-04,7.120225401e-04,6.444638638e-04,7.302407724e-05,7.174879411e-04,1.031972708e-03,-8.487670787e-04,1.832056296e-04,9.564020974e-04,-9.005826931e-04,5.581940426e-05,4.920275010e-04,-4.935735350e-04,-1.546033938e-06,2.674056970e-04,-6.541563710e-04,-3.867506739e-04,9.597819433e-04,-3.649596767e-04,5.948222666e-04,4.005624186e-04,-9.457291336e-04,-5.451667150e-04,1.094585940e-03,-1.924958286e-04,9.020901116e-04,9.918163071e-04,-4.384483012e-04,5.533680059e-04,2.298755284e-03,-3.233747460e-04,1.975380538e-03,5.276523382e-04,-6.062912083e-04,-7.863887008e-05,1.803449129e-03,-3.416151422e-04,1.461833986e-03,7.557540407e-04,-1.073071093e-03,-3.173170521e-04
-7.6,5.667126205e-04,-7.362255852e-04,-1.695129647e-04,7.918002480e-04,-3.213292373e-04,4.704710108e-04,1.687366888e-04,-1.194954649e-03,-1.026217960e-03,7.894660958e-04,1.564886924e-04,9.459547882e-04,-1.876867079e-04,-2.763985292e-04,-4.640852371e-04,4.408872562e-04,-3.204011381e-04,1.204861181e-04,5.295968722e-04,-5.347890569e-04,-5.192184722e-06,5.705513681e-04,1.593239925e-04,7.298753606e-04,7.049156415e-05,-3.737041937e-04,-3.032126296e-04,8.800286506e-04,-3.903703138e-04,4.896583368e-04,1.083405131e-03,-4.504779133e-04,6.329272173e-04,2.736374814e-03,2.190963464e-04,2.955471161e-03,2.407193392e-03,5.436958769e-05,2.461562980e-03,6.553244968e-04,-4.081520575e-04,2.471724393e-04,1.961361295e-03,-3.490691587e-04,1.612292136e-03,2.005282998e-03,-5.297222876e-05,1.952310769e-03,1.793705961e-03,6.553860913e-05,1.859244570e-03,2.927972470e-03,-2.783741107e-05,2.900135059e-03,2.152255075e-03,-9.357195244e-05,2.058683122e-03,9.703494179e-04,-1.174119442e-04,8.529374737e-04,1.047438964e-03,-5.748285671e-04,4.726103966e-04,7.089416161e-04,-3.938835192e-04,3.150580969e-04,1.104949601e-03,-4.642626588e-04,6.406869418e-04,6.627999057e-04,5.178772663e-05,7.145876323e-04,9.840096351e-04,-8.498965612e-04,1.341130738e-04,9.576687570e-04,-9.086345098e-04,4.903424715e-05,4.591510049e-04,-5.062581446e-04,-4.710713972e-05,3.123735934e-04,-6.881776309e-04,-3.758040375e-04,9.374319203e-04,-3.804555574e-04,5.569763629e-04,3.685133973e-04,-9.824998480e-04,-6.139864506e-04,1.052467527e-03,-2.018811077e-04,8.505864193e-04,9.665447945e-04,-4.624740016e-04,5.040707929e-04,2.228012452e-03,-3.229849120e-04,1.905027540e-03,4.771240664e-04,-6.033590772e-04,-1.262350108e-04,1.802165400e-03,-3.705871999e-04,1.431578201e-03,6.866973457e-04,-1.077994325e-03,-3.912969790e-04
-7.5,4.884151870e-04,-7.655458315e-04,-2.771306446e-04,8.221504179e-04,-3.465230179e-04,4.756273999e-04,6.208534895e-05,-1.248072786e-03,-1.185987437e-03,7.705875147e-04,1.650845242e-04,9.356720389e-04,-2.503242827e-04,-2.928757820e-04,-5.432000647e-04,4.326494232e-04,-3.386895924e-04,9.395983081e-05,5.161867019e-04,-5.587822473e-04,-4.259554540e-05,5.665566033e-04,1.286334989e-04,6.951901021e-04,5.554767337e-05,-4.011005604e-04,-3.455528870e-04,8.998920153e-04,-4.253196372e-04,4.745723781e-04,1.017462174e-03,-4.781604981e-04,5.393016758e-04,2.774405664e-03,2.097349619e-04,2.984140626e-03,2.410409945e-03,5.219646432e-05,2.462606409e-03,6.544824594e-04,-4.163008759e-04,2.381815835e-04,1.965657552e-03,-3.689246623e-04,1.596732890e-03,1.999272208e-03,-6.541285580e-05,1.933859353e-03,1.765704043e-03,7.465397970e-05,1.840358022e-03,2.896325721e-03,-3.692892384e-05,2.859396797e-03,2.116925693e-03,-1.008441410e-04,2.016081552e-03,1.003099412e-03,-1.623342284e-04,8.407651833e-04,1.023134393e-03,-5.989674350e-04,4.241669582e-04,7.159303538e-04,-4.235333996e-04,2.923969541e-04,1.058549877e-03,-4.936995245e-04,5.648503528e-04,6.768010796e-04,3.190827730e-05,7.087093569e-04,9.263847054e-04,-8.484968636e-04,7.788784180e-05,9.515440259e-04,-9.137542254e-04,3.778980047e-05,4.187088653e-04,-5.184160936e-04,-9.970722828e-05,3.514422204e-04,-7.202526278e-04,-3.688104074e-04,9.111060742e-04,-3.949749617e-04,5.161311126e-04,3.307608332e-04,-1.018094358e-03,-6.873335253e-04,1.005299850e-03,-2.106672851e-04,7.946325651e-04,9.356605572e-04,-4.856832273e-04,4.499773299e-04,2.149732797e-03,-3.197247113e-04,1.830008086e-03,4.215711920e-04,-6.002171431e-04,-1.786459511e-04,1.795537710e-03,-3.974000222e-04,1.398137688e-03,6.108352764e-04,-1.079354448e-03,-4.685191716e-04
-7.4,4.086401137e-04,-7.945414761e-04,-3.859013624e-04,8.491333709e-04,-3.711846909e-04,4.779486800e-04,-4.902563754e-05,-1.297606095e-03,-1.346631733e-03,7.502887967e-04,1.737195584e-04,9.240083550e-04,-3.112649308e-04,-3.094664921e-04,-6.207314229e-04,4.199281938e-04,-3.549632691e-04,6.496492466e-05,5.000272818e-04,-5.820162055e-04,-8.198892369e-05,5.626106884e-04,9.705528482e-05,6.596659732e-04,3.892584159e-05,-4.278780424e-04,-3.889522008e-04,9.159518926e-04,-4.586517779e-04,4.573001147e-04,9.459099024e-04,-5.047175077e-04,4.411923946e-04,2.808900541e-03,2.015900862e-04,3.010490628e-03,2.407941554e-03,5.141485830e-05,2.459356412e-03,6.502799084e-04,-4.230917693e-04,2.271881392e-04,1.964005399e-03,-3.869565995e-04,1.577048799e-03,1.989135812e-03,-7.682361412e-05,1.912312198e-03,1.731736093e-03,8.494202289e-05,1.816678116e-03,2.860430250e-03,-4.455903795e-05,2.815871212e-03,2.076002909e-03,-1.073450300e-04,1.968657879e-03,1.031357512e-03,-2.051649021e-04,8.261926099e-04,9.935091933e-04,-6.226668522e-04,3.708423410e-04,7.197488377e-04,-4.517638026e-04,2.679850351e-04,1.007026982e-03,-5.219277891e-04,4.850991928e-04,6.865103968e-04,1.350586266e-05,7.000162595e-04,8.592625850e-04,-8.444529367e-04,1.480964827e-05,9.380180394e-04,-9.158645868e-04,2.215345267e-05,3.706760896e-04,-5.297756053e-04,-1.590995157e-04,3.844567709e-04,-7.502115455e-04,-3.657547746e-04,8.809643939e-04,-4.084852338e-04,4.724791601e-04,2.875308640e-04,-1.052381747e-03,-7.648508825e-04,9.533552789e-04,-2.187858340e-04,7.345694449e-04,8.993196067e-04,-5.079720478e-04,3.913475588e-04,2.064387694e-03,-3.133970744e-04,1.750990620e-03,3.613421259e-04,-5.969244713e-04,-2.355823454e-04,1.783686313e-03,-4.219281043e-04,1.361758208e-03,5.286230737e-04,-1.077264308e-03,-5.486412338e-04
-7.3,3.276524038e-04,-8.230743943e-04,-4.954219906e-04,8.727267320e-04,-3.952010511e-04,4.775256809e-04,-1.644600100e-04,-1.343253450e-03,-1.507713460e-03,7.287094756e-04,1.823349483e-04,9.110444239e-04,-3.703402841e-04,-3.260608505e-04,-6.964011346e-04,4.028521555e-04,-3.691976063e-04,3.365454911e-05,4.812592176e-04,-6.043945468e-04,-1.231353292e-04,5.588875862e-04,6.466936347e-05,6.235569497e-04,2.068010244e-05,-4.539330253e-04,-4.332529229e-04,9.282812508e-04,-4.902617172e-04,4.380195336e-04,8.693003052e-04,-5.300359739e-04,3.392643313e-04,2.839609636e-03,1.947001811e-04,3.034309817e-03,2.399829364e-03,5.201498414e-05,2.451844348e-03,6.427414558e-04,-4.284570114e-04,2.142844444e-04,1.956429764e-03,-4.030536584e-04,1.553376105e-03,1.974860690e-03,-8.712663937e-05,1.887734051e-03,1.692094284e-03,9.617325116e-05,1.788267535e-03,2.820421666e-03,-5.068082503e-05,2.769740841e-03,2.029712978e-03,-1.131203383e-04,1.916592639e-03,1.055173152e-03,-2.457629930e-04,8.094101588e-04,9.589347376e-04,-6.458089211e-04,3.131258165e-04,7.204276214e-04,-4.784483957e-04,2.419792257e-04,9.507678991e-04,-5.487377790e-04,4.020301201e-04,6.919848002e-04,-3.306969581e-06,6.886778306e-04,7.828722243e-04,-8.376595048e-04,-5.478728046e-05,9.171254897e-04,-9.149000247e-04,2.225465050e-06,3.150859618e-04,-5.400667609e-04,-2.249807990e-04,4.113007190e-04,-7.778882601e-04,-3.665875411e-04,8.471772662e-04,-4.209552605e-04,4.262220057e-04,2.390588387e-04,-1.085220212e-03,-8.461613733e-04,8.969372763e-04,-2.261720876e-04,6.707651886e-04,8.577045353e-04,-5.292347373e-04,3.284697980e-04,1.972547364e-03,-3.038278657e-04,1.668719498e-03,2.968213148e-04,-5.935073443e-04,-2.966860294e-04,1.766748984e-03,-4.440636984e-04,1.322685285e-03,4.405917723e-04,-1.071882959e-03,-6.312911872e-04
-7.2,2.456865301e-04,-8.509906658e-04,-6.053041358e-04,8.929041223e-04,-4.184500526e-04,4.744540697e-04,-2.840753224e-04,-1.384766893e-03,-1.668842215e-03,7.059559794e-04,1.908756793e-04,8.968316587e-04,-4.274259241e-04,-3.425487854e-04,-7.699747095e-04,3.815780503e-04,-3.813844030e-04,1.936473226e-07,4.600244328e-04,-6.258203278e-04,-1.657958950e-04,5.555422687e-04,3.156502004e-05,5.871072887e-04,8.540760157e-07,-4.791641887e-04,-4.783101127e-04,9.369571902e-04,-5.200503349e-04,4.169068553e-04,7.881919850e-04,-5.540062157e-04,2.341857692e-04,2.866270160e-03,1.890922530e-04,3.055362413e-03,2.386127500e-03,5.397212337e-05,2.440099624e-03,6.319093404e-04,-4.323332101e-04,1.995761303e-04,1.942981046e-03,-4.171150941e-04,1.525865952e-03,1.956453708e-03,-9.625777341e-05,1.860195934e-03,1.647106758e-03,1.081025691e-04,1.755209327e-03,2.776432425e-03,-5.526435299e-05,2.721168072e-03,1.978301272e-03,-1.182098690e-04,1.860091403e-03,1.074617884e-03,-2.840088956e-04,7.906089884e-04,9.198015719e-04,-6.682690764e-04,2.515324955e-04,7.179996832e-04,-5.034664464e-04,2.145332368e-04,8.901687370e-04,-5.739241165e-04,3.162446205e-04,6.932942103e-04,-1.842588857e-05,6.748683217e-04,6.975051544e-04,-8.280226370e-04,-1.305174825e-04,8.889439779e-04,-9.108071942e-04,-2.186321626e-05,2.520282211e-04,-5.490212655e-04,-2.969930444e-04,4.318954280e-04,-8.031207344e-04,-3.712253064e-04,8.099231917e-04,-4.323540744e-04,3.775691173e-04,1.855882422e-04,-1.116459246e-03,-9.308710039e-04,8.363763868e-04,-2.327663254e-04,6.036100614e-04,8.110232237e-04,-5.493635244e-04,2.616596993e-04,1.874857073e-03,-2.908529255e-04,1.584004147e-03,2.284326451e-04,-5.899610046e-04,-3.615283595e-04,1.744877778e-03,-4.637184141e-04,1.281159364e-03,3.473383414e-04,-1.063408887e-03,-7.160705461e-04
-7.1,1.629466737e-04,-8.781226925e-04,-7.151760187e-04,9.096350617e-04,-4.408032670e-04,4.688317947e-04,-4.077210603e-04,-1.421953232e-03,-1.829674292e-03,6.820991640e-04,1.992897039e-04,8.813888679e-04,-4.824417306e-04,-3.588211625e-04,-8.412628931e-04,3.562909077e-04,-3.915326799e-04,-3.524177216e-05,4.364637820e-04,-6.461950506e-04,-2.097312685e-04,5.527023097e-04,-2.154283562e-06,5.505480262e-04,-2.051919487e-05,-5.034723783e-04,-5.239915731e-04,9.420588734e-04,-5.479237763e-04,3.941350971e-04,7.031448099e-04,-5.765220690e-04,1.266227409e-04,2.888603527e-03,1.847823114e-04,3.073385838e-03,2.366898711e-03,5.724642044e-05,2.424145131e-03,6.178436189e-04,-4.346621162e-04,1.831815027e-04,1.923734855e-03,-4.290521886e-04,1.494682666e-03,1.933941088e-03,-1.041684977e-04,1.829772590e-03,1.597125390e-03,1.204781865e-04,1.717603577e-03,2.728583343e-03,-5.829541836e-05,2.670287925e-03,1.922027322e-03,-1.226455757e-04,1.799381746e-03,1.089784581e-03,-3.198065039e-04,7.699780775e-04,8.765159232e-04,-6.899161432e-04,1.865997800e-04,7.125016851e-04,-5.267044745e-04,1.857972106e-04,8.256318497e-04,-5.972866492e-04,2.283452004e-04,6.905221807e-04,-3.175535158e-05,6.587668292e-04,6.035146006e-04,-8.154613323e-04,-2.119467317e-04,8.535934848e-04,-9.035454195e-04,-4.995193466e-05,1.816485282e-04,-5.563727814e-04,-3.747242532e-04,4.462014893e-04,-8.257517700e-04,-3.795502806e-04,7.693874301e-04,-4.426499387e-04,3.267374914e-04,1.273721725e-04,-1.145942279e-03,-1.018570106e-03,7.720269873e-04,-2.385147708e-04,5.335122165e-04,7.595087528e-04,-5.682488168e-04,1.912599360e-04,1.772002636e-03,-2.743002627e-04,1.497702373e-03,1.566429098e-04,-5.862535480e-04,-4.296106382e-04,1.718237833e-03,-4.808254595e-04,1.237412373e-03,2.495150552e-04,-1.052070605e-03,-8.025555501e-04
-7,7.961287174e-05,-9.042949727e-04,-8.246821009e-04,9.228864046e-04,-4.621281113e-04,4.607582933e-04,-5.352368667e-04,-1.454672024e-03,-1.989908891e-03,6.571741777e-04,2.075261157e-04,8.647002934e-04,-5.353502478e-04,-3.747708888e-04,-9.101211366e-04,3.272051525e-04,-3.996697142e-04,-7.246456167e-05,4.107162114e-04,-6.654178364e-04,-2.547016250e-04,5.504604085e-04,-3.636709081e-05,5.140933177e-04,-4.341522748e-05,-5.267605579e-04,-5.701757854e-04,9.436668104e-04,-5.737929548e-04,3.698738556e-04,6.147163100e-04,-5.974811806e-04,1.723512943e-05,2.906314617e-03,1.817759708e-04,3.088090587e-03,2.342212759e-03,6.178271516e-05,2.403995474e-03,6.006234512e-04,-4.353912999e-04,1.652321513e-04,1.898793171e-03,-4.387900767e-04,1.460003094e-03,1.907368859e-03,-1.108272474e-04,1.796541611e-03,1.542517562e-03,1.330490643e-04,1.675566626e-03,2.676977222e-03,-5.977391408e-05,2.617203308e-03,1.861160038e-03,-1.264485748e-04,1.734711463e-03,1.100787273e-03,-3.530846693e-04,7.477026040e-04,8.294974519e-04,-7.106127479e-04,1.188847040e-04,7.039763751e-04,-5.480577925e-04,1.559185826e-04,7.575645403e-04,-6.186313595e-04,1.389331808e-04,6.837683546e-04,-4.320909937e-05,6.405592552e-04,5.013160778e-04,-7.999089640e-04,-2.985928862e-04,8.112378407e-04,-8.930870613e-04,-8.184922064e-05,1.041513518e-04,-5.618589367e-04,-4.577075848e-04,4.542230905e-04,-8.456305157e-04,-3.914074252e-04,7.257618466e-04,-4.518103435e-04,2.739515031e-04,6.467605247e-05,-1.173508381e-03,-1.108832329e-03,7.042648744e-04,-2.433701621e-04,4.608947123e-04,7.034206134e-04,-5.857799225e-04,1.176406909e-04,1.664676235e-03,-2.539763282e-04,1.410699907e-03,8.196490844e-05,-5.823307446e-04,-5.003658362e-04,1.687007771e-03,-4.953414487e-04,1.191666322e-03,1.478203483e-04,-1.038116739e-03,-8.902963903e-04
-6.9,-4.148396512e-06,-9.293323285e-04,-9.334807250e-04,9.326246869e-04,-4.822895368e-04,4.503351501e-04,-6.664494607e-04,-1.482832005e-03,-2.149281465e-03,6.311821294e-04,2.155329392e-04,8.467150686e-04,-5.861534514e-04,-3.902938187e-04,-9.764472702e-04,2.945662184e-04,-4.058421996e-04,-1.112759812e-04,3.829192076e-04,-6.833851370e-04,-3.004659294e-04,5.488686082e-04,-7.093134446e-05,4.779372638e-04,-6.781498807e-05,-5.489339514e-04,-6.167489395e-04,9.418629628e-04,-5.975734580e-04,3.442895048e-04,5.234589779e-04,-6.167854702e-04,-9.332649232e-05,2.919092321e-03,1.800688818e-04,3.099161202e-03,2.312146332e-03,6.751051708e-05,2.379656849e-03,5.803484928e-04,-4.344747781e-04,1.458737146e-04,1.868285685e-03,-4.462697115e-04,1.422015974e-03,1.876803541e-03,-1.162197643e-04,1.760583777e-03,1.483662821e-03,1.455699213e-04,1.629232743e-03,2.621695061e-03,-5.971215314e-05,2.561982908e-03,1.795972973e-03,-1.296251876e-04,1.666347786e-03,1.107760920e-03,-3.837981431e-04,7.239627769e-04,7.791774853e-04,-7.302160246e-04,4.896146072e-05,6.924750969e-04,-5.674319236e-04,1.250431733e-04,6.863782865e-04,-6.377713432e-04,4.860694332e-05,6.731514439e-04,-5.271051881e-05,6.204409251e-04,3.913887798e-04,-7.813143910e-04,-3.899256112e-04,7.620874096e-04,-8.794178458e-04,-1.173304361e-04,1.980588808e-05,-5.652254030e-04,-5.454195150e-04,4.560142334e-04,-8.626148460e-04,-4.066006127e-04,6.792453252e-04,-4.598027784e-04,2.194425467e-04,-2.220055754e-06,-1.198992420e-03,-1.201212476e-03,6.334851664e-04,-2.472917890e-04,3.861933774e-04,6.430463972e-04,-6.018460925e-04,4.120030463e-05,1.553551187e-03,-2.296620240e-04,1.323889163e-03,4.959242748e-06,-5.781199007e-04,-5.731606580e-04,1.651379739e-03,-5.072465576e-04,1.144133181e-03,4.299240165e-05,-1.021807530e-03,-9.788151280e-04
-6.8,-8.817310617e-05,-9.530679032e-04,-1.041241009e-03,9.388181301e-04,-5.011513626e-04,4.376667675e-04,-8.011681155e-04,-1.506388092e-03,-2.307556207e-03,6.040923732e-04,2.232549081e-04,8.273472813e-04,-6.348889106e-04,-4.052894883e-04,-1.040178399e-03,2.586508357e-04,-4.101165800e-04,-1.514657442e-04,3.532095742e-04,-6.999911597e-04,-3.467815855e-04,5.479340477e-04,-1.056825301e-04,4.422515177e-04,-9.370236428e-05,-5.699002927e-04,-6.636026569e-04,9.367305564e-04,-6.191859082e-04,3.175446482e-04,4.299170651e-04,-6.343416945e-04,-2.044246294e-04,2.926609971e-03,1.796467239e-04,3.106256695e-03,2.276782374e-03,7.434426174e-05,2.351126636e-03,5.571391270e-04,-4.318736312e-04,1.252654957e-04,1.832369742e-03,-4.514496827e-04,1.380920059e-03,1.842331428e-03,-1.203486910e-04,1.721982737e-03,1.420952641e-03,1.578035137e-04,1.578756155e-03,2.562793865e-03,-5.813347993e-05,2.504660385e-03,1.726739640e-03,-1.321629510e-04,1.594576689e-03,1.110859520e-03,-4.119277190e-04,6.989318009e-04,7.259964839e-04,-7.485784828e-04,-2.258199899e-05,6.780591308e-04,-5.847438093e-04,9.331532145e-05,6.124871169e-04,-6.545279027e-04,-4.204078582e-05,6.588110320e-04,-6.019291567e-05,5.986181163e-04,2.742761345e-04,-7.596427728e-04,-4.853666383e-04,7.064009926e-04,-8.625372436e-04,-1.561362510e-04,-7.104758412e-05,-5.662315087e-04,-6.372790928e-04,4.516837395e-04,-8.765741046e-04,-4.248903651e-04,6.300438207e-04,-4.665958711e-04,1.634479496e-04,-7.302060005e-05,-1.222223940e-03,-1.295244540e-03,5.600997520e-04,-2.502451439e-04,3.098546081e-04,5.787026334e-04,-6.163375255e-04,-3.763489212e-05,1.439268209e-03,-2.011192844e-04,1.238148925e-03,-7.376456085e-05,-5.735334550e-04,-6.472980159e-04,1.611557273e-03,-5.165424150e-04,1.095014858e-03,-6.419529730e-05,-1.003408378e-03,-1.067603675e-03
-6.7,-1.722917467e-04,-9.753486980e-04,-1.147640445e-03,9.414373925e-04,-5.185776209e-04,4.228597716e-04,-9.391802454e-04,-1.525338862e-03,-2.464519107e-03,5.758444275e-04,2.306315456e-04,8.064759731e-04,-6.816262259e-04,-4.196617297e-04,-1.101287956e-03,2.197646985e-04,-4.125777674e-04,-1.928130689e-04,3.217235254e-04,-7.151287852e-04,-3.934052598e-04,5.476162474e-04,-1.404325313e-04,4.071837161e-04,-1.210631436e-04,-5.895700025e-04,-7.106331461e-04,9.283527901e-04,-6.385565367e-04,2.897962534e-04,3.346220654e-04,-6.500619772e-04,-3.154399118e-04,2.928524941e-03,1.804846317e-04,3.109009572e-03,2.236207524e-03,8.218393437e-05,2.318391459e-03,5.311349774e-04,-4.275565616e-04,1.035784158e-04,1.791228015e-03,-4.543075694e-04,1.336920446e-03,1.804055290e-03,-1.232328817e-04,1.680822408e-03,1.354790682e-03,1.695207774e-04,1.524311459e-03,2.500304557e-03,-5.507122590e-05,2.445233331e-03,1.653728937e-03,-1.340275883e-04,1.519701349e-03,1.110251278e-03,-4.374789054e-04,6.727723728e-04,6.703999883e-04,-7.655489715e-04,-9.514898318e-05,6.607992403e-04,-5.999226622e-04,6.087657810e-05,5.363045428e-04,-6.687317341e-04,-1.324271913e-04,6.409073982e-04,-6.559984251e-05,5.753075557e-04,1.505842785e-04,-7.348762900e-04,-5.842920115e-04,6.444854176e-04,-8.424589887e-04,-1.979735711e-04,-1.679937932e-04,-5.646560849e-04,-7.326498781e-04,4.413965785e-04,-8.873913678e-04,-4.459947893e-04,5.783696593e-04,-4.721606204e-04,1.062090389e-04,-1.474151940e-04,-1.243025486e-03,-1.390440680e-03,4.845337682e-04,-2.522013673e-04,2.323324009e-04,5.107338948e-04,-6.291460310e-04,-1.184121362e-04,1.322431247e-03,-1.681062470e-04,1.154325000e-03,-1.535464867e-04,-5.684741529e-04,-7.220206396e-04,1.567750941e-03,-5.232484887e-04,1.044502452e-03,-1.729380197e-04,-9.831851843e-04,-1.156123204e-03
-6.6,-2.563260671e-04,-9.960375990e-04,-1.252363666e-03,9.404550178e-04,-5.344340138e-04,4.060210040e-04,-1.080248585e-03,-1.539723289e-03,-2.619971874e-03,5.463494007e-04,2.375958374e-04,7.839452381e-04,-7.264640248e-04,-4.333191195e-04,-1.159783144e-03,1.782380176e-04,-4.133264790e-04,-2.350884613e-04,2.885957519e-04,-7.286905431e-04,-4.400947912e-04,5.478262228e-04,-1.749695953e-04,3.728566275e-04,-1.498851531e-04,-6.078562024e-04,-7.577413555e-04,9.168104612e-04,-6.556176608e-04,2.611928004e-04,2.380871618e-04,-6.638642461e-04,-4.257770842e-04,2.924477987e-03,1.825461137e-04,3.107024101e-03,2.190507922e-03,9.091604431e-05,2.281423966e-03,5.024921673e-04,-4.215003510e-04,8.099181635e-05,1.745063847e-03,-4.548403539e-04,1.290223493e-03,1.762088630e-03,-1.249064756e-04,1.637182155e-03,1.285591505e-03,1.805003436e-04,1.466091849e-03,2.434229373e-03,-5.056795374e-05,2.383661419e-03,1.577200822e-03,-1.351615456e-04,1.442039277e-03,1.106111224e-03,-4.604788205e-04,6.456324039e-04,6.128332249e-04,-7.809737646e-04,-1.681405398e-04,6.407737985e-04,-6.129103917e-04,2.786340686e-05,4.582395132e-04,-6.802241416e-04,-2.219846285e-04,6.196198332e-04,-6.888560315e-05,5.507342300e-04,2.097850687e-05,-7.070149184e-04,-6.860364115e-04,5.766928891e-04,-8.192117256e-04,-2.425188364e-04,-2.705422315e-04,-5.603022402e-04,-8.308444717e-04,4.253714151e-04,-8.949646156e-04,-4.695932005e-04,5.244403056e-04,-4.764715737e-04,4.796873191e-05,-2.250800243e-04,-1.261211167e-03,-1.486291191e-03,4.072212303e-04,-2.531366416e-04,1.540845887e-04,4.395103788e-04,-6.401653844e-04,-2.006550055e-04,1.203609163e-03,-1.303976925e-04,1.073211470e-03,-2.336743713e-04,-5.628417614e-04,-7.965161327e-04,1.520173559e-03,-5.273987666e-04,9.927747924e-04,-2.824046776e-04,-9.614002833e-04,-1.243804961e-03
-6.5,-3.400899566e-04,-1.015011628e-03,-1.355101585e-03,9.358442045e-04,-5.485892407e-04,3.872549638e-04,-1.224109453e-03,-1.549617018e-03,-2.773726471e-03,5.154914732e-04,2.440735167e-04,7.595649899e-04,-7.695271038e-04,-4.461751991e-04,-1.215702303e-03,1.344203220e-04,-4.124758893e-04,-2.780555673e-04,2.539580631e-04,-7.405694140e-04,-4.866113509e-04,5.484274001e-04,-2.090596613e-04,3.393677388e-04,-1.801583181e-04,-6.246746072e-04,-8.048329253e-04,9.021793960e-04,-6.703079108e-04,2.318714852e-04,1.408017222e-04,-6.756726146e-04,-5.348708924e-04,2.914093581e-03,1.857817660e-04,3.099875347e-03,2.139764733e-03,1.004149982e-04,2.240179731e-03,4.713804229e-04,-4.136902337e-04,5.769018924e-05,1.694094934e-03,-4.530635692e-04,1.241031364e-03,1.716548708e-03,-1.254174478e-04,1.591131260e-03,1.213776840e-03,1.905288014e-04,1.404305642e-03,2.364539419e-03,-4.467503140e-05,2.319864388e-03,1.497402501e-03,-1.354841864e-04,1.361918314e-03,1.098613012e-03,-4.809715823e-04,6.176414300e-04,5.537352632e-04,-7.946977923e-04,-2.409625290e-04,6.180665633e-04,-6.236616494e-04,-5.595086177e-06,3.786925159e-04,-6.888581929e-04,-3.101656769e-04,5.951446870e-04,-7.001591857e-05,5.251287685e-04,-1.138211856e-04,-6.760772381e-04,-7.898984237e-04,5.034174512e-04,-7.928396617e-04,-2.894222105e-04,-3.781297884e-04,-5.530005144e-04,-9.311303028e-04,4.038763395e-04,-8.992067740e-04,-4.953304346e-04,4.684770562e-04,-4.795077274e-04,-1.103067119e-05,-3.056787581e-04,-1.276586183e-03,-1.582264941e-03,3.286005926e-04,-2.530316826e-04,7.556891004e-05,3.654250496e-04,-6.492917243e-04,-2.838666747e-04,1.083341175e-03,-8.780826613e-05,9.955329086e-04,-3.133836427e-04,-5.565398067e-04,-8.699234494e-04,1.469036841e-03,-5.290397913e-04,9.399970497e-04,-3.917442004e-04,-9.383067102e-04,-1.330050911e-03
-6.4,-4.233924983e-04,-1.032157013e-03,-1.455549511e-03,9.275778321e-04,-5.609159030e-04,3.666619291e-04,-1.370469977e-03,-1.555129630e-03,-2.925599607e-03,4.831301524e-04,2.499826883e-04,7.331128407e-04,-8.109628206e-04,-4.581485367e-04,-1.269111357e-03,8.867557572e-05,-4.101480048e-04,-3.214724291e-04,2.179387524e-04,-7.506595473e-04,-5.327207949e-04,5.492382571e-04,-2.424492218e-04,3.067890353e-04,-2.118731699e-04,-6.399433724e-04,-8.518165423e-04,8.845289812e-04,-6.825722214e-04,2.019567598e-04,4.322717648e-05,-6.854177444e-04,-6.421905679e-04,2.896982413e-03,1.901282195e-04,3.087110633e-03,2.084051044e-03,1.105449727e-04,2.194596017e-03,4.379811244e-04,-4.041201901e-04,3.386093437e-05,1.638547086e-03,-4.490094699e-04,1.189537616e-03,1.667550089e-03,-1.248257047e-04,1.542724384e-03,1.139769913e-03,1.994022210e-04,1.339172134e-03,2.291173721e-03,-3.745237607e-05,2.253721345e-03,1.414565973e-03,-1.348935773e-04,1.279672396e-03,1.087921815e-03,-4.990128377e-04,5.889089774e-04,4.935339307e-04,-8.065659545e-04,-3.130320238e-04,5.927652530e-04,-6.321435462e-04,-3.937829325e-05,2.980529716e-04,-6.944997742e-04,-3.964468026e-04,5.676944288e-04,-6.896863306e-05,4.987257958e-04,-2.530440302e-04,-6.421011988e-04,-8.951452290e-04,4.250922781e-04,-7.634030843e-04,-3.383108062e-04,-4.901241483e-04,-5.426110191e-04,-1.032735167e-03,3.772253627e-04,-9.000451193e-04,-5.228197566e-04,4.107041235e-04,-4.812529063e-04,-7.054878281e-05,-3.888614840e-04,-1.288947841e-03,-1.677809325e-03,2.491111885e-04,-2.518714207e-04,-2.760232251e-06,2.888916098e-04,-6.564242820e-04,-3.675326722e-04,9.621460741e-04,-4.021802273e-05,9.219280514e-04,-3.918600300e-04,-5.494808802e-04,-9.413409102e-04,1.414550045e-03,-5.282296480e-04,8.863203971e-04,-5.000930915e-04,-9.141404844e-04,-1.414233576e-03
-6.3,-5.060410510e-04,-1.047362474e-03,-1.553403525e-03,9.156287136e-04,-5.712910836e-04,3.443376299e-04,-1.519003071e-03,-1.556402988e-03,-3.075406060e-03,4.491038657e-04,2.552335004e-04,7.043373662e-04,-8.509359186e-04,-4.691627509e-04,-1.320098670e-03,4.137829487e-05,-4.064699105e-04,-3.650916157e-04,1.806634711e-04,-7.588569698e-04,-5.781934986e-04,5.500374145e-04,-2.748703660e-04,2.751670486e-04,-2.450169941e-04,-6.535829428e-04,-8.985999369e-04,8.639225831e-04,-6.923616600e-04,1.715609230e-04,-5.420488132e-05,-6.930371846e-04,-7.472420659e-04,2.872746664e-03,1.955075700e-04,3.068254234e-03,2.023431451e-03,1.211620368e-04,2.144593487e-03,4.024867746e-04,-3.927931302e-04,9.693644461e-06,1.578649956e-03,-4.427248915e-04,1.135925065e-03,1.615200014e-03,-1.232010143e-04,1.491999000e-03,1.063989050e-03,2.069292284e-04,1.270918278e-03,2.214040771e-03,-2.896785260e-05,2.185072919e-03,1.328908224e-03,-1.332700344e-04,1.195638190e-03,1.074189618e-03,-5.146642831e-04,5.595253351e-04,4.326423617e-04,-8.164244172e-04,-3.837820555e-04,5.649614828e-04,-6.383350737e-04,-7.337359089e-05,2.166983456e-04,-6.970286234e-04,-4.803302778e-04,5.374982511e-04,-6.573436432e-05,4.717638868e-04,-3.958708368e-04,-6.051448689e-04,-1.001015706e-03,3.421889394e-04,-7.309787210e-04,-3.887897816e-04,-6.058257989e-04,-5.290258468e-04,-1.134851646e-03,3.457772234e-04,-8.974207290e-04,-5.516435056e-04,3.513483987e-04,-4.816955924e-04,-1.303471937e-04,-4.742612158e-04,-1.298087882e-03,-1.772349097e-03,1.691910268e-04,-2.496449450e-04,-8.045391818e-05,2.103439187e-04,-6.614663414e-04,-4.511224227e-04,8.405336490e-04,1.240136429e-05,8.529350133e-04,-4.682457949e-04,-5.415900874e-04,-1.009835882e-03,1.356920277e-03,-5.250370675e-04,8.318832097e-04,-6.065825981e-04,-8.891142194e-04,-1.495696818e-03
-6.2,-5.878433666e-04,-1.060512286e-03,-1.648355653e-03,8.999715237e-04,-5.795972325e-04,3.203742912e-04,-1.669341511e-03,-1.553608802e-03,-3.222950313e-03,4.132348394e-04,2.597279340e-04,6.729627734e-04,-8.896217457e-04,-4.791465178e-04,-1.368768264e-03,-7.089224884e-06,-4.015699982e-04,-4.086592231e-04,1.422573306e-04,-7.650601829e-04,-6.228028523e-04,5.505721073e-04,-3.060487364e-04,2.445233710e-04,-2.795682497e-04,-6.655159297e-04,-9.450841794e-04,8.404194590e-04,-6.996332573e-04,1.407862017e-04,-1.510927300e-04,-6.984756926e-04,-8.495684225e-04,2.840987287e-03,2.018271595e-04,3.042814446e-03,1.957964398e-03,1.321158819e-04,2.090080279e-03,3.651012981e-04,-3.797209843e-04,-1.461968612e-05,1.514635080e-03,-4.342692002e-04,1.080365880e-03,1.559595651e-03,-1.206207933e-04,1.438974858e-03,9.868412362e-04,2.129359837e-04,1.199777220e-03,2.133022822e-03,-1.929611169e-05,2.113726711e-03,1.240634493e-03,-1.304815465e-04,1.110152947e-03,1.057552912e-03,-5.279889163e-04,5.295639953e-04,3.714570329e-04,-8.241218967e-04,-4.526648638e-04,5.347516555e-04,-6.422263773e-04,-1.074747218e-04,1.349942574e-04,-6.963394952e-04,-5.613452379e-04,5.048035493e-04,-6.031710288e-05,4.444864465e-04,-5.414348979e-04,-5.652872831e-04,-1.106722181e-03,2.552183049e-04,-6.956600272e-04,-4.404417223e-04,-7.244680988e-04,-5.121726161e-04,-1.236640715e-03,3.099358246e-04,-8.912883909e-04,-5.813525664e-04,2.906397197e-04,-4.808284451e-04,-1.901887254e-04,-5.614894955e-04,-1.303794921e-03,-1.865284416e-03,8.927557877e-05,-2.463457889e-04,-1.570702101e-04,1.302362753e-04,-6.643260694e-04,-5.340897941e-04,7.190132380e-04,6.996455977e-05,7.889777978e-04,-5.416487314e-04,-5.328076509e-04,-1.074456382e-03,1.296353478e-03,-5.195400914e-04,7.768133867e-04,-7.103447706e-04,-8.634145345e-04,-1.573759305e-03
-6.1,-6.686088989e-04,-1.071480530e-03,-1.740089429e-03,8.805857730e-04,-5.857239459e-04,2.948618271e-04,-1.821073452e-03,-1.546943769e-03,-3.368017221e-03,3.753342815e-04,2.633602020e-04,6.386944834e-04,-9.271987719e-04,-4.880334516e-04,-1.415232223e-03,-5.633947296e-05,-3.955741603e-04,-4.519136332e-04,1.028470157e-04,-7.691705439e-04,-6.663235281e-04,5.505692512e-04,-3.357138378e-04,2.148554134e-04,-3.154910617e-04,-6.756670273e-04,-9.911580890e-04,8.140769379e-04,-7.043501240e-04,1.097268139e-04,-2.470640915e-04,-7.016855791e-04,-9.487496706e-04,2.801311534e-03,2.089794137e-04,3.010290947e-03,1.887705727e-03,1.432507380e-04,2.030956465e-03,3.260399130e-04,-3.649248142e-04,-3.888490127e-05,1.446734702e-03,-4.237123499e-04,1.023022352e-03,1.500822272e-03,-1.171677504e-04,1.383654522e-03,9.087155354e-04,2.172725845e-04,1.125988120e-03,2.047982457e-03,-8.517484588e-06,2.039464972e-03,1.149943375e-03,-1.263907054e-04,1.023552669e-03,1.038131480e-03,-5.390474693e-04,4.990840106e-04,3.103561321e-04,-8.295110753e-04,-5.191549432e-04,5.022377436e-04,-6.438180852e-04,-1.415803416e-04,5.329419822e-05,-6.923435532e-04,-6.390493550e-04,4.698768448e-04,-5.273482852e-05,4.171420163e-04,-6.888228968e-04,-5.226293636e-04,-1.211452260e-03,1.647312530e-04,-6.575574597e-04,-4.928262066e-04,-8.452169223e-04,-4.920190443e-04,-1.337235967e-03,2.701497732e-04,-8.816168276e-04,-6.114670544e-04,2.288109966e-04,-4.786477706e-04,-2.498367740e-04,-6.501332887e-04,-1.305855792e-03,-1.955989081e-03,9.796620125e-06,-2.419725410e-04,-2.321759209e-04,4.904314052e-05,-6.649169814e-04,-6.158738409e-04,5.980951073e-04,1.322586275e-04,7.303537348e-04,-6.111531551e-04,-5.230918691e-04,-1.134245024e-03,1.233054784e-03,-5.118241687e-04,7.212306154e-04,-8.105189882e-04,-8.372012146e-04,-1.647720203e-03
-6,-7.481498477e-04,-1.080127551e-03,-1.828277399e-03,8.574585059e-04,-5.895705334e-04,2.678879725e-04,-1.973740271e-03,-1.536622653e-03,-3.510362925e-03,3.352067353e-04,2.660181246e-04,6.012248599e-04,-9.638416065e-04,-4.957617386e-04,-1.459603345e-03,-1.059835384e-04,-3.886018747e-04,-4.945854131e-04,6.256167132e-05,-7.710924911e-04,-7.085308198e-04,5.497462980e-04,-3.636094720e-04,1.861368260e-04,-3.527313849e-04,-6.839629460e-04,-1.036694331e-03,7.849518204e-04,-7.064820181e-04,7.846980237e-05,-3.417765212e-04,-7.026271100e-04,-1.044403631e-03,2.753339323e-03,2.168415706e-04,2.970180894e-03,1.812711420e-03,1.544056258e-04,1.967117046e-03,2.855276492e-04,-3.484350554e-04,-6.290740624e-05,1.375179925e-03,-4.111331798e-04,9.640467449e-04,1.438951276e-03,-1.129276652e-04,1.326023611e-03,8.299766898e-04,2.198191929e-04,1.049795883e-03,1.958770488e-03,3.282188209e-06,1.962052676e-03,1.057031576e-03,-1.208623190e-04,9.361692565e-04,1.016027191e-03,-5.478964535e-04,4.681307371e-04,2.496970743e-04,-8.324502255e-04,-5.827531512e-04,4.675270506e-04,-6.431207371e-04,-1.755936865e-04,-2.806214138e-05,-6.849699167e-04,-7.130320581e-04,4.330029877e-04,-4.302016556e-05,3.899828221e-04,-8.370776245e-04,-4.772946564e-04,-1.314372281e-03,7.131720014e-05,-6.167986844e-04,-5.454814842e-04,-9.671720091e-04,-4.685778585e-04,-1.435749868e-03,2.269086409e-04,-8.683888175e-04,-6.414801766e-04,1.660975990e-04,-4.751529639e-04,-3.090553649e-04,-7.397538239e-04,-1.304055848e-03,-2.043809672e-03,-6.881960394e-05,-2.365296208e-04,-3.053492248e-04,-3.274290287e-05,-6.631580877e-04,-6.959009906e-04,4.782859964e-04,1.989366860e-04,6.772226824e-04,-6.758328384e-04,-5.124222081e-04,-1.188255047e-03,1.167227528e-03,-5.019800595e-04,6.652474687e-04,-9.062606676e-04,-8.106044606e-04,-1.716865128e-03
-5.9,-8.262824479e-04,-1.086298916e-03,-1.912581364e-03,8.305859239e-04,-5.910487760e-04,2.395371479e-04,-2.126836098e-03,-1.522870765e-03,-3.649706862e-03,2.926534345e-04,2.675851818e-04,5.602386163e-04,-9.997152140e-04,-5.022734998e-04,-1.501988714e-03,-1.556367720e-04,-3.807624609e-04,-5.363992328e-04,2.153212860e-05,-7.707337822e-04,-7.492016536e-04,5.478191706e-04,-3.895017346e-04,1.583174360e-04,-3.912151954e-04,-6.903322989e-04,-1.081547494e-03,7.531006982e-04,-7.060061171e-04,4.709458103e-05,-4.349188895e-04,-7.012689190e-04,-1.136187809e-03,2.696708415e-03,2.252752879e-04,2.921983703e-03,1.733038633e-03,1.654144997e-04,1.898453133e-03,2.437965352e-04,-3.302918656e-04,-8.649533041e-05,1.300198358e-03,-3.966184104e-04,9.035799478e-04,1.374037680e-03,-1.079875928e-04,1.266050088e-03,7.509596716e-04,2.204902863e-04,9.714499578e-04,1.865233969e-03,1.601041878e-05,1.881244387e-03,9.620967476e-04,-1.137707253e-04,8.483260223e-04,9.913230098e-04,-5.545880990e-04,4.367349108e-04,1.898127921e-04,-8.328049436e-04,-6.429921515e-04,4.307307889e-04,-6.401541783e-04,-2.094233895e-04,-1.087519374e-04,-6.741671898e-04,-7.829191271e-04,3.944824086e-04,-3.122102147e-05,3.632613871e-04,-9.852034143e-04,-4.294296502e-04,-1.414633064e-03,-2.440024699e-05,-5.735285988e-04,-5.979288458e-04,-1.089371110e-03,-4.419113192e-04,-1.531282429e-03,1.807355300e-04,-8.516010513e-04,-6.708655213e-04,1.027360305e-04,-4.703458228e-04,-3.676097923e-04,-8.298865290e-04,-1.298179359e-03,-2.128065888e-03,-1.461549539e-04,-2.300280237e-04,-3.761829776e-04,-1.146151975e-04,-6.589738970e-04,-7.735890945e-04,3.600843510e-04,2.695157980e-04,6.296001490e-04,-7.347660114e-04,-5.008013375e-04,-1.235567349e-03,1.099071220e-03,-4.901019202e-04,6.089692995e-04,-9.967517763e-04,-7.837192365e-04,-1.780471013e-03
-5.8,-9.028285573e-04,-1.089826440e-03,-1.992654997e-03,7.999743217e-04,-5.900854645e-04,2.098888572e-04,-2.279808399e-03,-1.505916609e-03,-3.785725009e-03,2.474754749e-04,2.679426106e-04,5.154180855e-04,-1.034970215e-03,-5.075139612e-04,-1.542484176e-03,-2.049252549e-04,-3.721521276e-04,-5.770773824e-04,-2.011094909e-05,-7.680059237e-04,-7.881168728e-04,5.445065157e-04,-4.131833311e-04,1.313231845e-04,-4.308478646e-04,-6.947053880e-04,-1.125553253e-03,7.185795940e-04,-7.029075141e-04,1.567207992e-05,-5.262132467e-04,-6.975883192e-04,-1.223801566e-03,2.631079221e-03,2.341262371e-04,2.865205458e-03,1.648745516e-03,1.761069392e-04,1.824852456e-03,2.010822791e-04,-3.105454642e-04,-1.094631851e-04,1.222012294e-03,-3.802625257e-04,8.417497680e-04,1.306117991e-03,-1.024346991e-04,1.203683292e-03,6.719651362e-04,2.192371526e-04,8.912022889e-04,1.767223504e-03,2.956577231e-05,1.796789276e-03,8.653383754e-04,-1.050062418e-04,7.603321336e-04,9.640830162e-04,-5.591717000e-04,4.049113163e-04,1.310073197e-04,-8.304498803e-04,-6.994425606e-04,3.919621293e-04,-6.349467920e-04,-2.429846628e-04,-1.884728436e-04,-6.599048228e-04,-8.483776665e-04,3.546271558e-04,-1.740115232e-05,3.372260034e-04,-1.132173878e-03,-3.792037479e-04,-1.511377626e-03,-1.217697051e-04,-5.279090858e-04,-6.496787909e-04,-1.210796884e-03,-4.121345313e-04,-1.622931416e-03,1.321776759e-04,-8.312640233e-04,-6.990863474e-04,3.896251449e-05,-4.642297895e-04,-4.252672750e-04,-9.200411600e-04,-1.288010958e-03,-2.208052118e-03,-2.218023287e-04,-2.224858620e-04,-4.442881907e-04,-1.960583909e-04,-6.522944999e-04,-8.483528908e-04,2.439787661e-04,3.433765770e-04,5.873553431e-04,-7.870525284e-04,-4.882551485e-04,-1.275307677e-03,1.028779346e-03,-4.762852235e-04,5.524941227e-04,-1.081211445e-03,-7.565987005e-04,-1.837810145e-03
-5.7,-9.776169466e-04,-1.090530632e-03,-2.068147578e-03,7.656414567e-04,-5.866246970e-04,1.790167597e-04,-2.432058818e-03,-1.485984506e-03,-3.918043324e-03,1.994778418e-04,2.669712401e-04,4.664490819e-04,-1.069738510e-03,-5.114305707e-04,-1.581169081e-03,-2.534912334e-04,-3.628521170e-04,-6.163433504e-04,-6.223873978e-05,-7.628249579e-04,-8.250636976e-04,5.395311143e-04,-4.344745837e-04,1.050565306e-04,-4.715132897e-04,-6.970139170e-04,-1.168527207e-03,6.814438754e-04,-6.971792576e-04,-1.573538220e-05,-6.154158396e-04,-6.915714533e-04,-1.306987293e-03,2.556140467e-03,2.432238980e-04,2.799364365e-03,1.559891103e-03,1.863098016e-04,1.746200905e-03,1.576215608e-04,-2.892563674e-04,-1.316348066e-04,1.140838198e-03,-3.621681837e-04,7.786700138e-04,1.235210264e-03,-9.635600033e-05,1.138854263e-03,5.932550912e-04,2.160499064e-04,8.093049976e-04,1.664599999e-03,4.383498620e-05,1.708434986e-03,7.669581270e-04,-9.448113102e-05,6.724769960e-04,9.343538473e-04,-5.616953625e-04,3.726584849e-04,7.355174305e-05,-8.252705001e-04,-7.517187570e-04,3.513348533e-04,-6.275345693e-04,-2.761997160e-04,-2.669459573e-04,-6.421742445e-04,-9.091202018e-04,3.137570599e-04,-1.640635708e-06,3.121164242e-04,-1.276940629e-03,-3.268090992e-04,-1.603749728e-03,-2.201187957e-04,-4.801185021e-04,-7.002372978e-04,-1.330385927e-03,-3.794164875e-04,-1.709802414e-03,8.179790738e-05,-8.074024744e-04,-7.256045670e-04,-2.498775694e-05,-4.568093289e-04,-4.817970859e-04,-1.009701523e-03,-1.273338346e-03,-2.283039869e-03,-2.953684633e-04,-2.139285964e-04,-5.092970598e-04,-2.765539479e-04,-6.430559950e-04,-9.196099429e-04,1.304482093e-04,4.197649089e-04,5.502131182e-04,-8.318331896e-04,-4.748302660e-04,-1.306663456e-03,9.565376190e-04,-4.606237113e-04,4.959139076e-04,-1.158905585e-03,-7.292490925e-04,-1.888154677e-03
-5.6,-1.050483228e-03,-1.088224143e-03,-2.138707371e-03,7.276192728e-04,-5.806299620e-04,1.469893108e-04,-2.582942415e-03,-1.463287315e-03,-4.046229730e-03,1.484750009e-04,2.645531494e-04,4.130281503e-04,-1.104128243e-03,-5.139721867e-04,-1.618100430e-03,-3.009962213e-04,-3.529277368e-04,-6.539239581e-04,-1.047245595e-04,-7.551126312e-04,-8.598371907e-04,5.326197175e-04,-4.532222871e-04,7.939743033e-05,-5.130715600e-04,-6.971907479e-04,-1.210262308e-03,6.417494956e-04,-6.888222860e-04,-4.707279040e-05,-7.023161517e-04,-6.832133524e-04,-1.385529504e-03,2.471616825e-03,2.523818023e-04,2.723998627e-03,1.466536826e-03,1.958497726e-04,1.662386598e-03,1.136506738e-04,-2.664954780e-04,-1.528448042e-04,1.056888004e-03,-3.424468096e-04,7.144411947e-04,1.161317753e-03,-8.983903499e-05,1.071478718e-03,5.150491327e-04,2.109593333e-04,7.260084660e-04,1.557241542e-03,5.869048310e-05,1.615932025e-03,6.671614873e-04,-8.213601298e-05,5.850254743e-04,9.021678359e-04,-5.622076574e-04,3.399601786e-04,1.768158188e-05,-8.171649192e-04,-7.994833373e-04,3.089635629e-04,-6.179601213e-04,-3.089965584e-04,-3.439173089e-04,-6.209897755e-04,-9.649070844e-04,2.721971672e-04,1.596376550e-05,2.881609327e-04,-1.418441635e-03,-2.724602864e-04,-1.690901921e-03,-3.187595783e-04,-4.303509308e-04,-7.491105091e-04,-1.447038725e-03,-3.439782980e-04,-1.791017023e-03,3.016939432e-05,-7.800567631e-04,-7.498873688e-04,-8.888037719e-05,-4.480895181e-04,-5.369698953e-04,-1.098324400e-03,-1.253956036e-03,-2.352280435e-03,-3.664761948e-04,-2.043889182e-04,-5.708651130e-04,-3.555846650e-04,-6.312014140e-04,-9.867860790e-04,1.996134444e-05,4.977980741e-04,5.177594185e-04,-8.683105127e-04,-4.605888506e-04,-1.328899363e-03,8.825230408e-04,-4.432053130e-04,4.393177279e-04,-1.229155471e-03,-7.016271449e-04,-1.930782616e-03
-5.5,-1.121267175e-03,-1.082716133e-03,-2.203983308e-03,6.859578618e-04,-5.720857407e-04,1.138721210e-04,-2.731763646e-03,-1.438020069e-03,-4.169783715e-03,9.429799829e-05,2.605734263e-04,3.548714246e-04,-1.138217586e-03,-5.150884306e-04,-1.653306017e-03,-3.471215039e-04,-3.424282590e-04,-6.895497629e-04,-1.474424687e-04,-7.447977897e-04,-8.922402584e-04,5.235025097e-04,-4.692977568e-04,5.420475287e-05,-5.553550171e-04,-6.951698540e-04,-1.250524871e-03,5.995557880e-04,-6.778456602e-04,-7.828987221e-05,-7.867337378e-04,-6.725180275e-04,-1.459251765e-03,2.377278564e-03,2.613984190e-04,2.638676983e-03,1.368750203e-03,2.045564994e-04,1.573306703e-03,6.940532592e-05,-2.423440191e-04,-1.729386932e-04,9.703720908e-04,-3.212192334e-04,6.491528574e-04,1.084435675e-03,-8.297285744e-05,1.001462817e-03,4.375230706e-04,2.040374452e-04,6.415605158e-04,1.445050818e-03,7.398906893e-05,1.519039887e-03,5.661614629e-04,-6.794697252e-05,4.982144904e-04,8.675477090e-04,-5.607592135e-04,3.067884955e-04,-3.640408515e-05,-8.060457142e-04,-8.424497993e-04,2.649655121e-04,-6.062717923e-04,-3.413062801e-04,-4.191580788e-04,-5.963894142e-04,-1.015547493e-03,2.302764660e-04,3.529835825e-05,2.655748243e-04,-1.555608722e-03,-2.163936391e-04,-1.772002361e-03,-4.169919837e-04,-3.788152141e-04,-7.958071978e-04,-1.559629304e-03,-3.060891861e-04,-1.865718490e-03,-2.212587935e-05,-7.492851016e-04,-7.714109809e-04,-1.524808713e-04,-4.380756678e-04,-5.905565391e-04,-1.185338209e-03,-1.229669694e-03,-2.415007903e-03,-4.347662723e-04,-1.939062222e-04,-6.286724945e-04,-4.326378466e-04,-6.166820356e-04,-1.049319882e-03,-8.702555934e-05,5.764775694e-04,4.894520101e-04,-8.957695535e-04,-4.456009109e-04,-1.341370464e-03,8.069041580e-04,-4.241082443e-04,3.827959136e-04,-1.291345327e-03,-6.736404418e-04,-1.964985769e-03
-5.4,-1.189806713e-03,-1.073817717e-03,-2.263624430e-03,6.407292811e-04,-5.609981579e-04,7.973112319e-05,-2.877769378e-03,-1.410355157e-03,-4.288124535e-03,3.680209341e-05,2.549223992e-04,2.917244926e-04,-1.172047800e-03,-5.147292701e-04,-1.686777070e-03,-3.915666609e-04,-3.313881280e-04,-7.229547889e-04,-1.902649117e-04,-7.318179078e-04,-9.220828195e-04,5.119129981e-04,-4.825950503e-04,2.931794778e-05,-5.981639343e-04,-6.908865453e-04,-1.289050480e-03,5.549287988e-04,-6.642670900e-04,-1.093382912e-04,-8.685138812e-04,-6.594986244e-04,-1.528012506e-03,2.272951676e-03,2.700587081e-04,2.543010384e-03,1.266609436e-03,2.122660862e-04,1.478875522e-03,2.512057525e-05,-2.168933264e-04,-1.917727512e-04,8.815025321e-04,-2.986160546e-04,5.828864775e-04,1.004558996e-03,-7.584855307e-05,9.287104429e-04,3.608110817e-04,1.953958459e-04,5.562069276e-04,1.327962431e-03,8.957197830e-05,1.417534410e-03,4.641832504e-04,-5.193226765e-05,4.122509828e-04,8.305118243e-04,-5.574041696e-04,2.731076547e-04,-8.854252794e-05,-7.918415046e-04,-8.803840325e-04,2.194630428e-04,-5.925229687e-04,-3.730599259e-04,-4.924646750e-04,-5.684356118e-04,-1.060900287e-03,1.883267274e-04,5.623236024e-05,2.445590876e-04,-1.687375017e-03,-1.588660269e-04,-1.846241044e-03,-5.141063487e-04,-3.257338219e-04,-8.398401706e-04,-1.667014864e-03,-2.660612320e-04,-1.933076096e-03,-7.449710151e-05,-7.151661281e-04,-7.896632296e-04,-2.155540535e-04,-4.267728824e-04,-6.423269359e-04,-1.270142764e-03,-1.200300851e-03,-2.470443615e-03,-4.998993972e-04,-1.825256399e-04,-6.824250371e-04,-5.072078619e-04,-5.994588551e-04,-1.106666717e-03,-1.900722490e-04,6.547103140e-04,4.646380651e-04,-9.135975061e-04,-4.299349732e-04,-1.343532479e-03,7.298423282e-04,-4.033987671e-04,3.264435611e-04,-1.344928959e-03,-6.451508238e-04,-1.990079782e-03
-5.3,-1.255929245e-03,-1.061348770e-03,-2.317278015e-03,5.920295785e-04,-5.473945033e-04,4.463507519e-05,-3.020141294e-03,-1.380439070e-03,-4.400580365e-03,-2.412634839e-05,2.474985985e-04,2.233722501e-04,-1.205616754e-03,-5.128448688e-04,-1.718461623e-03,-4.340472898e-04,-3.198297341e-04,-7.538770240e-04,-2.330605182e-04,-7.161208371e-04,-9.491813553e-04,4.975885028e-04,-4.930293907e-04,4.559112064e-06,-6.412635410e-04,-6.842779323e-04,-1.325541473e-03,5.079438158e-04,-6.481135132e-04,-1.401696974e-04,-9.475235998e-04,-6.441775500e-04,-1.591701150e-03,2.158526419e-03,2.781362309e-04,2.436662650e-03,1.160206845e-03,2.188246984e-04,1.379031544e-03,-1.897014698e-05,-1.902445417e-04,-2.092146887e-04,7.904946727e-04,-2.747772915e-04,5.157173812e-04,9.216891300e-04,-6.855904996e-05,8.531300800e-04,2.850101377e-04,1.851823072e-04,4.701924449e-04,1.205948494e-03,1.052662211e-04,1.311214715e-03,3.614674842e-04,-3.415701891e-05,3.273104653e-04,7.910787471e-04,-5.522014454e-04,2.388773017e-04,-1.386074949e-04,-7.744982258e-04,-9.131057207e-04,1.725852556e-04,-5.767715563e-04,-4.041863007e-04,-5.636597797e-04,-5.372160867e-04,-1.100875866e-03,1.466800554e-04,7.861776662e-05,2.252978220e-04,-1.812683661e-03,-1.001531477e-04,-1.912836808e-03,-6.093871668e-04,-2.713416331e-04,-8.807287999e-04,-1.768047342e-03,-2.242433512e-04,-1.992290693e-03,-1.263463337e-04,-6.778011187e-04,-8.041474524e-04,-2.778641790e-04,-4.141857978e-04,-6.920499768e-04,-1.352110975e-03,-1.165692024e-03,-2.517802999e-03,-5.615592408e-04,-1.702968091e-04,-7.318560499e-04,-5.787992790e-04,-5.795040773e-04,-1.158303356e-03,-2.887612788e-04,7.313382803e-04,4.425770015e-04,-9.213019006e-04,-4.136481015e-04,-1.334950002e-03,6.514927854e-04,-3.811309380e-04,2.703618474e-04,-1.389435829e-03,-6.159803417e-04,-2.005416170e-03
-5.2,-1.319442244e-03,-1.045145824e-03,-2.364588069e-03,5.399784040e-04,-5.313219405e-04,8.656463514e-06,-3.157990207e-03,-1.348390295e-03,-4.506380502e-03,-8.856429216e-05,2.382122659e-04,1.496479737e-04,-1.238873972e-03,-5.093856482e-04,-1.748259620e-03,-4.742932010e-04,-3.077672560e-04,-7.820604570e-04,-2.756928493e-04,-6.976668019e-04,-9.733596512e-04,4.802712920e-04,-5.005353844e-04,-2.026409239e-05,-6.843833536e-04,-6.752835449e-04,-1.359666899e-03,4.586865464e-04,-6.294215967e-04,-1.707350503e-04,-1.023648825e-03,-6.265864654e-04,-1.650235291e-03,2.033963259e-03,2.853958397e-04,2.319359099e-03,1.049650407e-03,2.240918087e-04,1.273742216e-03,-6.263728904e-05,-1.625082421e-04,-2.251455312e-04,6.975661065e-04,-2.498512035e-04,4.477149029e-04,8.358384370e-04,-6.119851537e-05,7.746399216e-04,2.101847735e-04,1.735762401e-04,3.837610136e-04,1.079021149e-03,1.208872842e-04,1.199908433e-03,2.582700801e-04,-1.473495898e-05,2.435351212e-04,7.492708190e-04,-5.452159693e-04,2.040548497e-04,-1.865101413e-04,-7.539801771e-04,-9.404903184e-04,1.244682271e-04,-5.590795388e-04,-4.346113117e-04,-6.325945812e-04,-5.028445910e-04,-1.135439172e-03,1.056645869e-04,1.022891952e-04,2.079537821e-04,-1.930498476e-03,-4.054739844e-05,-1.971045874e-03,-7.021195074e-04,-2.158846171e-04,-9.180041245e-04,-1.861588303e-03,-1.810147194e-04,-2.042603022e-03,-1.770737846e-04,-6.373154315e-04,-8.143892161e-04,-3.391759265e-04,-4.003187735e-04,-7.394947001e-04,-1.430592390e-03,-1.125712368e-03,-2.556304758e-03,-6.194565622e-04,-1.572727595e-04,-7.767293217e-04,-6.469313800e-04,-5.568025967e-04,-1.203733977e-03,-3.827092344e-04,8.051732402e-04,4.224640058e-04,-9.185280764e-04,-3.967757356e-04,-1.315303812e-03,5.720039145e-04,-3.573472072e-04,2.146567073e-04,-1.424476477e-03,-5.859193836e-04,-2.010395860e-03
-5.1,-1.380125255e-03,-1.025069581e-03,-2.405194837e-03,4.847167414e-04,-5.128458054e-04,-2.812906398e-05,-3.290353617e-03,-1.314297730e-03,-4.604651347e-03,-1.565473514e-04,2.269888850e-04,7.044153363e-05,-1.271717600e-03,-5.043024217e-04,-1.776020022e-03,-5.120479632e-04,-2.952105011e-04,-8.072584643e-04,-3.180202110e-04,-6.764304276e-04,-9.944506387e-04,4.597106454e-04,-5.050652662e-04,-4.535462073e-05,-7.272185300e-04,-6.638460378e-04,-1.391064568e-03,4.072533243e-04,-6.082381370e-04,-2.009848128e-04,-1.096792454e-03,-6.067661310e-04,-1.703558585e-03,1.899296587e-03,2.915970479e-04,2.190893635e-03,9.350642264e-04,2.279426953e-04,1.163006922e-03,-1.056582695e-04,-1.338040199e-04,-2.394622894e-04,6.029337639e-04,-2.239926330e-04,3.789411309e-04,7.470324054e-04,-5.386149124e-05,6.931709141e-04,1.363720692e-04,1.607826300e-04,2.971546992e-04,9.472321684e-04,1.362429228e-04,1.083475091e-03,1.548585008e-04,6.172724773e-06,1.610312255e-04,7.051170056e-04,-5.365196249e-04,1.685973807e-04,-2.322003923e-04,-7.302709741e-04,-9.624713664e-04,7.525413482e-05,-5.395125551e-04,-4.642584203e-04,-6.991514430e-04,-4.654614545e-04,-1.164612898e-03,6.559890097e-05,1.270637167e-04,1.926626177e-04,-2.039816237e-03,1.964457785e-05,-2.020171659e-03,-7.915979611e-04,-1.596182993e-04,-9.512162604e-04,-1.946526553e-03,-1.367780042e-04,-2.083304557e-03,-2.260862495e-04,-5.938591530e-04,-8.199454026e-04,-3.992558170e-04,-3.851765125e-04,-7.844323295e-04,-1.504918358e-03,-1.080263534e-03,-2.585181892e-03,-6.733337971e-04,-1.435092651e-04,-8.168430622e-04,-7.111440754e-04,-5.313534331e-04,-1.242497508e-03,-4.715800643e-04,8.750302658e-04,4.034502014e-04,-9.050761118e-04,-3.793214094e-04,-1.284397521e-03,4.915141944e-04,-3.320784791e-04,1.594357153e-04,-1.449746994e-03,-5.547364058e-04,-2.004483400e-03
-5,-1.437724668e-03,-1.001009918e-03,-2.438734586e-03,4.264038532e-04,-4.920476417e-04,-6.564378845e-05,-3.416196757e-03,-1.278218834e-03,-4.694415591e-03,-2.280649509e-04,2.137723049e-04,-1.429264598e-05,-1.303992992e-03,-4.975464910e-04,-1.801539484e-03,-5.470698750e-04,-2.821679447e-04,-8.292378196e-04,-3.598961525e-04,-6.524024195e-04,-1.012298572e-03,4.356660742e-04,-5.065878462e-04,-7.092177204e-05,-7.694321021e-04,-6.499119337e-04,-1.419344036e-03,3.537512614e-04,-5.846203893e-04,-2.308691279e-04,-1.166872215e-03,-5.847661428e-04,-1.751638358e-03,1.754637625e-03,2.964978526e-04,2.051135477e-03,8.165894584e-04,2.302701529e-04,1.046859611e-03,-1.478204285e-04,-1.042600124e-04,-2.520804410e-04,5.068105522e-04,-1.973612532e-04,3.094492991e-04,6.553100357e-04,-4.664153000e-05,6.086685057e-04,6.358772121e-05,1.470235908e-04,2.106113120e-04,8.106712463e-04,1.511372385e-04,9.618084848e-04,5.150607723e-05,2.836093832e-05,7.986701555e-05,6.586554694e-04,-5.261915106e-04,1.324639588e-04,-2.756677967e-04,-7.033744289e-04,-9.790422256e-04,2.509032553e-05,-5.181394208e-04,-4.930490953e-04,-7.632457276e-04,-4.252337387e-04,-1.188479466e-03,2.678640855e-05,1.527407616e-04,1.795271701e-04,-2.139679374e-03,8.010456362e-05,-2.059574811e-03,-8.771366855e-04,-1.028059173e-04,-9.799426028e-04,-2.021796504e-03,-9.195254100e-05,-2.113749045e-03,-2.728068991e-04,-5.476069738e-04,-8.204138729e-04,-4.578734198e-04,-3.687649162e-04,-8.266383360e-04,-1.574408533e-03,-1.029285223e-03,-2.603693756e-03,-7.229690800e-04,-1.290647928e-04,-8.520338728e-04,-7.710045186e-04,-5.031711370e-04,-1.274175656e-03,-5.550953629e-04,9.397551440e-04,3.846597811e-04,-8.809161599e-04,-3.612467800e-04,-1.242162940e-03,4.101480772e-04,-3.053437123e-04,1.048043649e-04,-1.465032954e-03,-5.221875896e-04,-1.987220544e-03
-4.9,-1.491951546e-03,-9.728873012e-04,-2.464838848e-03,3.652148888e-04,-4.690230735e-04,-1.038081847e-04,-3.534416789e-03,-1.240176814e-03,-4.774593604e-03,-3.030544003e-04,1.985272504e-04,-1.045271499e-04,-1.335492120e-03,-4.890697531e-04,-1.824561873e-03,-5.791336513e-04,-2.686490528e-04,-8.477827041e-04,-4.011699878e-04,-6.255906266e-04,-1.026760614e-03,4.079117393e-04,-5.050881849e-04,-9.717644558e-05,-8.106567891e-04,-6.334323689e-04,-1.444089158e-03,2.982993609e-04,-5.586363979e-04,-2.603370370e-04,-1.233817198e-03,-5.606445473e-04,-1.794461745e-03,1.600178054e-03,2.998586953e-04,1.900036750e-03,6.943870509e-04,2.309854796e-04,9.253725305e-04,-1.889228238e-04,-7.401235871e-05,-2.629351825e-04,4.094026883e-04,-1.701196410e-04,2.392830473e-04,5.607234915e-04,-3.962901891e-05,5.210944726e-04,-8.167269022e-06,1.325282781e-04,1.243610091e-04,6.694650445e-04,1.653742494e-04,8.348392939e-04,-5.151356415e-05,5.158591248e-05,7.234832223e-08,6.099364428e-04,-5.143176958e-04,9.561874697e-05,-3.169408537e-04,-6.733152517e-04,-9.902561054e-04,-2.587066566e-05,-4.950314949e-04,-5.209021606e-04,-8.248255727e-04,-3.823549189e-04,-1.207180492e-03,-1.048900567e-05,1.791022497e-04,1.686132441e-04,-2.229187693e-03,1.405055466e-04,-2.088682147e-03,-9.580786303e-04,-4.571628619e-05,-1.003794917e-03,-2.086395098e-03,-4.696703191e-05,-2.133362130e-03,-3.166843300e-04,-4.987571673e-04,-8.154414973e-04,-5.148017668e-04,-3.510920739e-04,-8.658938406e-04,-1.638377714e-03,-9.727603116e-04,-2.611138025e-03,-7.681787899e-04,-1.140009269e-04,-8.821797168e-04,-8.261133540e-04,-4.722872635e-04,-1.298400617e-03,-6.330392052e-04,9.982471363e-04,3.652079312e-04,-8.461998417e-04,-3.424637912e-04,-1.188663633e-03,3.280130958e-04,-2.771505344e-04,5.086256146e-05,-1.470213175e-03,-4.880249217e-04,-1.958238097e-03
-4.8,-1.542481942e-03,-9.406510965e-04,-2.483133039e-03,3.013405282e-04,-4.438797888e-04,-1.425392606e-04,-3.643849875e-03,-1.200156565e-03,-4.844006441e-03,-3.813935127e-04,1.812411053e-04,-2.001524074e-04,-1.365953048e-03,-4.788249349e-04,-1.844777983e-03,-6.080322599e-04,-2.546660977e-04,-8.626983576e-04,-4.416866546e-04,-5.960206085e-04,-1.037707263e-03,3.762421657e-04,-5.005672025e-04,-1.243250368e-04,-8.504958580e-04,-6.143638732e-04,-1.464859731e-03,2.410310559e-04,-5.303653846e-04,-2.893343287e-04,-1.297562496e-03,-5.344672890e-04,-1.832029785e-03,1.436194671e-03,3.014467315e-04,1.737641402e-03,5.686428848e-04,2.300187777e-04,7.986616625e-04,-2.287765551e-04,-4.320455438e-05,-2.719811095e-04,3.109082945e-04,-1.424308702e-04,1.684774243e-04,4.633383833e-04,-3.290826979e-05,4.304301135e-04,-7.890118708e-05,1.175233997e-04,3.862221263e-05,5.237783415e-04,1.787607342e-04,7.025390757e-04,-1.539310285e-04,7.557139155e-05,-7.835963700e-05,5.590255488e-04,-5.009909111e-04,5.803463774e-05,-3.560842652e-04,-6.401394784e-04,-9.962237436e-04,-7.746988068e-05,-4.702618554e-04,-5.477317361e-04,-8.838692318e-04,-3.370441085e-04,-1.220913340e-03,-4.596564903e-05,2.059130464e-04,1.599473974e-04,-2.307508072e-03,2.005145757e-04,-2.106993497e-03,-1.033802481e-03,1.137851219e-05,-1.022423969e-03,-2.139395942e-03,-2.251421154e-06,-2.141647363e-03,-3.571996173e-04,-4.475295800e-04,-8.047291973e-04,-5.698169512e-04,-3.321693304e-04,-9.019862816e-04,-1.696141858e-03,-9.107197843e-04,-2.606861642e-03,-8.088184792e-04,-9.838299436e-05,-9.072014736e-04,-8.761098728e-04,-4.387519646e-04,-1.314861837e-03,-7.052602607e-04,1.049481731e-03,3.442214701e-04,-8.012651764e-04,-3.228317427e-04,-1.124096919e-03,2.451994989e-04,-2.474977505e-04,-2.298251600e-06,-1.465263297e-03,-4.520026998e-04,-1.917265997e-03
-4.7,-1.588958895e-03,-9.042762600e-04,-2.493235155e-03,2.349888982e-04,-4.167359128e-04,-1.817470146e-04,-3.743281226e-03,-1.158099457e-03,-4.901380682e-03,-4.628922216e-04,1.619250668e-04,-3.009671548e-04,-1.395059377e-03,-4.667660296e-04,-1.861825406e-03,-6.335790542e-04,-2.402351104e-04,-8.738141646e-04,-4.812857364e-04,-5.637360366e-04,-1.045021773e-03,3.404793467e-04,-4.930406457e-04,-1.525612990e-04,-8.885238124e-04,-5.926692977e-04,-1.481193110e-03,1.820975865e-04,-4.998982076e-04,-3.178006212e-04,-1.358042621e-03,-5.063074859e-04,-1.864350107e-03,1.263053551e-03,3.010408159e-04,1.564094367e-03,4.395742926e-04,2.273187513e-04,6.668930439e-04,-2.672043762e-04,-1.198671573e-05,-2.791910919e-04,2.115174105e-04,-1.144558160e-04,9.706159449e-05,3.632355936e-04,-2.655447072e-05,3.366811229e-04,-1.486289026e-04,1.022257071e-04,-4.640319554e-05,3.738171304e-04,1.911085659e-04,5.649256963e-04,-2.554851465e-04,1.000153297e-04,-1.554698168e-04,5.060066227e-04,-4.863100843e-04,1.969653844e-05,-3.931944805e-04,-6.039146166e-04,-9.971090972e-04,-1.295402081e-04,-4.439044307e-04,-5.734446388e-04,-9.403806892e-04,-2.895448845e-04,-1.229925574e-03,-7.940576304e-05,2.329217408e-04,1.535159778e-04,-2.373882213e-03,2.597957546e-04,-2.114086458e-03,-1.103727375e-03,6.820549477e-05,-1.035521880e-03,-2.179961266e-03,4.177171727e-05,-2.138189548e-03,-3.938718031e-04,-3.941628363e-04,-7.880346394e-04,-6.226976314e-04,-3.120122655e-04,-9.347098969e-04,-1.747023491e-03,-8.432473281e-04,-2.590270819e-03,-8.447830368e-04,-8.228059086e-05,-9.270636276e-04,-9.206763566e-04,-4.026355583e-04,-1.323311915e-03,-7.716742194e-04,1.092534007e-03,3.208597876e-04,-7.466350286e-04,-3.021605684e-04,-1.048795597e-03,1.617815902e-04,-2.163792036e-04,-5.459761339e-05,-1.450259792e-03,-4.138830939e-04,-1.864142886e-03
-4.6,-1.630995793e-03,-8.637598038e-04,-2.494755597e-03,1.663885432e-04,-3.877189062e-04,-2.213303630e-04,-3.831458485e-03,-1.113897637e-03,-4.945356122e-03,-5.472844102e-04,1.406150932e-04,-4.066693170e-04,-1.422440416e-03,-4.528489569e-04,-1.875289373e-03,-6.556103035e-04,-2.253760116e-04,-8.809863151e-04,-5.198003850e-04,-5.287990233e-04,-1.048599408e-03,3.004811362e-04,-4.825380998e-04,-1.820569636e-04,-9.242884516e-04,-5.683189962e-04,-1.492607448e-03,1.216708202e-04,-4.673377808e-04,-3.456669606e-04,-1.415185041e-03,-4.762445910e-04,-1.891429632e-03,1.081211442e-03,2.984372333e-04,1.379648676e-03,3.074356190e-04,2.228523645e-04,5.302879835e-04,-3.040408556e-04,1.948522104e-05,-2.845556346e-04,1.114131747e-04,-8.635083577e-05,2.506233893e-05,2.605142917e-04,-2.063123248e-05,2.398830593e-04,-2.173716782e-04,8.683610011e-05,-1.305355781e-04,2.198320009e-04,2.022367827e-04,4.220687835e-04,-3.559274550e-04,1.245969757e-04,-2.313304793e-04,4.509825792e-04,-4.703792387e-04,-1.939665950e-05,-4.283945792e-04,-5.647295113e-04,-9.931240905e-04,-1.819052591e-04,-4.160333397e-04,-5.979385988e-04,-9.943847121e-04,-2.401237164e-04,-1.234508428e-03,-1.105976882e-04,2.598616951e-04,1.492640068e-04,-2.427633642e-03,3.180134204e-04,-2.109620221e-03,-1.167317040e-03,1.244931473e-04,-1.042823893e-03,-2.207354103e-03,8.469577330e-05,-2.122658330e-03,-4.262635758e-04,-3.389112485e-04,-7.651748242e-04,-6.732253400e-04,-2.906413751e-04,-9.638667150e-04,-1.790358337e-03,-7.704826370e-04,-2.560840974e-03,-8.760072691e-04,-6.576783430e-05,-9.417751034e-04,-9.595425991e-04,-3.640298787e-04,-1.323572478e-03,-8.322658191e-04,1.126598420e-03,2.943326011e-04,-6.830120233e-04,-2.802190720e-04,-9.632310953e-04,7.781908902e-05,-1.837885247e-04,-1.059694357e-04,-1.425385160e-03,-3.734414614e-04,-1.798826621e-03
-4.5,-1.668181371e-03,-8.191175104e-04,-2.487298881e-03,9.579089712e-05,-3.569650397e-04,-2.611741425e-04,-3.907108252e-03,-1.067389257e-03,-4.974497509e-03,-6.342212576e-04,1.173729858e-04,-5.168482717e-04,-1.447673057e-03,-4.370325002e-04,-1.884705557e-03,-6.739877910e-04,-2.101127928e-04,-8.841005838e-04,-5.570572276e-04,-4.912901169e-04,-1.048347345e-03,2.561507329e-04,-4.691036149e-04,-2.129528820e-04,-9.573153930e-04,-5.412922470e-04,-1.498607640e-03,5.994428629e-05,-4.327991301e-04,-3.728548438e-04,-1.468904926e-03,-4.443634609e-04,-1.913268387e-03,8.912130911e-04,2.934557638e-04,1.184668855e-03,1.725207683e-04,2.166046305e-04,3.891253988e-04,-3.391338001e-04,5.105037652e-05,-2.880834236e-04,1.077362305e-05,-5.826629214e-05,-4.749266909e-05,1.552947994e-04,-1.518910847e-05,1.401056909e-04,-2.851580533e-04,7.153455074e-05,-2.136235026e-04,6.211969308e-05,2.119736047e-04,2.740932978e-04,-4.550275270e-04,1.489841389e-04,-3.060433882e-04,3.940736097e-04,-4.533054712e-04,-5.923186146e-05,-4.618293804e-04,-5.226938244e-04,-9.845232048e-04,-2.343794484e-04,-3.867225855e-04,-6.211020338e-04,-1.045921966e-03,-1.890679040e-04,-1.234989870e-03,-1.393593377e-04,2.864523780e-04,1.470930403e-04,-2.468175290e-03,3.748355066e-04,-2.093339783e-03,-1.224085110e-03,1.799738116e-04,-1.044111298e-03,-2.220952618e-03,1.261386258e-04,-2.094813992e-03,-4.539885088e-04,-2.820418926e-04,-7.360304014e-04,-7.211859118e-04,-2.680824263e-04,-9.892683381e-04,-1.825505171e-03,-6.926223631e-04,-2.518127534e-03,-9.024675293e-04,-4.892329712e-05,-9.513908264e-04,-9.924912631e-04,-3.230493596e-04,-1.315540623e-03,-8.870889416e-04,1.151001107e-03,2.639121654e-04,-6.112726890e-04,-2.567461564e-04,-8.680188454e-04,-6.642124299e-06,-1.497252308e-04,-1.563673551e-04,-1.390933485e-03,-3.304727105e-04,-1.721406195e-03
-4.4,-1.700086876e-03,-7.703806465e-04,-2.470467522e-03,2.347144777e-05,-3.246192961e-04,-3.011478483e-04,-3.968954464e-03,-1.018356177e-03,-4.987310641e-03,-7.232667353e-04,9.228751841e-05,-6.309792169e-04,-1.470285727e-03,-4.192795631e-04,-1.889565290e-03,-6.886012695e-04,-1.944742532e-04,-8.830755227e-04,-5.928776960e-04,-4.513076763e-04,-1.044185372e-03,2.074466603e-04,-4.527985411e-04,-2.453518808e-04,-9.871150218e-04,-5.115787840e-04,-1.498693806e-03,-2.867744460e-06,-3.964087724e-04,-3.992765168e-04,-1.519101171e-03,-4.107532780e-04,-1.929854449e-03,6.936850984e-04,2.859454500e-04,9.796305483e-04,3.516235506e-05,2.085785135e-04,2.437408686e-04,-3.723466389e-04,8.254391286e-05,-2.898027261e-04,-9.022644196e-05,-3.034587206e-05,-1.205723140e-04,4.772023126e-05,-1.026500323e-05,3.745522803e-05,-3.520243683e-04,5.647566478e-05,-2.955487036e-04,-9.897820723e-05,2.201585219e-04,1.211803147e-04,-5.525787153e-04,1.728400722e-04,-3.797386431e-04,3.354130284e-04,-4.351960095e-04,-9.978298104e-05,-4.936608704e-04,-4.779369839e-04,-9.715978544e-04,-2.867690635e-04,-3.560460502e-04,-6.428151136e-04,-1.095043913e-03,-1.366828820e-04,-1.231726795e-03,-1.655428891e-04,3.124010563e-04,1.468581672e-04,-2.495018037e-03,4.299370973e-04,-2.065080939e-03,-1.273601994e-03,2.343860853e-04,-1.039215909e-03,-2.220266007e-03,1.657510852e-04,-2.054514922e-03,-4.767194761e-04,-2.238320475e-04,-7.005515236e-04,-7.663717193e-04,-2.443666129e-04,-1.010738332e-03,-1.851859331e-03,-6.099185910e-04,-2.461777922e-03,-9.241842039e-04,-3.182959592e-05,-9.560137998e-04,-1.019363889e-03,-2.798319029e-04,-1.299195792e-03,-9.362670070e-04,1.165205379e-03,2.289383716e-04,-5.324612743e-04,-2.314641647e-04,-7.639254390e-04,-9.156949492e-05,-1.142022010e-04,-2.057716959e-04,-1.347314781e-03,-2.847998897e-04,-1.632114670e-03
-4.3,-1.726275648e-03,-7.175925185e-04,-2.443868167e-03,-5.027041810e-05,-2.908351610e-04,-3.411055791e-04,-4.015736622e-03,-9.665249074e-04,-4.982261529e-03,-8.138951655e-04,6.547532373e-05,-7.484198417e-04,-1.489764119e-03,-3.995586323e-04,-1.889322751e-03,-6.993706671e-04,-1.784948627e-04,-8.778655298e-04,-6.270802094e-04,-4.089665686e-04,-1.036046778e-03,1.543917563e-04,-4.337053249e-04,-2.793135687e-04,-1.013190808e-03,-4.791803068e-04,-1.492371115e-03,-6.653209223e-05,-3.583035015e-04,-4.248355937e-04,-1.565652873e-03,-3.755062661e-04,-1.941159139e-03,4.893280330e-04,2.757894957e-04,7.651175287e-04,-1.042713825e-04,1.987947388e-04,9.452335629e-05,-4.035607693e-04,1.137981439e-04,-2.897626253e-04,-1.914137625e-04,-2.726264515e-06,-1.941400270e-04,-6.204316433e-05,-5.882109284e-06,-6.792527361e-05,-4.180145925e-04,4.178521574e-05,-3.762293768e-04,-2.630789106e-04,2.266444005e-04,-3.643451012e-05,-6.484036221e-04,1.958294968e-04,-4.525741252e-04,2.751418278e-04,-4.161546225e-04,-1.410127946e-04,-5.240632614e-04,-4.306065809e-04,-9.546698423e-04,-3.388735294e-04,-3.240776737e-04,-6.629512031e-04,-1.141806549e-03,-8.328879896e-05,-1.225095348e-03,-1.890396900e-04,3.374048943e-04,1.483652043e-04,-2.507779441e-03,4.830041221e-04,-2.024775319e-03,-1.315502138e-03,2.874771850e-04,-1.028024953e-03,-2.204949629e-03,2.032249091e-04,-2.001724720e-03,-4.941964102e-04,-1.645669096e-04,-6.587633198e-04,-8.085842343e-04,-2.195305923e-04,-1.028114827e-03,-1.868867993e-03,-5.226758932e-04,-2.391543886e-03,-9.412243077e-04,-1.457269999e-05,-9.557970077e-04,-1.040066817e-03,-2.345395526e-04,-1.274606370e-03,-9.799979692e-04,1.168815492e-03,1.888175232e-04,-4.477827542e-04,-2.040938778e-04,-6.518766321e-04,-1.769433443e-04,-7.725314753e-05,-2.541964918e-04,-1.295057352e-03,-2.362849640e-04,-1.531342316e-03
-4.2,-1.746314301e-03,-6.608050754e-04,-2.407119376e-03,-1.251122568e-04,-2.557736839e-04,-3.808859408e-04,-4.046226029e-03,-9.115702890e-04,-4.957796318e-03,-9.054905520e-04,3.708143126e-05,-8.684091208e-04,-1.505557915e-03,-3.778452272e-04,-1.883403142e-03,-7.062477287e-04,-1.622149403e-04,-8.684626690e-04,-6.594819880e-04,-3.643963699e-04,-1.023878358e-03,9.707964122e-05,-4.119305403e-04,-3.148508991e-04,-1.035047386e-03,-4.441119511e-04,-1.479159337e-03,-1.307977956e-04,-3.186291016e-04,-4.494268972e-04,-1.608415021e-03,-3.387162412e-04,-1.947131262e-03,2.789086411e-04,2.629090110e-04,5.418176521e-04,-2.453801618e-04,1.872913185e-04,-5.808884332e-05,-4.326767303e-04,1.446437834e-04,-2.880329469e-04,-2.926149193e-04,2.446335341e-05,-2.681515659e-04,-1.738063099e-04,-2.049979525e-06,-1.758562894e-04,-4.831797929e-04,2.755796860e-05,-4.556218243e-04,-4.297631310e-04,2.312994646e-04,-1.984636664e-04,-7.423584736e-04,2.176237900e-04,-5.247346836e-04,2.134036602e-04,-3.962781557e-04,-1.828744955e-04,-5.532166502e-04,-3.808663510e-04,-9.340830012e-04,-3.904858372e-04,-2.908917802e-04,-6.813776174e-04,-1.186261848e-03,-2.921639557e-05,-1.215478244e-03,-2.097838862e-04,3.611534580e-04,1.513695719e-04,-2.506191067e-03,5.337370293e-04,-1.972454038e-03,-1.349489809e-03,3.390052611e-04,-1.010484548e-03,-2.174816986e-03,2.383000298e-04,-1.936516956e-03,-5.062313534e-04,-1.045372908e-04,-6.107686442e-04,-8.476363780e-04,-1.936164430e-04,-1.041252821e-03,-1.876044034e-03,-4.312483079e-04,-2.307292342e-03,-9.537031910e-04,2.758826684e-06,-9.509443644e-04,-1.054576048e-03,-1.873589908e-04,-1.241935039e-03,-1.018564237e-03,1.161582654e-03,1.430184174e-04,-3.585951375e-04,-1.743697932e-04,-5.329649307e-04,-2.627564570e-04,-3.893851033e-05,-3.016949673e-04,-1.234807350e-03,-1.848411598e-04,-1.419648510e-03
-4.1,-1.759783725e-03,-6.000760304e-04,-2.359859755e-03,-2.007090270e-04,-2.196017397e-04,-4.203107667e-04,-4.059238737e-03,-8.531215719e-04,-4.912360309e-03,-9.973476746e-04,7.279614519e-06,-9.900680601e-04,-1.517087594e-03,-3.541232287e-04,-1.871210823e-03,-7.092167152e-04,-1.456795299e-04,-8.548962451e-04,-6.898993297e-04,-3.177393692e-04,-1.007638699e-03,3.567846647e-05,-3.876065482e-04,-3.519280818e-04,-1.052197099e-03,-4.064037814e-04,-1.458600880e-03,-1.953953889e-04,-2.775394963e-04,-4.729348852e-04,-1.647212462e-03,-3.004771419e-04,-1.947689604e-03,6.325341110e-05,2.472654695e-04,3.105188806e-04,-3.877343257e-04,1.741226316e-04,-2.136116941e-04,-4.596135596e-04,1.749113488e-04,-2.847022108e-04,-3.936542510e-04,5.110229407e-05,-3.425519569e-04,-2.873574800e-04,1.235457133e-06,-2.861220229e-04,-5.475770412e-04,1.385654776e-05,-5.337204934e-04,-5.985797078e-04,2.340090285e-04,-3.645706792e-04,-8.343354054e-04,2.379055293e-04,-5.964298761e-04,1.503420357e-04,-3.756541862e-04,-2.253121505e-04,-5.812985962e-04,-3.288938826e-04,-9.101924787e-04,-4.413913933e-04,-2.565635953e-04,-6.979549886e-04,-1.228446347e-03,2.519764856e-05,-1.203248699e-03,-2.277536834e-04,3.833315948e-04,1.555779115e-04,-2.490102863e-03,5.818543038e-04,-1.908248559e-03,-1.375341754e-03,3.887417203e-04,-9.866000340e-04,-2.129846598e-03,2.707704688e-04,-1.859076129e-03,-5.127096878e-04,-4.403695268e-05,-5.567466405e-04,-8.833541586e-04,-1.666715708e-04,-1.050025729e-03,-1.872976287e-03,-3.360367515e-04,-2.209013038e-03,-9.617845478e-04,2.007442669e-05,-9.417101211e-04,-1.062940102e-03,-1.385018230e-04,-1.201441925e-03,-1.052342527e-03,1.143411518e-03,9.106899030e-05,-2.664007405e-04,-1.420541014e-04,-4.084548419e-04,-3.490130596e-04,6.506101922e-07,-3.483624494e-04,-1.167323771e-03,-1.304463278e-04,-1.297770099e-03
-4,-1.766288326e-03,-5.354672594e-04,-2.301755586e-03,-2.766924396e-04,-1.824900161e-04,-4.591824557e-04,-4.053644272e-03,-7.907722438e-04,-4.844416516e-03,-1.088675269e-03,-2.372729453e-05,-1.112402564e-03,-1.523750909e-03,-3.283861402e-04,-1.852137049e-03,-7.082939296e-04,-1.289360083e-04,-8.372299379e-04,-7.181461157e-04,-2.691486500e-04,-9.872947657e-04,-2.956692360e-05,-3.608924959e-04,-3.904594195e-04,-1.064164946e-03,-3.661023501e-04,-1.430267296e-03,-2.600345959e-04,-2.351963883e-04,-4.952309842e-04,-1.681832490e-03,-2.608816792e-04,-1.942714169e-03,-1.567565351e-04,2.288616915e-04,7.210515643e-05,-5.308765316e-04,1.593579969e-04,-3.715185347e-04,-4.843066892e-04,2.044327320e-04,-2.798739572e-04,-4.943514370e-04,7.707947270e-05,-4.172719643e-04,-4.024620395e-04,3.991813192e-06,-3.984702263e-04,-6.112673163e-04,7.107590904e-07,-6.105565573e-04,-7.690494437e-04,2.346767901e-04,-5.343726536e-04,-9.242620680e-04,2.563724601e-04,-6.678896079e-04,8.610043295e-05,-3.543604397e-04,-2.682600068e-04,-6.084740082e-04,-2.748780777e-04,-8.833520859e-04,-4.913654964e-04,-2.211699562e-04,-7.125354526e-04,-1.268367525e-03,7.961561915e-05,-1.188751906e-03,-2.429704812e-04,4.036226261e-04,1.606521449e-04,-2.459484035e-03,6.270957666e-04,-1.832388268e-03,-1.392906350e-03,4.364736009e-04,-9.564327488e-04,-2.070182458e-03,3.004878148e-04,-1.769694643e-03,-5.135881044e-04,1.664057404e-05,-4.969475304e-04,-9.155775912e-04,-1.387485476e-04,-1.054326139e-03,-1.859336324e-03,-2.374863915e-04,-2.096822716e-03,-9.656785316e-04,3.728190789e-05,-9.283966237e-04,-1.065280522e-03,-8.820445593e-05,-1.153484978e-03,-1.081808650e-03,1.114363146e-03,3.255449526e-05,-1.728339853e-04,-1.069494428e-04,-2.797834281e-04,-4.357264208e-04,4.138996312e-05,-3.943364577e-04,-1.093468613e-03,-7.315579666e-05,-1.166624409e-03
-3.9,-1.765462973e-03,-4.670452271e-04,-2.232508200e-03,-3.526696409e-04,-1.446112473e-04,-4.972808882e-04,-4.028370585e-03,-7.240953451e-04,-4.752465930e-03,-1.178601662e-03,-5.570734857e-05,-1.234309010e-03,-1.524929446e-03,-3.006383141e-04,-1.825567760e-03,-7.035263165e-04,-1.120309093e-04,-8.155572258e-04,-7.440316253e-04,-2.187863450e-04,-9.628179704e-04,-9.833277545e-05,-3.319761418e-04,-4.303089172e-04,-1.070493130e-03,-3.232722850e-04,-1.393765415e-03,-3.244020503e-04,-1.917690373e-04,-5.161710876e-04,-1.712017658e-03,-2.200201928e-04,-1.932037850e-03,-3.801907069e-04,2.077412840e-04,-1.724494229e-04,-6.743240197e-04,1.430799504e-04,-5.312440693e-04,-5.067055734e-04,2.330429013e-04,-2.736626721e-04,-5.945194321e-04,1.022940127e-04,-4.922254194e-04,-5.188620660e-04,6.249710556e-06,-5.126123554e-04,-6.743126894e-04,-1.188284029e-05,-6.861955297e-04,-9.406682102e-04,2.332253884e-04,-7.074428218e-04,-1.012098983e-03,2.727410134e-04,-7.393579701e-04,2.082451981e-05,-3.324661036e-04,-3.116415838e-04,-6.348847882e-04,-2.190163869e-04,-8.539011751e-04,-5.401706532e-04,-1.847901189e-04,-7.249607721e-04,-1.305989761e-03,1.337036152e-04,-1.172286146e-03,-2.554973002e-04,4.217116932e-04,1.662143930e-04,-2.414421302e-03,6.692255761e-04,-1.745195726e-03,-1.402100587e-03,4.820059450e-04,-9.200946422e-04,-1.996128534e-03,3.273613429e-04,-1.668767191e-03,-5.088913060e-04,7.720543770e-05,-4.316858683e-04,-9.441615106e-04,-1.099049043e-04,-1.054066415e-03,-1.834883265e-03,-1.360832471e-04,-1.970966512e-03,-9.656383818e-04,5.428761641e-05,-9.113507654e-04,-1.061790441e-03,-3.672732046e-05,-1.098517761e-03,-1.107536769e-03,1.074653565e-03,-3.288320419e-05,-7.964204112e-05,-6.891191634e-05,-1.485539575e-04,-5.229148845e-04,8.312024146e-05,-4.397946430e-04,-1.014194737e-03,-1.311164145e-05,-1.027306378e-03
-3.8,-1.756978161e-03,-3.948835837e-04,-2.151861745e-03,-4.282226217e-04,-1.061386753e-04,-5.343612969e-04,-3.982408318e-03,-6.526634422e-04,-4.635071760e-03,-1.266183136e-03,-8.840014959e-05,-1.354583285e-03,-1.519996124e-03,-2.708960405e-04,-1.790892164e-03,-6.949900467e-04,-9.500611508e-05,-7.899961618e-04,-7.673592881e-04,-1.668219401e-04,-9.341812282e-04,-1.702131995e-04,-3.010776185e-04,-4.712908180e-04,-1.070746504e-03,-2.779978342e-04,-1.348744338e-03,-3.881607192e-04,-1.474338466e-04,-5.355945658e-04,-1.737460684e-03,-1.779798000e-04,-1.915440484e-03,-6.060762734e-04,1.839867171e-04,-4.220895562e-04,-8.175732747e-04,1.253826033e-04,-6.921906714e-04,-5.267721577e-04,2.605816391e-04,-2.661905186e-04,-6.939637389e-04,1.266550762e-04,-5.673086627e-04,-6.362765453e-04,8.051360105e-06,-6.282251851e-04,-7.367736832e-04,-2.396071260e-05,-7.607343958e-04,-1.112910136e-03,2.295960817e-04,-8.833140542e-04,-1.097835786e-03,2.867495903e-04,-8.110861957e-04,-4.533500282e-05,-3.100345488e-04,-3.553695517e-04,-6.606407791e-04,-1.615119974e-04,-8.221527765e-04,-5.875550433e-04,-1.475065413e-04,-7.350615846e-04,-1.341221654e-03,1.871360741e-04,-1.154085580e-03,-2.654378668e-04,4.372890120e-04,1.718511452e-04,-2.355116195e-03,7.080348571e-04,-1.647081338e-03,-1.402907059e-03,5.251640650e-04,-8.777429942e-04,-1.908140032e-03,3.513554399e-04,-1.556784592e-03,-4.987093508e-04,1.373745867e-04,-3.613347640e-04,-9.689769535e-04,-8.020298922e-05,-1.049179943e-03,-1.799467536e-03,-3.234977154e-05,-1.831817307e-03,-9.619560395e-04,7.099660981e-05,-8.909594297e-04,-1.052731706e-03,1.564659758e-05,-1.037085108e-03,-1.130195589e-03,1.024650132e-03,-1.055454576e-04,1.134346640e-05,-2.786451846e-05,-1.652105206e-05,-6.105966002e-04,1.256448014e-04,-4.849517988e-04,-9.305342449e-04,4.945465318e-05,-8.810795918e-04
-3.7,-1.740544384e-03,-3.190673154e-04,-2.059611699e-03,-5.029095327e-04,-6.724436491e-05,-5.701538976e-04,-3.914818042e-03,-5.760700629e-04,-4.490888105e-03,-1.350415337e-03,-1.215183959e-04,-1.471933733e-03,-1.508324156e-03,-2.391883240e-04,-1.747512480e-03,-6.827897120e-04,-7.789445011e-05,-7.606841621e-04,-7.879272757e-04,-1.134305169e-04,-9.013577926e-04,-2.447169743e-04,-2.684544756e-04,-5.131714499e-04,-1.064519265e-03,-2.303843121e-04,-1.294903577e-03,-4.509516437e-04,-1.023736607e-04,-5.533253044e-04,-1.757802530e-03,-1.348439927e-04,-1.892646523e-03,-8.334071236e-04,1.577163376e-04,-6.756907860e-04,-9.601074000e-04,1.063702335e-04,-8.537371665e-04,-5.444805364e-04,2.868952323e-04,-2.575853041e-04,-7.924834844e-04,1.500811801e-04,-6.424023043e-04,-7.544027273e-04,9.448109485e-06,-7.449546178e-04,-7.987078605e-04,-3.559050588e-05,-8.342983664e-04,-1.285231701e-03,2.237478783e-04,-1.061483823e-03,-1.181487024e-03,2.981615816e-04,-8.833254428e-04,-1.122200019e-04,-2.871264005e-04,-3.993464024e-04,-6.858128193e-04,-1.025712711e-04,-7.883840904e-04,-6.332525458e-04,-1.094056250e-04,-7.426581708e-04,-1.373905706e-03,2.395997658e-04,-1.134305940e-03,-2.729366792e-04,4.500527844e-04,1.771161052e-04,-2.281882433e-03,7.433439245e-04,-1.538538508e-03,-1.395372240e-03,5.657956392e-04,-8.295766005e-04,-1.806814377e-03,3.724861283e-04,-1.434328249e-03,-4.831960899e-04,1.968740356e-04,-2.863220543e-04,-9.899132453e-04,-4.970996447e-05,-1.039623210e-03,-1.753033261e-03,7.316019226e-05,-1.679873069e-03,-9.549568355e-04,8.731306142e-05,-8.676437741e-04,-1.038430469e-03,6.861378343e-05,-9.698166854e-04,-1.150542399e-03,9.648683658e-04,-1.856740330e-04,9.824262141e-05,1.619106842e-05,1.144336898e-04,-6.987833590e-04,1.687267931e-04,-5.300565659e-04,-8.435880415e-04,1.142273886e-04,-7.293606529e-04
-3.6,-1.715916223e-03,-2.396979120e-04,-1.955614135e-03,-5.762679334e-04,-2.809725821e-05,-6.043651916e-04,-3.824742057e-03,-4.939496220e-04,-4.318691679e-03,-1.430247730e-03,-1.547501973e-04,-1.584997927e-03,-1.489297339e-03,-2.055572407e-04,-1.694854580e-03,-6.670571703e-04,-6.071560497e-05,-7.277727753e-04,-8.055305964e-04,-5.879106518e-05,-8.643216616e-04,-3.212667779e-04,-2.344058887e-04,-5.556726666e-04,-1.051442263e-03,-1.805594042e-04,-1.232001667e-03,-5.123975883e-04,-5.677678221e-05,-5.691743705e-04,-1.772633681e-03,-9.069285406e-05,-1.863326535e-03,-1.061153940e-03,1.290806613e-04,-9.320732790e-04,-1.101404839e-03,8.615596702e-05,-1.015248872e-03,-5.598173456e-04,3.118381049e-04,-2.479792406e-04,-8.898737859e-04,1.724994132e-04,-7.173743727e-04,-8.729186228e-04,1.049724462e-05,-8.624213782e-04,-8.601702737e-04,-4.686656169e-05,-9.070368354e-04,-1.457076696e-03,2.156568099e-04,-1.241419886e-03,-1.263087219e-03,3.067680116e-04,-9.563192076e-04,-1.796630657e-04,-2.638018973e-04,-4.434649631e-04,-7.104279755e-04,-4.240164420e-05,-7.528296197e-04,-6.769836899e-04,-7.057847142e-05,-7.475621613e-04,-1.403810635e-03,2.907970479e-04,-1.113013587e-03,-2.781793336e-04,4.597115891e-04,1.815322555e-04,-2.195143083e-03,7.750040483e-04,-1.420139034e-03,-1.379605773e-03,6.037726380e-04,-7.758331354e-04,-1.692882527e-03,3.908176910e-04,-1.302064836e-03,-4.625677211e-04,2.554402398e-04,-2.071274813e-04,-1.006880255e-03,-1.849792741e-05,-1.025378183e-03,-1.695618463e-03,1.798666532e-04,-1.515751810e-03,-9.449928740e-04,1.031410307e-04,-8.418518432e-04,-1.019270666e-03,1.218527915e-04,-8.974178744e-04,-1.169413087e-03,8.959704609e-04,-2.734426256e-04,1.791699647e-04,6.316675079e-05,2.423367155e-04,-7.874735228e-04,2.120866510e-04,-5.753868718e-04,-7.545154936e-04,1.808195202e-04,-5.736959734e-04
-3.5,-1.682895962e-03,-1.568997295e-04,-1.839795692e-03,-6.478189252e-04,1.113873586e-05,-6.366801893e-04,-3.711420229e-03,-4.059944586e-04,-4.117414688e-03,-1.504600281e-03,-1.877622468e-04,-1.692362528e-03,-1.462320983e-03,-1.700578924e-04,-1.632378875e-03,-6.479480499e-04,-4.347386389e-05,-6.914219138e-04,-8.199635571e-04,-3.085184772e-06,-8.230487419e-04,-3.992021483e-04,-1.992742854e-04,-5.984764337e-04,-1.031189793e-03,-1.286742696e-04,-1.159864062e-03,-5.721076673e-04,-1.083581049e-05,-5.829434778e-04,-1.781498017e-03,-4.560398062e-05,-1.827101997e-03,-1.288273778e-03,9.825831084e-05,-1.190015467e-03,-1.240947357e-03,6.486042734e-05,-1.176086930e-03,-5.727819101e-04,3.352744157e-04,-2.375074945e-04,-9.859282168e-04,1.938448506e-04,-7.920833662e-04,-9.914856130e-04,1.125840441e-05,-9.802272086e-04,-9.212146610e-04,-5.790251337e-05,-9.791171743e-04,-1.627880977e-03,2.053158868e-04,-1.422565090e-03,-1.342684502e-03,3.123901364e-04,-1.030294366e-03,-2.474855012e-04,-2.401220376e-04,-4.876075388e-04,-7.344666948e-04,1.878991480e-05,-7.156767800e-04,-7.184565036e-04,-3.112162253e-05,-7.495781262e-04,-1.430626412e-03,3.404480778e-04,-1.090178335e-03,-2.813918329e-04,4.659861104e-04,1.845942775e-04,-2.095426310e-03,8.028987201e-04,-1.292527590e-03,-1.355779321e-03,6.389930511e-04,-7.167862695e-04,-1.567199119e-03,4.064593078e-04,-1.160739811e-03,-4.370996481e-04,3.128208859e-04,-1.242787622e-04,-1.019809996e-03,1.335586565e-05,-1.006454130e-03,-1.627352525e-03,2.871690411e-04,-1.340183484e-03,-9.324345849e-04,1.183856574e-04,-8.140489275e-04,-9.956847694e-04,1.750276835e-04,-8.206570859e-04,-1.187704881e-03,8.187635771e-04,-3.689413044e-04,2.522833203e-04,1.128861374e-04,3.651694578e-04,-8.766432231e-04,2.554011155e-04,-6.212421076e-04,-6.645222022e-04,2.487926418e-04,-4.157295604e-04
