Time,S1D1HbO,S1D1HbR,S1D1HbT,S2D2HbO,S2D2HbR,S2D2HbT,S3D3HbO,S3D3HbR,S3D3HbT,S4D4HbO,S4D4HbR,S4D4HbT,S5D5HbO,S5D5HbR,S5D5HbT,S6D6HbO,S6D6HbR,S6D6HbT,S7D7HbO,S7D7HbR,S7D7HbT,S8D8HbO,S8D8HbR,S8D8HbT,S9D9HbO,S9D9HbR,S9D9HbT,S10D10HbO,S10D10HbR,S10D10HbT,S11D11HbO,S11D11HbR,S11D11HbT,S12D12HbO,S12D12HbR,S12D12HbT,S13D13HbO,S13D13HbR,S13D13HbT,S14D14HbO,S14D14HbR,S14D14HbT,S15D15HbO,S15D15HbR,S15D15HbT,S16D16HbO,S16D16HbR,S16D16HbT,S17D17HbO,S17D17HbR,S17D17HbT,S18D18HbO,S18D18HbR,S18D18HbT,S19D19HbO,S19D19HbR,S19D19HbT,S20D20HbO,S20D20HbR,S20D20HbT,S21D21HbO,S21D21HbR,S21D21HbT,S22D22HbO,S22D22HbR,S22D22HbT,S23D23HbO,S23D23HbR,S23D23HbT,S24D24HbO,S24D24HbR,S24D24HbT,S25D25HbO,S25D25HbR,S25D25HbT,S26D26HbO,S26D26HbR,S26D26HbT,S27D27HbO,S27D27HbR,S27D27HbT,S28D28HbO,S28D28HbR,S28D28HbT,S29D29HbO,S29D29HbR,S29D29HbT,S30D30HbO,S30D30HbR,S30D30HbT,S31D31HbO,S31D31HbR,S31D31HbT,S32D32HbO,S32D32HbR,S32D32HbT,S33D33HbO,S33D33HbR,S33D33HbT,S34D34HbO,S34D34HbR,S34D34HbT,S35D35HbO,S35D35HbR,S35D35HbT,S36D36HbO,S36D36HbR,S36D36HbT
0.0,-0.0005944327017,0.0001699421012,-0.0004244906005,0.0002119535203,0.0002415478846,0.0004535014048,0.0005456601743,-8.494777658e-05,0.0004607123977,0.0005628682496,0.0001021005011,0.0006649687507,0.0005198860834,0.0003283844486,0.0008482705321,0.0004315383042,0.000174531254,0.0006060695581,0.0003025534912,0.0002664286998,0.000568982191,0.0006638300426,0.0003432904062,0.001007120449,0.0001835007611,0.0004329717268,0.0006164724879,7.717783885e-05,0.000526328754,0.0006035065928,-0.001272082729,0.0005762735092,-0.0006958092194,0.0009241141046,0.0001145837814,0.001038697886,0.001333622039,7.078818109e-05,0.00140441022,0.0006521554461,-0.0001855711858,0.0004665842603,0.001257462373,-1.045629098e-06,0.001256416744,0.0005847403754,0.0001447238265,0.0007294642019,0.0008999458729,0.0001734856242,0.001073431497,0.001320360001,9.000066684e-06,0.001329360068,0.001110054544,0.0001829851106,0.001293039654,0.0004416119427,0.0002147469122,0.000656358855,-0.0003557907427,0.0002157342552,-0.0001400564876,-0.0002188815982,9.864682423e-05,-0.0001202347739,-0.0005507835144,7.467404701e-05,-0.0004761094674,-0.0006460116689,3.850635619e-05,-0.0006075053128,0.00085566377,-1.665794235e-05,0.0008390058277,0.001082485757,0.000122121291,0.001204607048,0.002266630349,0.0004154531871,0.002682083536,0.001473965286,0.0005645062278,0.002038471514,0.0009769609044,0.0004590017727,0.001435962677,0.001931725866,0.0001053982398,0.002037124106,0.0009197421667,4.552433946e-06,0.0009242946006,0.000979952507,-1.630134255e-05,0.0009636511645,1.42832432e-05,0.001073349367,0.00108763261,0.0004043047346,0.0001857215062,0.0005900262408,0.001274966269,0.0002381433434,0.001513109613,0.0002663581532,-0.000145368907,0.0001209892461
0.1,-0.0005796977224,0.0001716024158,-0.0004080953066,0.0001888222994,0.0002448222403,0.0004336445397,0.0005953920189,-9.925918297e-05,0.0004961328359,0.0005467939734,0.0001039446983,0.0006507386717,0.0005053697771,0.0003286204989,0.000833990276,0.0003912315151,0.0001742873351,0.0005655188502,0.0002567283488,0.0002753769193,0.000532105268,0.0006332706334,0.0003427630036,0.000976033637,0.0001238819232,0.0004434153952,0.0005672973185,2.444166535e-05,0.0005260842919,0.0005505259572,-0.001280357746,0.0005666857103,-0.0007136720355,0.0009598280327,0.00010776714,0.001067595173,0.001362910817,6.699341688e-05,0.001429904234,0.0006896187593,-0.0001950561486,0.0004945626106,0.001296836898,-8.15097004e-07,0.001296021801,0.0006160823929,0.0001491469318,0.0007652293247,0.0009217513245,0.0001607510523,0.001082502377,0.001350341171,1.822222537e-05,0.001368563396,0.001122774362,0.0001741748874,0.001296949249,0.0003982837822,0.0002091816533,0.0006074654355,-0.0003607317504,0.0002116218643,-0.0001491098862,-0.0002349115193,9.373003422e-05,-0.000141181485,-0.0005521121196,7.250427278e-05,-0.0004796078468,-0.000645478883,3.483201858e-05,-0.0006106468644,0.0008787311513,-3.147162235e-05,0.0008472595289,0.001097114483,0.0001197228101,0.001216837293,0.002300781162,0.0004118225859,0.002712603748,0.001576558322,0.0005142607776,0.0020908191,0.0009442829969,0.0004551323872,0.001399415384,0.001893761159,0.0001152383274,0.002008999487,0.0008650220449,9.43758935e-06,0.0008744596342,0.0009441812308,-3.03725396e-05,0.0009138086912,-3.934793756e-06,0.001070095756,0.001066160963,0.0003600888347,0.0001915611265,0.0005516499612,0.001334033835,0.0002146088819,0.001548642716,0.0002344562582,-0.0001114982935,0.0001229579647
0.2,-0.0005635325194,0.0001727863595,-0.0003907461599,0.0001660050107,0.0002476093308,0.0004136143415,0.0006433561944,-0.0001132865266,0.0005300696678,0.0005294345091,0.0001055829966,0.0006350175057,0.0004874464771,0.0003285425754,0.0008159890526,0.0003475312474,0.0001738553234,0.0005213865708,0.0002075064226,0.0002839046533,0.0004914110759,0.0005979306263,0.0003416667793,0.0009395974056,6.254073643e-05,0.0004533622275,0.0005159029639,-3.053790751e-05,0.0005251511837,0.0004946132762,-0.001288343181,0.0005560432798,-0.0007322999009,0.0009909887576,0.0001007531669,0.001091741925,0.001381804548,6.564834817e-05,0.001447452896,0.000724853546,-0.000204497107,0.000520356439,0.001331043478,-2.670677269e-07,0.001330776411,0.0006406244288,0.0001535731013,0.0007941975301,0.0009328680699,0.0001500807861,0.001082948856,0.001372994759,2.841112069e-05,0.001401405879,0.001128089948,0.0001639486325,0.00129203858,0.0003512730016,0.0002034422084,0.0005547152101,-0.0003682264471,0.0002075096385,-0.0001607168086,-0.000250970312,8.853542418e-05,-0.0001624348879,-0.0005576897973,7.057733651e-05,-0.0004871124608,-0.0006450931703,3.105519052e-05,-0.0006140379798,0.0008992410255,-4.670344502e-05,0.0008525375804,0.001106218813,0.0001172566955,0.001223475509,0.002327503642,0.0004076252615,0.002735128903,0.001675239105,0.000460962708,0.002136201813,0.0009061566664,0.0004494894334,0.0013556461,0.001847385102,0.0001250408128,0.001972425915,0.0008042193498,1.485922411e-05,0.0008190785739,0.0009029379668,-4.413939809e-05,0.0008587985687,-2.604759124e-05,0.001064580077,0.001038532486,0.0003121235263,0.0001968982893,0.0005090218156,0.001385556105,0.0001939668249,0.00157952293,0.0002007874083,-7.682012373e-05,0.0001239672846
0.3,-0.0005463701762,0.0001735022511,-0.0003728679251,0.0001434120702,0.0002499248651,0.0003933369353,0.0006889727087,-0.000126979817,0.0005619928917,0.000510549701,0.0001070218643,0.0006175715652,0.0004658733346,0.0003281545499,0.0007940278844,0.0003004060914,0.0001732771129,0.0004736832043,0.0001549416419,0.0002919768857,0.0004469185276,0.0005578506088,0.0003400101573,0.0008978607661,-4.184359841e-07,0.0004627670651,0.0004623486292,-8.762194812e-05,0.0005235245562,0.0004359026081,-0.001296437465,0.0005443915879,-0.0007520458773,0.00101736906,9.356919843e-05,0.001110938258,0.001389971071,6.671729512e-05,0.001456688366,0.0007576435079,-0.0002138583463,0.0005437851616,0.00135988597,5.251894031e-07,0.001360411159,0.0006579694828,0.0001580272217,0.0008159967045,0.0009328595132,0.0001417182641,0.001074577777,0.001387995092,3.952752956e-05,0.001427522621,0.001125679884,0.000152406999,0.001278086883,0.0003006442509,0.0001975740478,0.0004982182987,-0.000378635329,0.0002034236717,-0.0001752116573,-0.0002673007777,8.309732325e-05,-0.0001842034545,-0.0005679051926,6.89042885e-05,-0.0004990009041,-0.0006451969951,2.721564383e-05,-0.0006179813513,0.0009170040982,-6.228736842e-05,0.0008547167298,0.001109702372,0.000114698807,0.001224401179,0.002346501721,0.0004028537618,0.002749355483,0.001769138054,0.0004050555116,0.002174193565,0.0008626921836,0.0004420161287,0.001304708312,0.001792591779,0.0001347778686,0.001927369648,0.0007375250696,2.075485167e-05,0.0007582799213,0.0008562757636,-5.75588014e-05,0.0007987169622,-5.213538012e-05,0.0010568202,0.00100468482,0.0002604705322,0.0002016686476,0.0004621391798,0.001429136026,0.0001762087098,0.001605344736,0.0001652884952,-4.158125951e-05,0.0001237072357
0.4,-0.0005286538183,0.0001737624401,-0.0003548913782,0.0001209426994,0.0002517863487,0.0003727290481,0.000731677116,-0.0001402918217,0.0005913852943,0.0004899027052,0.0001082708981,0.0005981736033,0.0004404216219,0.0003274617506,0.0007678833725,0.0002498437617,0.0001725951097,0.0004224388714,9.910269858e-05,0.0002995630572,0.0003986657558,0.0005131010174,0.0003378039231,0.0008509049405,-6.488758925e-05,0.0004715870241,0.0004066994349,-0.0001466608199,0.0005212034178,0.0003745425979,-0.001305017724,0.0005317827324,-0.0007732349918,0.001038762357,8.624654681e-05,0.001125008904,0.001387140067,7.01361286e-05,0.001457276195,0.0007877794293,-0.0002231045454,0.0005646748839,0.001383199765,1.471154503e-06,0.001384670919,0.000667746355,0.0001625287669,0.0008302751219,0.0009213632272,0.0001358871335,0.001057250361,0.001395056335,5.152539205e-05,0.001446581727,0.001115255784,0.0001396700143,0.001254925798,0.0002464862312,0.0001916241493,0.0004381103804,-0.0003922860045,0.000199389194,-0.0001928968106,-0.0002841450341,7.745358848e-05,-0.0002066914457,-0.0005830977006,6.74941379e-05,-0.0005156035627,-0.0006461212104,2.335525098e-05,-0.0006227659594,0.0009318416434,-7.815280349e-05,0.0008536888399,0.001107501042,0.0001120271003,0.001219528142,0.002357536599,0.000397490947,0.002755027546,0.001857430893,0.0003469825559,0.002204413449,0.0008140220636,0.0004326795821,0.001246701646,0.001729431543,0.0001444110019,0.001873842544,0.0006651643034,2.705854372e-05,0.0006922228471,0.0008042740199,-7.05847814e-05,0.0007336892385,-8.225936872e-05,0.001046827033,0.0009645676642,0.0002052272513,0.0002058114995,0.0004110387508,0.001464442461,0.0001612501856,0.001625692647,0.0001278631713,-6.004794467e-06,0.0001218583769
0.5,-0.0005108330993,0.000173583386,-0.0003372497132,9.848617952e-05,0.0002532129257,0.0003516991052,0.0007709247741,-0.0001531783015,0.0006177464726,0.0004672626125,0.0001093428369,0.0005766054494,0.0004108793737,0.000326471186,0.0007373505597,0.0001958523664,0.0001718516134,0.0003677039798,4.00731999e-05,0.0003066373579,0.0003467105578,0.000463780888,0.0003350616868,0.0007988425748,-0.0001307548559,0.0004797819732,0.0003490271173,-0.0002074951256,0.0005181910912,0.0003106959656,-0.001314435943,0.0005182752613,-0.0007961606818,0.001054982581,7.882014558e-05,0.001133802727,0.001373106997,7.581297541e-05,0.001448919972,0.0008150600961,-0.0002322011252,0.0005828589708,0.001400853893,2.46147882e-06,0.001403315372,0.0006696113865,0.0001670922043,0.0008367035907,0.0008981022447,0.0001327766316,0.001030878876,0.001393933435,6.435142794e-05,0.001458284863,0.001096567084,0.0001258747486,0.001222441833,0.0001889118881,0.0001856404309,0.000374552319,-0.000409469882,0.0001954304299,-0.0002140394521,-0.0003017416839,7.164534236e-05,-0.0002300963416,-0.0006035531306,6.635407931e-05,-0.0005371990513,-0.0006481810674,1.95174854e-05,-0.000628663582,0.0009435856351,-9.422465946e-05,0.0008493609756,0.00109958254,0.0001092226672,0.001208805207,0.002360429484,0.0003915095852,0.002751939069,0.001939336215,0.0002872015344,0.00222653775,0.0007602979096,0.0004214735872,0.001181771497,0.001658011636,0.0001538943637,0.001811906,0.0005873948518,3.37008588e-05,0.0006210957106,0.000747039813,-8.317195273e-05,0.0006638678602,-0.0001164609632,0.001034606262,0.0009181452992,0.0001465220626,0.0002092706705,0.0003557927331,0.001491210609,0.0001489351294,0.001640145739,8.839555913e-05,2.970284107e-05,0.0001180984002
0.6,-0.0004933592921,0.0001729856503,-0.0003203736417,7.592424717e-05,0.0002542252806,0.0003301495278,0.0008061971762,-0.000165598126,0.0006405990502,0.0004424085088,0.0001102533341,0.0005526618429,0.0003770554013,0.0003251916703,0.0007022470715,0.0001384624872,0.000171088183,0.0003095506702,-2.204732764e-05,0.0003131789142,0.0002911315865,0.0004100173643,0.0003318007079,0.0007418180722,-0.0001979036336,0.0004873150475,0.000289411414,-0.0002699557258,0.0005144955399,0.0002445398142,-0.001325014156,0.00050393382,-0.000821080336,0.001065866295,7.132805195e-05,0.001137194347,0.001347738283,8.363156847e-05,0.001431369851,0.0008392957219,-0.0002411145507,0.0005981811712,0.001412756405,3.366664129e-06,0.001416123069,0.0006632529006,0.0001717272803,0.0008349801809,0.0008628942947,0.0001325305407,0.0009954248354,0.00138442577,7.794504521e-05,0.001462370815,0.001069410159,0.0001111721515,0.00118058231,0.0001280591234,0.0001796713462,0.0003077304696,-0.0004304376346,0.0001915705743,-0.0002388670602,-0.0003203219719,6.571672092e-05,-0.0002546052509,-0.0006294980006,6.548975074e-05,-0.0005640082499,-0.0006516714888,1.574684744e-05,-0.0006359246414,0.000952080493,-0.0001104234175,0.0008416570755,0.001085947041,0.000106270311,0.001192217352,0.002355063402,0.0003848729973,0.0027399364,0.002014119102,0.0002261910945,0.002240310196,0.0007016897555,0.0004084198865,0.001110109642,0.001578496559,0.0001631788297,0.001741675388,0.0005045068948,4.06092066e-05,0.0005451161014,0.0006847098638,-9.527805157e-05,0.0005894318123,-0.0001547562693,0.001020158998,0.0008654027288,8.451092713e-05,0.0002119952576,0.0002965061847,0.001509252751,0.0001390423796,0.00164829513,4.677124276e-05,6.534199223e-05,0.000112113235
0.7,-0.0004766790621,0.0001719936919,-0.0003046853701,5.313455841e-05,0.0002548455282,0.0003079800866,0.0008370098559,-0.0001775133161,0.0006594965398,0.0004151346983,0.0001110205232,0.0005261552215,0.0003387842997,0.0003236338399,0.0006624181396,7.772979474e-05,0.0001703450865,0.0002480748812,-8.714176819e-05,0.0003191719322,0.000232030164,0.0003519659178,0.0003280429515,0.0006800088693,-0.0002662112354,0.0004941531598,0.0002279419245,-0.0003338630803,0.0005101295606,0.0001762664803,-0.001337039179,0.0004888286852,-0.0008482104938,0.001071276711,6.381085771e-05,0.001135087569,0.001310978088,9.345609753e-05,0.001404434186,0.0008603128952,-0.0002498125707,0.0006105003244,0.001418860998,4.036701898e-06,0.0014228977,0.0006483975198,0.0001764395189,0.0008248370387,0.0008156613298,0.00013524003,0.0009509013598,0.001366383527,9.223832044e-05,0.001458621847,0.001033640838,9.572336087e-05,0.001129364199,6.409181891e-05,0.0001737654455,0.0002378572645,-0.0004553942017,0.0001878318004,-0.0002675624013,-0.0003401054669,5.971449938e-05,-0.0002803909675,-0.0006610940103,6.490540545e-05,-0.0005961886049,-0.0006568622968,1.208818891e-05,-0.0006447741079,0.0009571865063,-0.0001266655288,0.0008305209775,0.001066628956,0.000103158705,0.001169787661,0.002341385582,0.0003775358155,0.002718921397,0.002081100551,0.0001644480236,0.002245548574,0.0006383876791,0.0003935672902,0.001031954969,0.001491108595,0.0001722154255,0.00166332402,0.0004168227353,4.770945913e-05,0.0004645321944,0.000617452227,-0.0001068651191,0.0005105871079,-0.0001971279912,0.001003482883,0.0008063548917,1.937466178e-05,0.0002139408553,0.0002333155171,0.001518474803,0.0001312961195,0.001649770922,2.900722821e-06,0.0001007112664,0.0001036119893
0.8,-0.0004612278732,0.0001706354867,-0.0002905923865,2.999457922e-05,0.0002550970916,0.0002850916708,0.0008629201237,-0.0001888890515,0.0006740310722,0.0003852559245,0.0001116645335,0.000496920458,0.0002959312019,0.0003218101181,0.00061774132,1.373733789e-05,0.0001696608586,0.0001833981965,-0.0001550738227,0.0003246057975,0.0001695319748,0.0002898106218,0.0003238161372,0.000613626759,-0.0003355476768,0.0005002674303,0.0001647197535,-0.0003990266565,0.0005051107784,0.0001060841219,-0.001350758083,0.0004730351278,-0.0008777229555,0.001071108346,5.631048192e-05,0.001127418828,0.001262855211,0.000105136471,0.001367991682,0.0008779590165,-0.0002582645009,0.0006196945156,0.001419171358,4.30303814e-06,0.001423474396,0.0006248167957,0.0001812309484,0.0008060477442,0.0007564400808,0.0001409386342,0.000897378715,0.001339714891,0.0001071559139,0.001446870805,0.0009891869085,7.969615853e-05,0.001068883067,-2.799512708e-06,0.0001679707621,0.0001651712494,-0.0004844947766,0.0001842352209,-0.0003002595557,-0.0003612962084,5.368749745e-05,-0.000307608711,-0.0006984345128,6.460394178e-05,-0.000633830571,-0.0006639943338,8.585976079e-06,-0.0006554083577,0.00095878392,-0.0001428642023,0.0008159197177,0.001041698942,9.988040677e-05,0.001141579348,0.00231941049,0.000369444263,0.002688854753,0.002139668487,0.0001024791016,0.002242147589,0.0005706043441,0.0003769888051,0.0009475931492,0.001396126883,0.0001809578437,0.001577084727,0.000324695367,5.492879488e-05,0.0003796241619,0.0005454666429,-0.0001178996412,0.0004275670017,-0.00024351774,0.0009845747813,0.0007410570413,-4.868355083e-05,0.0002150713544,0.0001663878035,0.001518892586,0.0001253759057,0.001644268492,-4.325934965e-05,0.0001356015399,9.234219029e-05
0.9,-0.000447424217,0.0001689420523,-0.0002784821647,6.385106245e-06,0.0002550046208,0.0002613897271,0.0008835328919,-0.0001996937095,0.0006838391824,0.0003526113707,0.0001122070765,0.0004648184472,0.0002483950496,0.000319734674,0.0005681297236,-5.340332431e-05,0.0001690719319,0.0001156686076,-0.0002256872586,0.0003294750717,0.000103787813,0.0002237637577,0.0003191544885,0.0005429182462,-0.0004057752315,0.0005056335013,9.985826987e-05,-0.0004652451427,0.0004994614469,3.42163042e-05,-0.001366375448,0.000456632622,-0.0009097428265,0.001065290846,4.886791939e-05,0.001114158766,0.001203487242,0.0001185139761,0.001322001218,0.0008921045719,-0.0002664416353,0.0006256629366,0.001413740751,3.983908605e-06,0.001417724659,0.0005923331914,0.0001861004828,0.0007784336742,0.0006853899693,0.00014959911,0.0008349890793,0.001304391089,0.0001226152627,0.001427006351,0.0009360569446,6.326200122e-05,0.0009993189458,-7.23982215e-05,0.0001623341253,8.993590382e-05,-0.0005178429445,0.0001808008368,-0.0003370421078,-0.0003840800955,4.768584658e-05,-0.0003363942489,-0.0007415439555,6.458682799e-05,-0.0006769571275,-0.0006732770701,5.283574798e-06,-0.0006679934953,0.0009567763184,-0.0001589304202,0.0007978458983,0.001011264767,9.643213711e-05,0.001107696904,0.002289221926,0.0003605363818,0.002649758308,0.002189285314,4.079274692e-05,0.002230078061,0.0004985765876,0.0003587780569,0.0008573546444,0.001293882468,0.0001893653825,0.00148324785,0.0002285054153,6.219874894e-05,0.0002907041643,0.0004689830498,-0.0001283520875,0.0003406309624,-0.0002938223463,0.0009634356951,0.0006696133488,-0.0001194404947,0.0002153615209,9.592102625e-05,0.001510643006,0.0001209215204,0.001631564527,-9.169036475e-05,0.000169791205,7.810084025e-05
1.0,-0.0004356653488,0.0001669469205,-0.0002687184283,-1.780707068e-05,0.0002545939765,0.0002367869059,0.0008985038396,-0.000209898981,0.0006886048586,0.0003170668825,0.0001126711225,0.000429738005,0.0001961099123,0.0003174233775,0.0005135332898,-0.0001235525581,0.0001686123744,4.505981639e-05,-0.0002988063698,0.000333779356,3.497298621e-05,0.0001540643697,0.0003140989884,0.0004681633581,-0.0004767490475,0.0005102317905,3.348274301e-05,-0.0005323078102,0.0004932081583,-3.909965185e-05,-0.001384052749,0.000439704042,-0.0009443487073,0.001053790685,4.152057994e-05,0.001095311265,0.001133080602,0.0001334273906,0.001266507992,0.0009026428385,-0.0002743177469,0.0006283250916,0.001402666707,2.892844318e-06,0.001405559551,0.0005508251551,0.0001910434733,0.0007418686284,0.0006027949719,0.0001611331167,0.0007639280886,0.001260447359,0.00013852758,0.001398974939,0.0008743435859,4.659364889e-05,0.0009209372348,-0.0001444635514,0.0001569006275,1.243707613e-05,-0.0005554912573,0.0001775475583,-0.000377943699,-0.0004086237634,4.176027913e-05,-0.0003668634843,-0.0007903801539,6.485398436e-05,-0.0007255261696,-0.0006848877489,2.222619336e-06,-0.0006826651295,0.0009510924608,-0.0001747740379,0.0007763184229,0.0009754701771,9.28154373e-05,0.001068285614,0.002250972382,0.0003507430135,0.002601715396,0.002229489142,-2.010734823e-05,0.002209381794,0.0004225647656,0.0003390465134,0.000761611279,0.001184748828,0.0001974072452,0.001382156073,0.0001286569363,6.94572203e-05,0.0001981141566,0.0003882584534,-0.0001381959249,0.0002500625286,-0.0003478975684,0.0009400787731,0.0005921812046,-0.0001926558073,0.0002148011667,2.214535933e-05,0.001493985719,0.0001175335538,0.001611519273,-0.0001423025975,0.0002030417063,6.073910882e-05
1.1,-0.0004263245405,0.0001646855602,-0.0002616389803,-4.268744357e-05,0.0002538922508,0.0002112048072,0.0009075401785,-0.0002194800241,0.0006880601544,0.0002785155636,0.000113080627,0.0003915961906,0.0001390446332,0.0003148937464,0.0004539383796,-0.0001965445783,0.0001683137969,-2.82307814e-05,-0.0003742376005,0.0003375230968,-3.671450371e-05,8.097580816e-05,0.00030869711,0.0003896729181,-0.0005483187323,0.0005140477567,-3.427097557e-05,-0.000599996918,0.0004863815809,-0.0001136153371,-0.001403909557,0.0004223349954,-0.000981574562,0.001036610059,3.430055007e-05,0.001070910609,0.001051927236,0.0001497189724,0.001201646208,0.0009094876823,-0.0002818695436,0.0006276181387,0.001386082011,8.491134303e-07,0.001386931125,0.0005002307914,0.0001960507954,0.0006962815868,0.0005090597664,0.0001753935911,0.0006844533576,0.00120798025,0.0001547996169,0.001362779867,0.0008042213668,2.986321916e-05,0.000834084586,-0.0002187340056,0.0001517132983,-6.70207073e-05,-0.0005974437343,0.0001744932621,-0.0004229504723,-0.0004350746416,3.596148423e-05,-0.0003991131574,-0.0008448385188,6.540365996e-05,-0.0007794348588,-0.0006989717059,-5.575233231e-07,-0.0006995292292,0.0009416864821,-0.0001903049811,0.000751381501,0.0009344917641,8.903741162e-05,0.001023529176,0.002204878856,0.0003399902483,0.002544869104,0.002259889328,-7.972725139e-05,0.002180162077,0.0003428501259,0.0003179218224,0.0006607719483,0.001069130419,0.000205067408,0.001274197827,2.557267954e-05,7.664900691e-05,0.0001022216864,0.0003035729565,-0.0001474062497,0.0001561667067,-0.0004055692175,0.0009145398957,0.0005089706782,-0.0002680764669,0.0002134012136,-5.467525323e-05,0.001469291644,0.0001147752919,0.001584066936,-0.0001949324317,0.0002350941803,4.016174864e-05
1.2,-0.0004197493906,0.0001621948029,-0.0002575545877,-6.835277946e-05,0.0002529277934,0.000184575014,0.0009103999491,-0.0002284155578,0.0006819843913,0.0002368773318,0.0001134602872,0.000350337619,7.720151354e-05,0.00031216492,0.0003893664335,-0.0002721903516,0.0001682054026,-0.000103984949,-0.0004517719661,0.0003407154213,-0.0001110565448,4.782661902e-06,0.0003030020961,0.000307784758,-0.000620330515,0.000517072185,-0.00010325833,-0.0006680907073,0.0004790162485,-0.0001890744588,-0.001426025805,0.0004046133168,-0.001021412489,0.00101378353,2.723440418e-05,0.001041017934,0.0009604000148,0.0001672391235,0.001127639138,0.0009125706989,-0.0002890770009,0.000623493698,0.00136414426,-2.311612421e-06,0.001361832648,0.0004405495307,0.0002011082125,0.0006416577433,0.0004047015696,0.0001921791553,0.0005968807249,0.001147143269,0.0001713354187,0.001318478688,0.000725940726,1.324043545e-05,0.0007391811615,-0.0002949313485,0.0001468128108,-0.0001481185377,-0.0006436593127,0.0001716547435,-0.0004720045692,-0.0004635615218,3.033946091e-05,-0.0004332220609,-0.0009047569955,6.623234626e-05,-0.0008385246492,-0.0007156432649,-3.020197027e-06,-0.000718663462,0.0009285369727,-0.0002054346041,0.0007231023687,0.0008885346055,8.511116442e-05,0.0009736457699,0.002151215529,0.0003282039435,0.002479419472,0.002280160895,-0.0001375889162,0.002142571979,0.000259731551,0.0002955464161,0.0005552779671,0.0009474524294,0.0002123490522,0.001159801482,-8.031046098e-05,8.372515086e-05,3.414689887e-06,0.0002152261611,-0.0001559584709,5.926769016e-05,-0.0004666472105,0.0008868879637,0.0004202407531,-0.0003454424221,0.0002112000388,-0.0001342423833,0.001437018857,0.0001121800463,0.001549198904,-0.0002493442709,0.0002656681621,1.632389121e-05
1.3,-0.0004162604727,0.000159512365,-0.0002567481076,-9.489041835e-05,0.0002517302571,0.0001568398388,0.0009068911957,-0.0002366878374,0.0006702033583,0.0001920982997,0.0001138352892,0.0003059335888,1.06149728e-05,0.0003092576842,0.000319872657,-0.0003502806811,0.0001683140579,-0.0001819666232,-0.0005311876426,0.0003433699972,-0.0001878176454,-7.421226882e-05,0.0002970718713,0.0002228596025,-0.0006926293943,0.0005193014283,-0.000173327966,-0.000736366305,0.0004711503377,-0.0002652159673,-0.001450444104,0.0003866286145,-0.00106381549,0.0009853740944,2.034396072e-05,0.001005718055,0.0008589491422,0.000185848248,0.00104479739,0.0009118391842,-0.000295923576,0.0006159156082,0.001337027468,-6.728196523e-06,0.001330299272,0.0003718422407,0.0002061962557,0.0005780384964,0.0002903380145,0.0002112414676,0.0005015794821,0.001078143101,0.000188037211,0.001266180313,0.0006398206904,-3.109138926e-06,0.0006367115515,-0.0003727643977,0.0001422370544,-0.0002305273434,-0.0006940550999,0.0001690475325,-0.0005250075675,-0.000494194851,2.494287022e-05,-0.0004692519808,-0.0009699203675,6.733479817e-05,-0.0009025855693,-0.0007349864872,-5.131795643e-06,-0.0007401182829,0.0009116457712,-0.0002200771412,0.0006915686299,0.0008378280517,8.105567846e-05,0.0009188837301,0.002090304764,0.0003153163564,0.002405621121,0.002290043453,-0.0001932393439,0.00209680411,0.000173522871,0.0002720756779,0.0004455985488,0.0008201536216,0.0002192784169,0.001039432038,-0.0001885447041,9.064138407e-05,-9.790332e-05,0.0001235348399,-0.0001638269544,-4.029211455e-05,-0.000530937494,0.0008572325008,0.0003262950068,-0.0004244906458,0.0002082669593,-0.0002162236865,0.001397681479,0.0001092640126,0.001506945492,-0.0003052346646,0.000294462006,-1.077265857e-05
1.4,-0.0004161494873,0.000156676511,-0.0002594729763,-0.0001223773721,0.0002503306651,0.000127953293,0.0008968724146,-0.0002442825325,0.0006525898821,0.0001441509064,0.0001142309747,0.000258381881,-6.064885752e-05,0.0003061945107,0.0002455456532,-0.0004305886332,0.0001686642632,-0.00026192437,-0.0006122520088,0.0003455048419,-0.0002667471669,-0.0001556902812,0.0002909676642,0.000135277383,-0.0007650606402,0.000520737566,-0.0002443230742,-0.000804601857,0.0004628253869,-0.0003417764702,-0.00147717115,0.0003684717576,-0.001108699393,0.0009514707885,1.364691597e-05,0.0009651177044,0.0007481011825,0.0002054148965,0.0009535160791,0.0009072562418,-0.0003023963153,0.0006048599265,0.001304918894,-1.250800539e-05,0.001292410888,0.0002942316458,0.0002112901077,0.0005055217535,0.0001666716196,0.0002322973341,0.0003989689537,0.001001237969,0.0002048052109,0.001206043179,0.0005462427442,-1.902591246e-05,0.0005272168318,-0.0004519319841,0.0001380206506,-0.0003139113336,-0.0007485084039,0.0001666857167,-0.0005818226872,-0.0005270660851,1.981851692e-05,-0.0005072475682,-0.00104006285,6.870421451e-05,-0.0009713586357,-0.0007570551313,-6.86199612e-06,-0.0007639171275,0.0008910373681,-0.0002341510704,0.0006568862976,0.0007826230544,7.689508827e-05,0.0008595181427,0.002022508113,0.0003012737427,0.002323781856,0.002289344696,-0.000246260223,0.002043084473,8.455145072e-05,0.0002476756292,0.00033222708,0.0006876833441,0.0002259072148,0.0009135905588,-0.000298672683,9.735606766e-05,-0.0002013166153,2.883164935e-05,-0.0001709828374,-0.000142151188,-0.000598249174,0.0008257287099,0.0002274795359,-0.0005049545669,0.0002047004702,-0.0003002540967,0.001351819532,0.0001055422542,0.001457361786,-0.0003622371509,0.0003211545567,-4.108259419e-05
1.5,-0.0004196762694,0.0001537257915,-0.0002659504779,-0.0001508788268,0.0002487614397,9.788261295e-05,0.0008802550132,-0.0002511885733,0.00062906644,9.303532256e-05,0.0001146723892,0.0002077077118,-0.0001364910905,0.000302999537,0.0001665084465,-0.0005128708255,0.0001692780292,-0.0003435927963,-0.0006947227159,0.0003471420653,-0.0003475806506,-0.0002393180404,0.0002847524559,4.543441554e-05,-0.0008374703069,0.0005213885037,-0.0003160818032,-0.0008725775842,0.0004540859861,-0.0004184915981,-0.001506177827,0.0003502342772,-0.00115594355,0.0009121891571,7.156668381e-06,0.0009193458255,0.0006284607745,0.0002258107933,0.0008542715678,0.0008988033633,-0.000308485813,0.0005903175503,0.001268021445,-1.972435108e-05,0.001248297094,0.0002079050643,0.0002163586966,0.0004242637608,3.447279351e-05,0.0002550451443,0.0002895179379,0.000916738493,0.0002215371205,0.001138275614,0.0004456472879,-3.435794045e-05,0.0004112893475,-0.0005321248986,0.0001341946012,-0.0003979302974,-0.0008068571366,0.0001645819091,-0.0006422752275,-0.000562245899,1.501103955e-05,-0.0005472348594,-0.001114868941,7.033254496e-05,-0.001044536397,-0.00078187167,-8.183929102e-06,-0.0007900555991,0.0008667595496,-0.0002475802969,0.0006191792526,0.0007231916122,7.265748918e-05,0.0007958491013,0.0019482188,0.0002860428384,0.002234261638,0.002277942509,-0.0002962722642,0.001981670245,-6.841623783e-06,0.0002225202842,0.0002156786605,0.0005505032447,0.0002323115634,0.0007828148081,-0.0004102273086,0.0001038283735,-0.000306398935,-6.853603827e-05,-0.0001773908243,-0.0002459268626,-0.0006683955218,0.0007925806067,0.0001241850849,-0.000586558699,0.0002006218715,-0.0003859368276,0.001299976083,0.0001005448398,0.001400520922,-0.0004199281916,0.0003454088476,-7.451934398e-05
1.6,-0.0004270647293,0.0001506987674,-0.0002763659619,-0.0001804460683,0.0002470562835,6.661021519e-05,0.0008570071395,-0.0002573980068,0.0005996091326,3.878173733e-05,0.0001151837886,0.0001539655259,-0.0002167780443,0.0002996984573,8.292041298e-05,-0.000596867804,0.0001701747452,-0.0004266930588,-0.0007783479664,0.0003483075772,-0.0004300403892,-0.0003247481791,0.0002784893767,-4.625880238e-05,-0.0009097050069,0.0005212680453,-0.0003884369617,-0.0009400760953,0.0004449794657,-0.0004950966296,-0.00153739859,0.0003320077044,-0.001205390886,0.0008676741194,8.813458403e-07,0.0008685554652,0.0005007130841,0.0002469048408,0.0007476179249,0.0008864842599,-0.0003141859913,0.0005722982686,0.0012265586,-2.841667175e-05,0.001198141928,0.0001131194408,0.0002213630031,0.0003344824439,-0.0001054363133,0.0002791820156,0.0001737457023,0.0008250096721,0.0002381285215,0.001063138194,0.0003385321477,-4.89622452e-05,0.0002895699025,-0.0006130271646,0.0001307860808,-0.0004822410837,-0.0008688993092,0.0001627473053,-0.0007061520039,-0.0005997817982,1.056268873e-05,-0.0005892191094,-0.001193973951,7.221080882e-05,-0.001121763143,-0.0008094259881,-9.07434641e-06,-0.0008185003345,0.0008388852047,-0.0002602952908,0.000578589914,0.0006598276835,6.837352519e-05,0.0007282012086,0.001867856563,0.0002696143936,0.002137470957,0.00225578252,-0.0003429337469,0.001912848773,-0.0001003003379,0.0001967889228,9.648858497e-05,0.0004090923589,0.0002385866811,0.00064767904,-0.0005227314166,0.0001100171932,-0.0004127142234,-0.0001682075439,-0.000183006167,-0.000351213711,-0.0007411886157,0.0007580409855,1.685236985e-05,-0.0006690119788,0.0001961675375,-0.0004728444413,0.001242683733,9.383066473e-05,0.001336514398,-0.0004778357296,0.0003668788732,-0.0001109568564
1.7,-0.0004384987331,0.0001476337192,-0.0002908650139,-0.0002111144124,0.0002452498717,3.413545928e-05,0.0008271570531,-0.0002629058694,0.0005642511837,-1.854764535e-05,0.0001157882431,9.724059775e-05,-0.0003013395201,0.0002963183711,-5.021148914e-06,-0.0006823043766,0.0001713710816,-0.0005109332949,-0.0008628667045,0.0003490307625,-0.000513835942,-0.0004116201036,0.0002722401186,-0.0001393799849,-0.0009816116626,0.000520395912,-0.0004612157507,-0.001006882735,0.0004355555536,-0.0005713271813,-0.001570731394,0.0003138828414,-0.001256848552,0.0008181030492,-5.177350321e-06,0.0008129256988,0.0003656238583,0.0002685579674,0.0006341818257,0.0008703277978,-0.0003194937751,0.0005508340227,0.001180777525,-3.859221019e-05,0.001142185315,1.020618958e-05,0.000226254689,0.0002364608786,-0.000252196693,0.0003044178658,5.222117283e-05,0.0007264713011,0.0002544748822,0.0009809461832,0.0002254507514,-6.270560277e-05,0.0001627451487,-0.0006943173462,0.00012781824,-0.0005664991062,-0.0009343931641,0.000161191684,-0.0007732014801,-0.0006396961607,6.512998114e-06,-0.0006331831626,-0.001276966222,7.43293185e-05,-0.001202636904,-0.0008396748104,-9.513784262e-06,-0.0008491885947,0.0008075143735,-0.0002722343472,0.0005352800264,0.000592848082,6.407503306e-05,0.0006569231151,0.001781864973,0.0002520030832,0.002033868056,0.002222875747,-0.0003859405959,0.001836935152,-0.000195453213,0.0001706639322,-2.478928081e-05,0.0002639524087,0.0002448392111,0.0005087916198,-0.000635698184,0.0001158804516,-0.0005198177323,-0.0002698103694,-0.0001877732778,-0.0004575836472,-0.0008164303163,0.0007224061291,-9.402418719e-05,-0.0007520042073,0.0001914827015,-0.0005605215058,0.001180458249,8.49977324e-05,0.001265455982,-0.0005354519926,0.0003852194569,-0.0001502325357
1.8,-0.0004541192399,0.000144568425,-0.0003095508149,-0.0002429019666,0.0002433774354,4.754687142e-07,0.0007907942512,-0.0002677100994,0.0005230841518,-7.88580606e-05,0.0001165074141,3.764935349e-05,-0.0003899686908,0.0002928876659,-9.708102483e-05,-0.0007688908718,0.0001728809037,-0.0005960099681,-0.000948009471,0.0003493440862,-0.0005986653848,-0.000499561781,0.0002660633863,-0.0002334983947,-0.001053037917,0.0005187976699,-0.0005342402469,-0.001072786639,0.0004258659556,-0.0006469206829,-0.001606039196,0.0002959489751,-0.001310090221,0.0007636867217,-1.102476389e-05,0.0007526619578,0.0002240349629,0.0002906187433,0.0005146537062,0.0008503883984,-0.0003244087831,0.0005259796152,0.001130947818,-5.022859494e-05,0.001080719223,-0.0001004269947,0.0002309760952,0.0001305491005,-0.0004049278802,0.0003304852179,-7.444266232e-05,0.0006215946574,0.0002704747622,0.0008920694197,0.0001070069796,-7.5464487e-05,3.154249262e-05,-0.0007756705774,0.0001253099956,-0.0006503605818,-0.00100305929,0.0001599233272,-0.000843135963,-0.0006819855807,2.898312765e-06,-0.0006790872679,-0.001363392224,7.667778258e-05,-0.001286714441,-0.0008725426272,-9.486643133e-06,-0.0008820292703,0.0007727752716,-0.0002833449249,0.0004894303467,0.0005225919927,5.97938902e-05,0.0005823858829,0.001690710601,0.000233244214,0.001923954815,0.002179301594,-0.0004250333075,0.001754268286,-0.0002919151608,0.0001443299139,-0.0001475852469,0.0001156105745,0.0002511796327,0.0003667902072,-0.0007486326708,0.0001213742776,-0.0006272583933,-0.0003729620614,-0.000191626485,-0.0005645885464,-0.000893904514,0.0006860053561,-0.0002078991578,-0.0008352076363,0.000186717326,-0.0006484903103,0.001113794766,7.369060006e-05,0.001187485366,-0.0005922512835,0.0004000983843,-0.0001921528991
1.9,-0.0004740234681,0.0001415400697,-0.0003324833984,-0.0002758097879,0.0002414743556,-3.433543234e-05,0.0007480676009,-0.0002718115536,0.0004762560473,-0.0001420235947,0.0001173614725,-2.466212219e-05,-0.0004824241305,0.0002894359671,-0.0001929881634,-0.0008563258662,0.0001747151823,-0.000681610684,-0.001033500328,0.0003492826176,-0.0006842177104,-0.0005881928356,0.000260013454,-0.0003281793816,-0.001123833518,0.0005165046051,-0.0006073289132,-0.001137582746,0.0004159639008,-0.0007216188452,-0.001643153441,0.000278293125,-0.001364860316,0.0007046670485,-1.667305398e-05,0.0006879939945,7.685548597e-05,0.0003129185662,0.0003897740521,0.0008267434924,-0.0003289330622,0.0004978104302,0.001077355879,-6.327734281e-05,0.001014078536,-0.0002182988046,0.0002354617901,1.716298547e-05,-0.0005627452756,0.0003571454076,-0.000205599868,0.0005108951358,0.0002860328412,0.0007969279769,-1.615515597e-05,-8.71238945e-05,-0.0001032790505,-0.0008567616329,0.000123275968,-0.0007334856649,-0.001074585168,0.0001589489856,-0.0009156361823,-0.0007266218403,-2.486712061e-07,-0.0007268705115,-0.001452764462,7.924532413e-05,-0.001373519137,-0.0009079242519,-8.981106219e-06,-0.0009169053582,0.0007348234128,-0.0002935848046,0.0004412386083,0.0004494186904,5.556090621e-05,0.0005049795966,0.00159488311,0.000213388264,0.001808271374,0.002125215342,-0.0004600079112,0.001665207431,-0.0003892921979,0.0001179740726,-0.0002713181253,-3.538103897e-05,0.0002577156642,0.0002223346252,-0.0008610346617,0.0001264521937,-0.000734582468,-0.000477273012,-0.0001944926663,-0.0006717656783,-0.0009733737272,0.0006491881376,-0.0003241855896,-0.0009182831454,0.0001820235211,-0.0007362596243,0.001043161682,5.960722451e-05,0.001102768907,-0.0006477113093,0.0004112092461,-0.0002365020632
2.0,-0.0004982660689,0.0001385852712,-0.0003596807977,-0.0003098234954,0.0002395758288,-7.024766666e-05,0.0006991807964,-0.000275214141,0.0004239666554,-0.0002078903835,0.0001183691036,-8.952127984e-05,-0.0005784336894,0.0002859941475,-0.0002924395419,-0.0009443003462,0.0001768819389,-0.0007674184073,-0.001119059844,0.0003488835404,-0.0007701763032,-0.0006771288426,0.0002541389462,-0.0004229898964,-0.001193852609,0.0005135536451,-0.0006802989639,-0.001201074623,0.0004059037725,-0.0007951708506,-0.001681879241,0.0002609994761,-0.001420879765,0.0006413118305,-2.214020706e-05,0.0006191716234,-7.495051655e-05,0.0003352661788,0.0002603156622,0.0007994886432,-0.0003330707674,0.0004664178758,0.001020296487,-7.766793799e-05,0.0009426285489,-0.0003428615442,0.0002396413378,-0.0001032202063,-0.0007247781326,0.0003841912564,-0.0003405868762,0.000394922261,0.0003010613812,0.0006959836422,-0.0001433665185,-9.757543822e-05,-0.0002409419568,-0.0009372689155,0.0001217266967,-0.0008155422189,-0.001148631696,0.0001582739731,-0.0009903577231,-0.0007735542963,-2.899208452e-06,-0.0007764535048,-0.001544571296,8.202045997e-05,-0.001462550836,-0.0009456886258,-7.988898315e-06,-0.0009536775241,0.0006938386731,-0.0003029228139,0.0003909158592,0.000373703902,5.140450579e-05,0.0004251084078,0.001494894992,0.0001924948725,0.001687389864,0.002060856485,-0.0004907261555,0.00157013033,-0.0004871880687,9.178704244e-05,-0.0003954010263,-0.0001884486851,0.0002645465045,7.609781943e-05,-0.0009724032598,0.0001310651917,-0.0008413380681,-0.00058235039,-0.000196295143,-0.0007786455331,-0.00105457919,0.0006123114661,-0.0004422677238,-0.001000889821,0.0001775544589,-0.0008233353626,0.0009689889595,4.250705944e-05,0.001011496019,-0.0007013347202,0.000418283109,-0.0002830516111
2.1,-0.000526861755,0.0001357401752,-0.0003911215798,-0.0003449159762,0.0002377166058,-0.0001071993704,0.000644386088,-0.0002779249705,0.0003664611175,-0.0002762809956,0.0001195475907,-0.0001567334049,-0.0006776994411,0.000282594393,-0.0003951050481,-0.001032502836,0.000179386327,-0.0008531165092,-0.001204408809,0.0003481857657,-0.0008562230436,-0.0007659863495,0.0002484819061,-0.0005175044434,-0.001262956545,0.0005099873726,-0.0007529691728,-0.001263077654,0.0003957408877,-0.0008673367663,-0.001722001556,0.0002441490813,-0.001477852474,0.0005739073834,-2.744847619e-05,0.0005464589072,-0.0002303786734,0.0003574428093,0.0001270641359,0.0007687315652,-0.0003368276977,0.0004319038675,0.0009600640256,-9.331202909e-05,0.0008667519965,-0.000473512075,0.0002434428683,-0.0002300692067,-0.0008901846599,0.0004114448173,-0.0004787398426,0.000274249044,0.0003154798127,0.0005897288567,-0.0002739500435,-0.0001067158562,-0.0003806658997,-0.001016878888,0.0001206690925,-0.0008962097959,-0.001224840703,0.0001579023248,-0.001066938378,-0.0008227130561,-5.028651089e-06,-0.0008277417072,-0.001638287388,8.499109035e-05,-0.001553296298,-0.0009856832018,-6.50494651e-06,-0.0009921881483,0.0006500207868,-0.0003113390174,0.0003386817694,0.0002958354029,4.734926724e-05,0.0003431846701,0.001391279666,0.00017062825,0.001561907916,0.001986555378,-0.000517122686,0.001469432692,-0.0005852111616,6.596304745e-05,-0.0005192481142,-0.0003430025122,0.0002717583957,-7.124411656e-05,-0.001082243609,0.0001351634016,-0.000947080207,-0.0006878031746,-0.000196958005,-0.0008847611796,-0.001137241798,0.0005757283487,-0.0005615134488,-0.001082697106,0.0001734648376,-0.0009092322679,0.0008916503707,2.222092864e-05,0.0009138712993,-0.0007526682898,0.0004210982041,-0.0003315700857
2.2,-0.0005597885812,0.0001330405997,-0.0004267479815,-0.0003810505723,0.0002359308119,-0.0001451197604,0.0005839775457,-0.0002799543466,0.0003040231991,-0.0003469991341,0.0001209129898,-0.0002260861443,-0.0007799027392,0.0002792703388,-0.0005006324004,-0.001120624748,0.0001822309405,-0.0009383938073,-0.00128927215,0.0003472297233,-0.000942042427,-0.0008543879337,0.0002430771746,-0.0006113107592,-0.00133101666,0.0005058540539,-0.0008251626059,-0.001323421991,0.0003855313628,-0.0009378906279,-0.001763291402,0.0002278197794,-0.001535471622,0.0005027504227,-3.262245033e-05,0.0004701279723,-0.0003883999482,0.0003791997813,-9.200166937e-06,0.0007345865969,-0.0003402107195,0.0003943758774,0.0008969462577,-0.000110108227,0.0007868380308,-0.0006096048994,0.0002467969307,-0.0003628079687,-0.001058160885,0.0004387493841,-0.0006194115013,0.0001494621781,0.0003292133155,0.0004786754936,-0.0004072372135,-0.0001144468727,-0.0005216840862,-0.001095290305,0.000120107001,-0.0009751833035,-0.001302842264,0.0001578369377,-0.001145005327,-0.000874012114,-6.616512061e-06,-0.0008806286261,-0.0017333833,8.814456976e-05,-0.00164523873,-0.001027738138,-4.526989844e-06,-0.001032265128,0.0006035841423,-0.0003188243576,0.0002847597847,0.0002162082893,4.341463285e-05,0.0002596229222,0.00128458762,0.0001478551396,0.001432442759,0.001902736862,-0.0005392076586,0.001363529204,-0.0006829804307,4.069878326e-05,-0.0006422816475,-0.0004984440771,0.0002794227964,-0.0002190212808,-0.001190075315,0.0001386992336,-0.001051376081,-0.0007932477492,-0.0001964100422,-0.0009896577914,-0.001221062011,0.0005397771641,-0.000681284847,-0.001163398657,0.0001699126215,-0.0009934860357,0.0008114424,-1.337712608e-06,0.0008101046874,-0.0008013195104,0.0004194883035,-0.0003818312069
2.3,-0.0005969909446,0.0001305222252,-0.0004664687194,-0.0004181840176,0.0002342518584,-0.0001839321592,0.0005182852764,-0.0002813155339,0.0002369697425,-0.0004198336071,0.0001224803473,-0.0002973532598,-0.0008847083619,0.0002760572544,-0.0006086511076,-0.00120836503,0.0001854163325,-0.001022948698,-0.001373382334,0.0003460573006,-0.001027325034,-0.0009419665583,0.0002379521282,-0.0007040144301,-0.00139791626,0.0005012075728,-0.0008967086876,-0.001381954588,0.000375331963,-0.001006622625,-0.001805511007,0.0002120861935,-0.001593424813,0.0004281413216,-3.768705068e-05,0.0003904542709,-0.0005479754905,0.0004002600345,-0.000147715456,0.0006971712726,-0.0003432272018,0.0003539440708,0.0008312228729,-0.0001279483354,0.0007032745375,-0.0007504653386,0.0002496400904,-0.0005008252482,-0.00122794219,0.0004659572121,-0.000761984978,2.115399398e-05,0.0003421915152,0.0003633455092,-0.0005425816222,-0.0001206762982,-0.0006632579204,-0.001172217574,0.0001200418525,-0.001052175721,-0.001382260743,0.0001580797706,-0.001224180972,-0.0009273516175,-7.646423871e-06,-0.0009349980413,-0.001829332774,9.146793658e-05,-0.001737864837,-0.001071669535,-2.055152405e-06,-0.001073724687,0.0005547528642,-0.0003253797652,0.000229373099,0.0001352205384,3.961392408e-05,0.0001748344625,0.001175381566,0.0001242448276,0.001299626394,0.001809920617,-0.0005570634264,0.00125285719,-0.000780129678,1.619104291e-05,-0.0007639386351,-0.0006541747285,0.0002875978418,-0.0003665768867,-0.001295441207,0.0001416312177,-0.001153809989,-0.0008983125315,-0.0001945876986,-0.00109290023,-0.001305718386,0.0005047717693,-0.0008009466163,-0.001242726762,0.0001670619604,-0.001075664802,0.0007285657833,-2.81619863e-05,0.000700403797,-0.0008469716776,0.0004133511691,-0.0004336205085
2.4,-0.0006383813771,0.0001282207883,-0.0005101605888,-0.0004562683877,0.0002327124051,-0.0002235559825,0.0004476718322,-0.0002820243487,0.0001656474836,-0.0004945606059,0.0001242638461,-0.0003702967597,-0.0009917668908,0.0002729921853,-0.0007187747055,-0.001295433302,0.0001889416645,-0.001106491638,-0.001456481618,0.0003447118403,-0.001111769778,-0.001028368575,0.0002331268046,-0.00079524177,-0.001463551289,0.000496107232,-0.0009674440567,-0.001438539811,0.0003651998993,-0.001073339912,-0.001848417059,0.0001970197067,-0.001651397353,0.000350380915,-4.266585545e-05,0.0003077150596,-0.0007080698582,0.0004203240518,-0.0002877458064,0.0006566061836,-0.0003458845564,0.0003107216272,0.0007631690808,-0.000146724471,0.0006164446098,-0.0008954008932,0.0002519179989,-0.0006434828943,-0.001398798462,0.000492915605,-0.0009058828566,-0.0001100830861,0.0003543478423,0.0002442647562,-0.0006793679402,-0.0001253197962,-0.0008046877364,-0.001247392786,0.0001204734812,-0.001126919305,-0.001462718699,0.0001586322611,-0.001304086438,-0.0009826186976,-8.105904329e-06,-0.0009907246019,-0.001925616791,9.494831755e-05,-0.001830668474,-0.001117281202,9.084932651e-07,-0.001116372709,0.0005037571646,-0.0003310148937,0.0001727422709,5.326968302e-05,3.595349358e-05,8.922317659e-05,0.00106423192,9.98699445e-05,0.001164101864,0.001708717669,-0.0005708350744,0.001137882595,-0.0008763097932,-7.36658786e-06,-0.000883676381,-0.0008096028148,0.0002963320686,-0.0005132707462,-0.001397914791,0.0001439278192,-0.001253986972,-0.001002640039,-0.0001914369165,-0.001194076956,-0.001390866257,0.000470993357,-0.0009198728997,-0.00132046531,0.0001650868431,-0.001155378466,0.0006431165723,-5.81444235e-05,0.0005849721488,-0.0008893979496,0.0004026584231,-0.0004867395265
2.5,-0.0006838406167,0.0001261721898,-0.0005576684268,-0.0004952516033,0.0002313442676,-0.0002639073357,0.0003725311307,-0.0002820986889,9.043244173e-05,-0.0005709439937,0.0001262768053,-0.0004446671884,-0.001100715168,0.0002701139579,-0.0008306012101,-0.001381551235,0.0001928054707,-0.001188745765,-0.00153832288,0.0003432381453,-0.001195084735,-0.001113255154,0.0002286143848,-0.0008846407688,-0.001527829544,0.0004906174448,-0.0010372121,-0.001493058608,0.0003551926017,-0.001137866006,-0.001891762007,0.0001826883757,-0.001709073632,0.000269771577,-4.758012566e-05,0.0002221914513,-0.0008676628779,0.0004390793877,-0.0004285834902,0.0006130179526,-0.0003481899051,0.0002648280474,0.000693062262,-0.00016633521,0.000526727052,-0.001043709735,0.000253587895,-0.0007901218402,-0.00157002421,0.0005194535695,-0.00105057064,-0.0002436592087,0.0003656195731,0.0001219603644,-0.0008170151516,-0.0001283032613,-0.0009453184129,-0.00132056632,0.0001214010654,-0.001199165255,-0.001543838576,0.0001594959716,-0.001384342604,-0.001039686925,-7.985965936e-06,-0.001047672891,-0.002021724843,9.857339941e-05,-0.001923151443,-0.001164365113,4.360306955e-06,-0.001160004806,0.0004508316221,-0.0003357468429,0.0001150847792,-2.924885835e-05,3.243183613e-05,3.182977776e-06,0.0009517129152,7.480752186e-05,0.001026520437,0.001599821214,-0.0005807158332,0.001019105381,-0.0009711889148,-2.978738196e-05,-0.001000976297,-0.0009641480118,0.0003056679573,-0.0006584800545,-0.001497105534,0.000145570821,-0.001351534713,-0.001105886013,-0.0001869143836,-0.001292800396,-0.001476139963,0.0004386866875,-0.001037453276,-0.001396458598,0.0001641739022,-0.001232284696,0.000555089658,-9.10753772e-05,0.0004640142808,-0.0009284731004,0.0003874667804,-0.00054100632
2.6,-0.0007332163543,0.0001244124626,-0.0006088038917,-0.0005350766529,0.0002301781888,-0.0003048984641,0.000293288793,-0.0002815580721,1.173072084e-05,-0.0006487343343,0.0001285315793,-0.000520202755,-0.001211175736,0.0002674630345,-0.0009437127017,-0.00146645277,0.0001970065543,-0.001269446216,-0.001618669452,0.0003416824823,-0.00127698697,-0.001196302698,0.0002244220356,-0.0009718806628,-0.001590669022,0.0004848073122,-0.00110586171,-0.001545406837,0.0003453674706,-0.001200039367,-0.001935294331,0.0001691567501,-0.001766137581,0.0001866210922,-5.244860852e-05,0.0001341724837,-0.001025760395,0.0004562121089,-0.0005695482865,0.0005665434929,-0.0003501498758,0.0002163936171,0.000621188597,-0.000186689453,0.000434499144,-0.001194686692,0.0002546203312,-0.0009400663612,-0.001740924552,0.0005453697655,-0.001195554786,-0.0003789876986,0.0003759485369,-3.0391617e-06,-0.0009549748327,-0.0001295658969,-0.00108454073,-0.00139150645,0.0001228239083,-0.001268682542,-0.001625243149,0.0001606732706,-0.001464569878,-0.001098415159,-7.280775038e-06,-0.001105695934,-0.002117155264,0.0001023317983,-0.002014823466,-0.001212701387,8.295341485e-06,-0.001204406046,0.0003962151241,-0.0003395991719,5.661595227e-05,-0.0001119420344,2.90386975e-05,-8.290333687e-05,0.0008383984446,4.914068638e-05,0.000887539131,0.001483990631,-0.0005869292337,0.0008970613977,-0.001064451384,-5.089472952e-05,-0.001115346113,-0.001117242594,0.0003156431761,-0.0008015994178,-0.001592662045,0.0001465578157,-0.001446104229,-0.001207716633,-0.000180988898,-0.001388705531,-0.001561161774,0.0004080629434,-0.00115309883,-0.001470614304,0.0001645226844,-0.00130609162,0.0004643922584,-0.000126646522,0.0003377457364,-0.0009641808605,0.0003679280995,-0.000596252761
2.7,-0.0007863218381,0.0001229776306,-0.0006633442075,-0.0005756802911,0.0002292435077,-0.0003464367834,0.0002104019972,-0.0002804231995,-7.002120235e-05,-0.0007276679754,0.0001310394803,-0.0005966284951,-0.001322756726,0.0002650812777,-0.001057675449,-0.001549884138,0.000201544926,-0.001348339212,-0.001697294747,0.0003400925469,-0.0013572022,-0.001277203252,0.0002205521508,-0.001056651101,-0.0016519962,0.0004787500357,-0.001173246164,-0.001595493644,0.000335781573,-0.001259712071,-0.001978759108,0.0001564855495,-0.001822273558,0.0001012467591,-5.728794623e-05,4.395881288e-05,-0.001181404198,0.0004714185903,-0.0007099856078,0.0005173332257,-0.0003517705301,0.0001655626956,0.0005478471773,-0.0002077080985,0.0003401390788,-0.00134762812,0.0002549997888,-0.001092628332,-0.001910799248,0.0005704216862,-0.001340377562,-0.0005154854938,0.0003852824785,-0.0001302030153,-0.001092727339,-0.0001290635371,-0.001221790876,-0.001459998643,0.000124741797,-0.001335256846,-0.001706556209,0.0001621678238,-0.001544388385,-0.001158646784,-5.987523779e-06,-0.001164634308,-0.002211416586,0.0001062132429,-0.002105203343,-0.001262058742,1.270747551e-05,-0.001249351267,0.0003401512583,-0.0003426011376,-2.44987925e-06,-0.0001944190293,2.575442914e-05,-0.0001686646002,0.0007248566287,2.296120139e-05,0.0007478178301,0.001362029926,-0.0005897096624,0.0007723202639,-0.001155796857,-7.052463603e-05,-0.001226321493,-0.001268331301,0.0003262894761,-0.000942041825,-0.001684273472,0.0001469031418,-0.00153737033,-0.001307805728,-0.0001736428961,-0.001481448624,-0.001645556413,0.0003793072668,-0.001266249146,-0.001542901404,0.0001663428762,-0.001376558528,0.0003708622786,-0.0001644579449,0.0002064043337,-0.0009966161173,0.0003442947827,-0.0006523213346
2.8,-0.0008429354798,0.0001219035369,-0.0007210319429,-0.0006169920112,0.0002285678312,-0.00038842418,0.0001243573736,-0.0002787155514,-0.0001543581778,-0.0008074672257,0.0001338107877,-0.000673656438,-0.001435053299,0.0002630116898,-0.001172041609,-0.001631604426,0.000206422594,-0.001425181832,-0.001773982368,0.0003385173279,-0.00143546504,-0.001355665697,0.0002170039408,-0.001138661757,-0.001711744944,0.0004725221775,-0.001239222766,-0.001643240479,0.0003264912754,-0.001316749203,-0.002021899732,0.0001447312051,-0.001877168526,1.397779773e-05,-6.211358735e-05,-4.813578961e-05,-0.00133368239,0.0004844167595,-0.0008492656309,0.0004655518649,-0.0003530574065,0.0001124944584,0.0004733502806,-0.0002293240609,0.0002440262198,-0.001501837013,0.0002547242633,-0.001247112749,-0.00207892993,0.0005943178148,-0.001484612115,-0.0006525750114,0.0003935768497,-0.0002589981617,-0.001229778709,-0.0001267716848,-0.001356550394,-0.001525845168,0.0001271549821,-0.001398690186,-0.00178740448,0.0001639848187,-0.001623419661,-0.001220210021,-4.106455769e-06,-0.001224316477,-0.002304030776,0.0001102086061,-0.00219382217,-0.001312195884,1.758945987e-05,-0.001294606424,0.0002828878791,-0.0003447868631,-6.189898406e-05,-0.0002762920738,2.254990513e-05,-0.0002537421686,0.0006116432733,-3.627796932e-06,0.0006080154764,0.001234764505,-0.0005892842159,0.0006454802887,-0.001244940547,-8.852757588e-05,-0.001333468123,-0.001416872336,0.0003376306197,-0.001079241716,-0.00177166924,0.0001466367702,-0.00162503247,-0.001405833966,-0.0001648734092,-0.001570707375,-0.001728966177,0.0003525859974,-0.00137638018,-0.001613345027,0.0001698485491,-0.001443496478,0.0002742865654,-0.0002040278798,7.025868557e-05,-0.001025982725,0.000316918669,-0.000709064056
2.9,-0.0009028019404,0.0001212256586,-0.0007815762819,-0.0006589336811,0.0002281767791,-0.000430756902,3.566655146e-05,-0.0002764570327,-0.0002407904813,-0.0008878419665,0.0001368548171,-0.0007509871494,-0.001547650929,0.0002612981657,-0.001286352763,-0.001711386894,0.0002116440904,-0.001499742804,-0.001848526972,0.000337006857,-0.001511520115,-0.001431417984,0.0002137752091,-0.001217642775,-0.001769856264,0.0004662028671,-0.001303653397,-0.001688580931,0.0003175518735,-0.001371029057,-0.002064460973,0.0001339453705,-0.001930515603,-7.484473965e-05,-6.694106121e-05,-0.0001417858009,-0.001481741957,0.0004949565102,-0.0009867854464,0.0004113767035,-0.0003540156258,5.736107762e-05,0.0003980194663,-0.0002514807249,0.0001465387414,-0.001656629071,0.000253804429,-0.001402824642,-0.002244575725,0.000616716305,-0.00162785942,-0.0007896882217,0.0004007967916,-0.0003888914301,-0.0013656596,-0.0001226880279,-0.001488347628,-0.001588865348,0.0001300640118,-0.001458801336,-0.00186742093,0.0001661309776,-0.001701289953,-0.00128291949,-1.640866929e-06,-0.001284560357,-0.002394538116,0.0001143098437,-0.002280228272,-0.001362863771,2.293291447e-05,-0.001339930856,0.0002246753567,-0.0003461943061,-0.0001215189494,-0.000357178993,1.938716378e-05,-0.0003377918292,0.0004992951298,-3.050978355e-05,0.0004687853463,0.001103023232,-0.0005858623495,0.0005171608828,-0.001331614795,-0.0001047699396,-0.001436384735,-0.001562340657,0.0003496800186,-0.001212660638,-0.00185461738,0.0001458010686,-0.001708816311,-0.001501490961,-0.0001546919217,-0.001656182883,-0.001811063766,0.0003280518465,-0.001483011919,-0.001682019481,0.0001752490042,-0.001506770477,0.000174415803,-0.0002448047199,-7.038891685e-05,-0.001052587202,0.0002862434835,-0.0007663437181
3.0,-0.0009656345155,0.0001209788342,-0.0008446556813,-0.0007014198108,0.0002280938018,-0.000473326009,-5.514012307e-05,-0.0002736696783,-0.0003288098013,-0.0009684924642,0.0001401799992,-0.000828312465,-0.001660130113,0.000259985277,-0.001400144836,-0.001789020928,0.0002172167687,-0.001571804159,-0.001920735802,0.0003356119061,-0.001585123896,-0.001504210129,0.0002108641715,-0.001293345957,-0.001826278841,0.0004598730752,-0.001366405766,-0.001731461173,0.0003090173028,-0.00142244387,-0.002106193027,0.0001241745423,-0.001982018485,-0.0001648704523,-7.178725126e-05,-0.0002366577036,-0.001624803778,0.0005028292919,-0.001121974486,0.0003549942532,-0.0003546500257,3.442275146e-07,0.0003221780729,-0.0002741286515,4.804942144e-05,-0.001811339791,0.0002522628074,-0.001559076983,-0.002406977969,0.0006372320552,-0.001769745914,-0.0009262729605,0.0004069191469,-0.0005193538136,-0.001499926715,-0.0001168338774,-0.001616760592,-0.001648896356,0.0001334695366,-0.00151542682,-0.00194624901,0.0001686143832,-0.001777634626,-0.00134657872,1.402990154e-06,-0.00134517573,-0.002482502833,0.0001185098688,-0.002363992964,-0.001413808396,2.872828239e-05,-0.001385080114,0.0001657638284,-0.0003468641778,-0.0001811003494,-0.0004367073104,1.622063806e-05,-0.0004204866723,0.0003883236397,-5.755404361e-05,0.0003307695961,0.0009676328944,-0.0005796399295,0.000387992965,-0.001415571302,-0.0001191355413,-0.001534706844,-0.001704232161,0.0003624377239,-0.001341794437,-0.001932921518,0.0001444455961,-0.001788475922,-0.001594479517,-0.0001431234562,-0.001737602973,-0.001891563994,0.000305849674,-0.00158571432,-0.001749039849,0.000182736177,-0.001566303672,7.097536202e-05,-0.0002861806635,-0.0002152053014,-0.001076828073,0.0002527920281,-0.0008240360451
3.1,-0.001031118294,0.0001211968477,-0.0009099214467,-0.0007443581953,0.0002283400649,-0.0005160181304,-0.000147520664,-0.000270375371,-0.000417896035,-0.001049112812,0.0001437939672,-0.0009053188453,-0.001772071674,0.0002591181007,-0.001512953574,-0.001864314145,0.0002231509249,-0.00164116322,-0.001990430483,0.0003343836848,-0.001656046798,-0.001573817416,0.0002082712121,-0.001365546204,-0.001880969924,0.0004536149752,-0.001427354949,-0.001771840574,0.0003009399333,-0.001470900641,-0.002146855812,0.0001154598173,-0.002031395994,-0.000255743594,-7.667132562e-05,-0.0003324149196,-0.001762178546,0.0005078767472,-0.001254301799,0.0002965965254,-0.0003549653084,-5.836878306e-05,0.000246141559,-0.0002972207547,-5.107919573e-05,-0.001965331844,0.0002501327519,-0.001715199092,-0.002565370664,0.0006554509489,-0.001909919715,-0.0010618004,0.0004119340548,-0.0006498663456,-0.001632166446,-0.0001092537436,-0.00174142019,-0.001705794087,0.0001373720003,-0.001568422087,-0.002023546921,0.000171444048,-0.001852102873,-0.001410982947,5.016028972e-06,-0.001405966918,-0.002567518219,0.0001228023939,-0.002444715825,-0.001464773539,3.496474249e-05,-0.001429808797,0.0001064001666,-0.0003468389813,-0.0002404388146,-0.0005145190708,1.299868334e-05,-0.0005015203874,0.0002792096027,-8.461632012e-05,0.0001945932826,0.0008294270472,-0.0005708176941,0.0002586093531,-0.001496582424,-0.0001315280399,-0.001628110463,-0.001842066451,0.0003758868206,-0.00146617963,-0.002006416633,0.00014262063,-0.001863796003,-0.001684520518,-0.0001302052271,-0.001814725745,-0.001970234997,0.0002861245723,-0.001684110425,-0.001814552431,0.0001924700897,-0.001622082341,-3.632604692e-05,-0.0003275059025,-0.0003638319495,-0.001099181889,0.0002171505443,-0.0008820313452
3.2,-0.001098913416,0.0001219119217,-0.0009770014942,-0.0007876505506,0.0002289344372,-0.0005587161134,-0.0002409280347,-0.0002665955139,-0.0005075235486,-0.001129394216,0.0001477036588,-0.0009816905574,-0.001883061646,0.0002587420722,-0.001624319573,-0.001937093934,0.0002294596909,-0.001707634243,-0.002057448513,0.0003333735173,-0.001724074995,-0.001640043007,0.0002060004357,-0.001434042571,-0.001933896013,0.0004475113123,-0.001486384701,-0.001809691902,0.0002933703676,-0.001516321535,-0.0021862226,0.0001078366913,-0.002078385908,-0.0003471073509,-8.161503496e-05,-0.0004287223859,-0.001893281379,0.0005099984507,-0.001383282929,0.0002363783763,-0.0003549662006,-0.0001185878243,0.0001702076119,-0.0003207066839,-0.000150499072,-0.002118001463,0.0002474569443,-0.001870544519,-0.002718992154,0.0006709484906,-0.002048043663,-0.001195771626,0.0004158456223,-0.0007799260038,-0.001761998928,-0.0001000131565,-0.001862012084,-0.001759433515,0.0001417711712,-0.001617662344,-0.002098990951,0.0001746292045,-0.001924361747,-0.001475921431,9.186440937e-06,-0.00146673499,-0.002649209955,0.0001271818103,-0.002522028144,-0.00151550289,4.163010982e-05,-0.00147387278,4.682542357e-05,-0.0003461621108,-0.0002993366873,-0.0005902753962,9.665252015e-06,-0.0005806101442,0.000172399035,-0.0001115407131,6.085832189e-05,0.0006892638975,-0.0005596263765,0.000129637521,-0.001574440176,-0.0001418746592,-0.001716314835,-0.001975387238,0.0003899902176,-0.00158539702,-0.002074964566,0.0001403712365,-0.001934593329,-0.001771357562,-0.0001159842744,-0.001887341837,-0.002046906583,0.0002690299863,-0.001777876597,-0.001878723931,0.0002045643697,-0.001674159562,-0.0001477854498,-0.0003681027756,-0.0005158882255,-0.001120187829,0.0001799536856,-0.0009402341434
3.3,-0.001168657703,0.0001231542128,-0.001045503491,-0.0008311926877,0.0002298936091,-0.0006012990786,-0.0003348149609,-0.0002623506669,-0.0005971656278,-0.001209027261,0.0001519153713,-0.00105711189,-0.001992694758,0.0002589027887,-0.00173379197,-0.002007207588,0.0002361585985,-0.00177104899,-0.00212164382,0.0003326324382,-0.001789011382,-0.00170271923,0.0002040608684,-0.001498658362,-0.00198503274,0.0004416447061,-0.001543388034,-0.001845000591,0.0002863571685,-0.001558643422,-0.002224082124,0.000101334795,-0.002122747329,-0.0004386073353,-8.664190403e-05,-0.0005252492393,-0.002017642819,0.0005091593027,-0.001508483517,0.0001745371519,-0.0003546576248,-0.0001801204729,9.464804841e-05,-0.0003445270627,-0.0002498790143,-0.002268782414,0.0002442854425,-0.002024496971,-0.002867093742,0.0006833097919,-0.00218378395,-0.001327721461,0.0004186718435,-0.0009090496172,-0.001889079384,-8.919595049e-05,-0.001978275334,-0.001809708162,0.0001466656529,-0.001663042509,-0.002172277101,0.000178178499,-0.001994098602,-0.001541178727,1.389987675e-05,-0.00152727885,-0.002727236858,0.0001316431511,-0.002595593707,-0.001565741134,4.871076695e-05,-0.001517030367,-1.272659832e-05,-0.0003448768436,-0.0003576034419,-0.000663659861,6.161806264e-06,-0.0006574980548,6.830007434e-05,-0.0001381618542,-6.986177985e-05,0.0005480440051,-0.0005463482845,1.695720654e-06,-0.001648953119,-0.0001501302294,-0.001799083348,-0.002103760906,0.0004046889551,-0.001699071951,-0.002138450721,0.0001377339576,-0.002000716764,-0.001854761151,-0.0001005131514,-0.001955274303,-0.002121472465,0.0002547319635,-0.001866740501,-0.001941728752,0.0002190735068,-0.001722655245,-0.000263686596,-0.000407280527,-0.000670967123,-0.001140431756,0.0001418728834,-0.0009985588728
3.4,-0.00123996821,0.0001249513093,-0.001115016901,-0.0008748738877,0.0002312322801,-0.0006436416076,-0.0004286363182,-0.0002576602472,-0.0006862965654,-0.001287702711,0.0001564346879,-0.001131268023,-0.002100576071,0.00025964567,-0.001840930401,-0.002074520583,0.0002432647731,-0.00183125581,-0.002182886046,0.0003322106752,-0.001850675371,-0.001761707266,0.0002024672368,-0.00155924003,-0.002034363693,0.0004360969025,-0.00159826679,-0.001877762932,0.0002799465322,-0.0015978164,-0.002260238931,9.597756076e-05,-0.00216426137,-0.0005298937378,-9.177500777e-05,-0.0006216687456,-0.002134914133,0.0005053963054,-0.001629517827,0.0001112749226,-0.0003540448769,-0.0002427699542,1.97039113e-05,-0.0003686079552,-0.0003489040439,-0.002417146765,0.0002406734498,-0.002176473315,-0.003008943956,0.0006921489025,-0.002316795054,-0.001457218907,0.0004204444053,-0.001036774502,-0.002013094567,-7.690214624e-05,-0.002089996713,-0.001856528667,0.0001520525555,-0.001704476112,-0.002243120968,0.0001820993761,-0.002061021592,-0.001606534883,1.913975794e-05,-0.001587395125,-0.002801289498,0.0001361820964,-0.002665107401,-0.001615234136,5.619162919e-05,-0.001559042507,-7.202929097e-05,-0.0003430252536,-0.0004150545446,-0.000734380243,2.429643285e-06,-0.0007319505998,-3.27190265e-05,-0.0001643066745,-0.000197025701,0.000406720724,-0.0005313283468,-0.0001246076228,-0.001719942383,-0.0001562799443,-0.001876222327,-0.002226774432,0.0004199026591,-0.001806871773,-0.002196782373,0.0001347368385,-0.002062045535,-0.001934532598,-8.384361283e-05,-0.00201837621,-0.00219388441,0.0002434074369,-0.001950476973,-0.002003734443,0.0002359838292,-0.001767750613,-0.0003842697205,-0.0004443522445,-0.000828621965,-0.001160529746,0.000103608461,-0.001056921285
3.5,-0.001312441916,0.0001273276629,-0.001185114253,-0.0009185756056,0.0002329633012,-0.0006856123044,-0.000521849851,-0.00025254237,-0.000774392221,-0.00136511127,0.0001612662815,-0.001203844988,-0.002206321279,0.0002610154427,-0.001945305836,-0.002138913375,0.0002507957958,-0.001888117579,-0.002241058809,0.0003321570331,-0.001908901776,-0.001816895671,0.0002012403461,-0.001615655324,-0.002081878564,0.0004309480446,-0.001650930519,-0.001907983662,0.0002741819541,-0.001633801708,-0.002294512711,9.178185714e-05,-0.002202730854,-0.0006206223129,-9.703375759e-05,-0.0007176560705,-0.002244866235,0.0004988225481,-0.001746043687,4.680201426e-05,-0.0003531337972,-0.000306331783,-5.441635903e-05,-0.0003928560396,-0.0004472723986,-0.002562602889,0.0002366788899,-0.002325923999,-0.003143832103,0.0006971271718,-0.002446704931,-0.001583864945,0.0004212085754,-0.00116265637,-0.002133755138,-6.324648481e-05,-0.002197001622,-0.001899820905,0.0001579273272,-0.001741893577,-0.002311256708,0.0001863977323,-0.002124858976,-0.001671765133,2.488761968e-05,-0.001646877513,-0.002871088271,0.0001407948847,-0.002730293386,-0.001663728909,6.405610019e-05,-0.001599672809,-0.0001308619786,-0.0003406473143,-0.0004715092929,-0.0008021691209,-1.587328276e-06,-0.0008037564492,-0.0001303303465,-0.0001897963179,-0.0003201266644,0.0002663021788,-0.0005149742059,-0.0002486720271,-0.001787238162,-0.0001603400709,-0.001947578233,-0.00234403427,0.0004355322028,-0.001908502067,-0.002249888089,0.000131402031,-0.002118486058,-0.002010507731,-6.601933347e-05,-0.002076527065,-0.002264139049,0.0002352374341,-0.002028901615,-0.002064886564,0.0002552099432,-0.001809676621,-0.0005096935206,-0.000478655275,-0.0009883487956,-0.001181111464,6.588271557e-05,-0.001115228748
3.6,-0.001385656537,0.0001303039396,-0.001255352598,-0.0009621701659,0.0002350977253,-0.0007270724406,-0.0006139170882,-0.0002470138145,-0.0008609309027,-0.001440943479,0.0001664137073,-0.001274529771,-0.002309557072,0.0002630555077,-0.002046501564,-0.002200277753,0.0002587683397,-0.001941509413,-0.002296057744,0.0003325181962,-0.001963539548,-0.001868198598,0.0002004070676,-0.001667791531,-0.002127571454,0.000426275996,-0.001701295458,-0.001935673785,0.0002691038916,-0.001666569894,-0.002326737911,8.875759012e-05,-0.002237980321,-0.0007104551071,-0.0001024306267,-0.0008128857338,-0.002347383562,0.0004896259762,-0.001857757585,-1.866036908e-05,-0.0003519309564,-0.0003705913255,-0.0001275370661,-0.0004171551899,-0.000544692256,-0.002704692494,0.0002323599467,-0.002472332548,-0.003271074802,0.0006979694676,-0.002573105335,-0.001707289328,0.0004210228322,-0.001286266496,-0.002250787645,-4.835671469e-05,-0.00229914436,-0.001939524343,0.0001642836261,-0.001775240716,-0.002376436393,0.0001910776512,-0.002185358742,-0.001736640035,3.112331384e-05,-0.001705516721,-0.002936382689,0.0001454780401,-0.002790904649,-0.001710974235,7.228599825e-05,-0.001638688237,-0.0001890084004,-0.0003377803788,-0.0005267887792,-0.0008667843073,-5.93963937e-06,-0.0008727239467,-0.0002242453393,-0.0002144489514,-0.0004386942907,0.000127849594,-0.0004977519188,-0.0003699023248,-0.001850677645,-0.0001623569038,-0.002013034549,-0.002455167883,0.0004514642032,-0.00200370368,-0.002297718207,0.0001277499481,-0.002169968259,-0.002082559953,-4.706930562e-05,-0.002129629259,-0.002332261009,0.0002303979628,-0.002101863046,-0.002125294578,0.0002765963974,-0.00184869818,-0.0006399990762,-0.0005095738408,-0.001149572917,-0.001202803622,2.942957074e-05,-0.001173374051
3.7,-0.001459172514,0.000133896362,-0.001325276152,-0.001005520228,0.0002376448352,-0.0007678753928,-0.0007043061076,-0.0002410900499,-0.0009453961576,-0.001514890783,0.0001718792862,-0.001343011496,-0.002409922757,0.0002658072942,-0.002144115463,-0.002258513776,0.0002671967269,-0.001991317049,-0.002347789108,0.0003333379491,-0.002014451159,-0.00191555444,0.0001999999095,-0.00171555453,-0.00217144006,0.0004221556999,-0.00174928436,-0.001960849318,0.000264749386,-0.001696099932,-0.002356764625,8.690725264e-05,-0.002269857372,-0.0007990619833,-0.000107968579,-0.0009070305622,-0.002442455443,0.0004780624545,-0.001964392989,-8.487998666e-05,-0.0003504439168,-0.0004353239034,-0.0001995152952,-0.0004413648023,-0.0006408800975,-0.002842989067,0.0002277730252,-0.002615216042,-0.003390024133,0.0006944744277,-0.002695549706,-0.001827148184,0.0004199580131,-0.001407190171,-0.002363929972,-3.237068136e-05,-0.002396300653,-0.001975591276,0.0001711131834,-0.001804478093,-0.002438430781,0.0001961410557,-0.002242289725,-0.001800926726,3.782502964e-05,-0.001763101696,-0.002996952786,0.0001502279685,-0.002846724817,-0.001756722398,8.0861498e-05,-0.0016758609,-0.000246256032,-0.0003344589582,-0.0005807149902,-0.0009280097028,-1.066967592e-05,-0.0009386793787,-0.0003142136008,-0.0002380834487,-0.0005522970495,-7.523074417e-06,-0.000480184487,-0.0004877075614,-0.00191010485,-0.0001624045927,-0.002072509442,-0.002559828679,0.0004675766836,-0.002092251995,-0.002340246845,0.0001238044357,-0.00221644241,-0.002150601648,-2.700360198e-05,-0.00217760525,-0.002398286898,0.0002290512472,-0.002169235651,-0.00218502053,0.0002999226437,-0.001885097886,-0.0007750859861,-0.0005365592598,-0.001311645246,-0.00122621324,-5.021465216e-06,-0.001231234705
3.8,-0.001532536644,0.0001381161242,-0.00139442052,-0.001048479452,0.0002406122183,-0.0008078672341,-0.0007924966971,-0.0002347852866,-0.001027281984,-0.00158664819,0.0001776640784,-0.001408984112,-0.00250707357,0.0002693096574,-0.002237763912,-0.002313527875,0.0002760915648,-0.00203743631,-0.002396169376,0.0003346563337,-0.002061513043,-0.001958925175,0.0002000561914,-0.001758868984,-0.002213486024,0.0004186585829,-0.001794827441,-0.001983531158,0.0002611516527,-0.001722379506,-0.002384461033,8.622549343e-05,-0.002298235539,-0.0008861233982,-0.0001136395805,-0.0009997629787,-0.002530167065,0.0004644444245,-0.00206572264,-0.0001516161031,-0.000348681579,-0.0005002976821,-0.0002702420718,-0.0004653194094,-0.0007355614812,-0.002977099333,0.0002229716902,-0.002754127643,-0.003500074408,0.0006865159791,-0.002813558429,-0.001943123804,0.0004180961511,-0.001525027653,-0.002472931834,-1.54321995e-05,-0.002488364033,-0.002007987167,0.0001784057363,-0.001829581431,-0.002497031773,0.0002015873302,-0.002295444442,-0.001864391481,4.496925634e-05,-0.001819422225,-0.003052612548,0.0001550405443,-0.002897572004,-0.001800732033,8.97611468e-05,-0.001710970887,-0.0003023968911,-0.0003307146025,-0.0006331114936,-0.0009856565369,-1.580988085e-05,-0.001001466418,-0.0004000224314,-0.0002605235383,-0.0006605459697,-0.0001386508652,-0.0004628524336,-0.0006015032988,-0.001965372121,-0.0001605823712,-0.002125954492,-0.002657703354,0.0004837447885,-0.002173958566,-0.00237747536,0.0001195984521,-0.002257876908,-0.002214583174,-5.812487892e-06,-0.002220395661,-0.002462252389,0.0002313378971,-0.002230914492,-0.002244072558,0.0003249098797,-0.001919162679,-0.0009147044074,-0.0005591433103,-0.001473847718,-0.001251911112,-3.676508609e-05,-0.001288676199
3.9,-0.00160528723,0.0001429688996,-0.00146231833,-0.001090894346,0.0002440058583,-0.000846888488,-0.0008779874601,-0.0002281125566,-0.001106100017,-0.001655918323,0.0001837678918,-0.001472150431,-0.002600685343,0.0002735983234,-0.002327087019,-0.002365232246,0.0002854586348,-0.002079773611,-0.002441125829,0.0003365088387,-0.00210461699,-0.001998296416,0.0002006169141,-0.001797679502,-0.002253716285,0.000415852063,-0.001837864222,-0.002003745871,0.0002583397071,-0.001745406164,-0.002409717056,8.669885683e-05,-0.002323018199,-0.0009713341761,-0.0001194242267,-0.001090758403,-0.002610690984,0.000449127134,-0.00216156385,-0.0002186240381,-0.0003466545053,-0.0005652785434,-0.0003396447735,-0.0004888291316,-0.0008284739051,-0.003106667524,0.000218006666,-0.002888660858,-0.003600668683,0.0006740386564,-0.002926630027,-0.002054926899,0.0004155291425,-0.001639397756,-0.002577559457,2.313249025e-06,-0.002575246208,-0.002036691911,0.0001861490678,-0.001850542843,-0.002552056219,0.0002074129998,-0.00234464322,-0.001926803274,5.253081068e-05,-0.001874272463,-0.003103214534,0.0001599107498,-0.002943303784,-0.001842771717,9.896196369e-05,-0.001743809753,-0.0003572297836,-0.0003265758317,-0.0006838056153,-0.001039564727,-2.138184834e-05,-0.001060946575,-0.0004814974044,-0.0002816020678,-0.0007630994721,-0.0002643287599,-0.0004463891747,-0.0007107179346,-0.00201634254,-0.0001570116966,-0.002173354237,-0.002748519291,0.0004998450239,-0.002248674268,-0.002409435918,0.0001151789709,-0.002294256947,-0.002274489452,1.653104588e-05,-0.002257958406,-0.002524181276,0.0002373678478,-0.002286813428,-0.00230240409,0.0003512296662,-0.001951174423,-0.001058458939,-0.0005769443137,-0.001635403253,-0.001280416573,-6.513983009e-05,-0.001345556403
4.0,-0.001676960192,0.0001484544453,-0.001528505747,-0.00113260695,0.0002478301641,-0.0008847767854,-0.0009603038507,-0.000221083795,-0.001181387646,-0.001722416254,0.0001901892861,-0.001532226968,-0.002690459771,0.0002787053876,-0.002411754384,-0.002413545336,0.0002952982159,-0.00211824712,-0.002482597831,0.0003389257665,-0.002143672065,-0.00203367773,0.0002017254167,-0.001831952313,-0.002292145001,0.0004137991959,-0.001878345805,-0.002021526935,0.000256338069,-0.001765188866,-0.002432448511,8.830578328e-05,-0.002344142728,-0.001054407625,-0.000125292164,-0.001179699789,-0.002684279887,0.0004324949312,-0.002251784955,-0.0002856605347,-0.000344375102,-0.0006300356367,-0.0004076890039,-0.0005116814702,-0.0009193704741,-0.003231380437,0.0002129262159,-0.003018454221,-0.003691308815,0.0006570522818,-0.003034256534,-0.002162300139,0.0004123570658,-0.001749943074,-0.002677602105,2.072172712e-05,-0.002656880378,-0.002061701498,0.0001943290628,-0.001867372436,-0.002603350184,0.0002136113943,-0.002389738789,-0.001987937667,6.048292126e-05,-0.001927454746,-0.00314865442,0.0001648323654,-0.002983822054,-0.001882623707,0.0001084395916,-0.001774184116,-0.0004105633625,-0.0003220682256,-0.0007326315882,-0.001089604003,-2.739623568e-05,-0.001117000238,-0.0005585033673,-0.0003011652182,-0.0008596685855,-0.0003833352554,-0.0004314665835,-0.0008148018389,-0.002062892579,-0.0001518337866,-0.002214726365,-0.00283204984,0.0005157570768,-0.002316292763,-0.002436193539,0.000110609417,-0.002325584122,-0.002330334925,4.006586127e-05,-0.002290269063,-0.002584074369,0.0002472079235,-0.002336866445,-0.002359917804,0.0003785146726,-0.001981403132,-0.001205817931,-0.0005896690556,-0.001795486987,-0.001312183652,-8.954501756e-05,-0.00140172867
4.1,-0.001747095463,0.0001545663465,-0.001592529116,-0.00117345786,0.0002520879131,-0.0009213699473,-0.001039005844,-0.0002137098491,-0.001252715693,-0.0017858743,0.0001969255841,-0.001588948716,-0.002776129253,0.0002846588898,-0.002491470363,-0.002458392884,0.0003056049086,-0.002152787976,-0.002520538292,0.0003419318514,-0.00217860644,-0.002065102573,0.0002034258809,-0.001861676692,-0.002328795331,0.0004125583803,-0.001916236951,-0.002036915802,0.0002551664811,-0.001781749321,-0.002452600769,9.101680174e-05,-0.002361583967,-0.001135079032,-0.0001312028488,-0.001266281881,-0.002751260354,0.000414949992,-0.002336310362,-0.0003524884695,-0.0003418576507,-0.0006943461202,-0.0004743767715,-0.0005336455022,-0.001008022274,-0.003350970731,0.0002077760403,-0.003143194691,-0.00377156998,0.0006356292208,-0.003135940759,-0.002265021244,0.0004086861052,-0.001856335139,-0.002772877451,3.965214932e-05,-0.002733225302,-0.002083029336,0.0002029296532,-0.001880099683,-0.002650792562,0.0002201721687,-0.002430620393,-0.002047580272,6.879732008e-05,-0.001978782952,-0.003188874035,0.0001697977265,-0.003019076308,-0.001920087172,0.0001181684959,-0.001801918676,-0.0004622191249,-0.0003172147212,-0.000779433846,-0.001135674343,-3.385328941e-05,-0.001169527632,-0.0006309450043,-0.0003190766226,-0.0009500216269,-0.0004944651164,-0.000418771867,-0.0009132369833,-0.002104914558,-0.0001452075479,-0.002250122106,-0.00290811701,0.0005313640083,-0.002376753002,-0.002457845794,0.0001059689061,-0.002351876887,-0.002382157889,6.483566649e-05,-0.002317322223,-0.002641897728,0.0002608673085,-0.00238103042,-0.002416473176,0.0004063718714,-0.002010101305,-0.001356124197,-0.0005971134267,-0.001953237624,-0.001347588023,-0.0001094539043,-0.001457041927
4.2,-0.001815242864,0.0001612919628,-0.001653950901,-0.001213289029,0.0002567801619,-0.0009565088674,-0.001113693815,-0.0002060003798,-0.001319694195,-0.001846045772,0.0002039728693,-0.001642072902,-0.002857460167,0.0002914824487,-0.002565977718,-0.002499708666,0.0003163678157,-0.00218334085,-0.002554914572,0.0003455460591,-0.002209368513,-0.002092627103,0.000205761725,-0.001886865378,-0.002363700335,0.0004121829774,-0.001951517358,-0.002049962098,0.000254839536,-0.001795122562,-0.002470150844,9.479477338e-05,-0.002375356071,-0.001213107255,-0.0001371064443,-0.001350213699,-0.002812025007,0.0003969039945,-0.002415121012,-0.0004188793712,-0.0003391182524,-0.0007579976235,-0.0005397380622,-0.0005544790949,-0.001094217157,-0.003465216854,0.000202598566,-0.003262618288,-0.003841116015,0.000609904061,-0.003231211954,-0.002362904238,0.0004046267155,-0.001958277522,-0.00286323263,5.896551686e-05,-0.002804267113,-0.0021007065,0.0002119326278,-0.001888773872,-0.002694297032,0.0002270807375,-0.002467216295,-0.002105529035,7.744439506e-05,-0.00202808464,-0.003223861656,0.0001747976167,-0.00304906404,-0.001954980247,0.0001281222284,-0.001826858018,-0.0005120334866,-0.0003120360267,-0.0008240695133,-0.001177705199,-4.074368091e-05,-0.00121844888,-0.0006987661098,-0.0003352211129,-0.001033987223,-0.0005965658465,-0.0004089794386,-0.001005545285,-0.002142318433,-0.0001373072986,-0.002279625731,-0.002976592253,0.0005465527582,-0.002430039495,-0.002474520334,0.0001013491574,-0.002373171176,-0.002430014625,9.088217073e-05,-0.002339132454,-0.002697571201,0.0002782849996,-0.002419286202,-0.002471896473,0.0004343982612,-0.002037498211,-0.001508605294,-0.0005991620394,-0.002107767334,-0.001386915524,-0.0001244220582,-0.001511337582
4.3,-0.001880966722,0.0001686125648,-0.001712354157,-0.0012519458,0.0002619061743,-0.000990039626,-0.001184011401,-0.0001979637384,-0.001381975139,-0.001902706829,0.0002113258915,-0.001691380938,-0.002934253685,0.0002991948682,-0.002635058817,-0.002537434073,0.00032757084,-0.002209863233,-0.002585708192,0.0003497814407,-0.002235926752,-0.00211632726,0.0002087738985,-0.001907553362,-0.002396902403,0.0004127207904,-0.001984181613,-0.002060722497,0.000255366193,-0.001805356304,-0.002485107207,9.959511932e-05,-0.002385512088,-0.001288273291,-0.0001429450291,-0.00143121832,-0.002867019448,0.0003787711124,-0.002488248336,-0.0004846126979,-0.0003361747303,-0.0008207874282,-0.0006038148423,-0.0005739386359,-0.001177753478,-0.003573939316,0.0001974323818,-0.003376506934,-0.003899711061,0.0005800746473,-0.003319636414,-0.002455798234,0.00040029305,-0.002055505184,-0.002948539319,7.852276774e-05,-0.002870016551,-0.002114780531,0.000221317385,-0.001893463146,-0.00273381174,0.0002343178971,-0.002499493843,-0.002161594979,8.639351396e-05,-0.002075201465,-0.003253649228,0.0001798213223,-0.003073827906,-0.001987140644,0.0001382737404,-0.001848866904,-0.0005598582136,-0.0003065510943,-0.000866409308,-0.00121565298,-4.804948482e-05,-0.001263702464,-0.000761946912,-0.0003495075569,-0.001111454469,-0.0006885729904,-0.0004027224241,-0.001091295415,-0.0021750323,-0.0001283197254,-0.002303352025,-0.003037395874,0.000561216076,-0.002476179798,-0.002486370776,9.685072715e-05,-0.002389520049,-0.002473972385,0.0001182390929,-0.002355733292,-0.002750958146,0.0002993226909,-0.002451635455,-0.002525991076,0.0004621983056,-0.00206379277,-0.001662382469,-0.0005957854335,-0.002258167903,-0.001430353705,-0.0001340909006,-0.001564444606
4.4,-0.001943848931,0.0001765035497,-0.001767345381,-0.001289278013,0.0002674633456,-0.001021814668,-0.001249645191,-0.0001896069546,-0.001439252146,-0.001955656279,0.0002189778145,-0.001736678464,-0.003006344096,0.0003078096358,-0.00269853446,-0.002571516382,0.0003391929905,-0.002232323392,-0.002612913172,0.0003546449831,-0.002258268189,-0.002136294097,0.0002124990936,-0.001923795004,-0.002428451293,0.0004142134808,-0.002014237812,-0.002069258448,0.0002567492729,-0.001812509175,-0.00249750748,0.0001053660593,-0.002392141421,-0.001360375854,-0.0001486544533,-0.001509030307,-0.002916723162,0.0003609604453,-0.002555762717,-0.0005494722471,-0.0003330465055,-0.0008825187526,-0.0006666400859,-0.0005917895365,-0.001258429622,-0.003676994562,0.0001923127603,-0.003484681802,-0.003947226625,0.0005464040062,-0.003400822619,-0.002543583759,0.0003958039545,-0.002147779804,-0.003028684125,9.818259769e-05,-0.002930501527,-0.002125312943,0.0002310606665,-0.001894252276,-0.002769316984,0.0002418598272,-0.002527457157,-0.002215601669,9.561350038e-05,-0.002119988169,-0.003278307621,0.0001848567631,-0.003093450857,-0.002016425198,0.0001485956654,-0.001867829532,-0.0006055589873,-0.0003007777107,-0.0009063366981,-0.001249496649,-5.574535309e-05,-0.001305242002,-0.0008204993612,-0.000361870431,-0.001182369792,-0.000769539981,-0.0004005686918,-0.001170108673,-0.002203001529,-0.0001184399757,-0.002321441505,-0.003090495447,0.0005752553699,-0.002515240077,-0.0024935715,9.257967728e-05,-0.002400991822,-0.002514100439,0.0001469263136,-0.002367174126,-0.0028018575,0.0003237638131,-0.002478093687,-0.002578545351,0.0004894011045,-0.002089144246,-0.00181648011,-0.0005870333893,-0.0024035135,-0.001477986308,-0.0001381886132,-0.001616174921
4.5,-0.002003491034,0.0001849346117,-0.001818556422,-0.001325140549,0.0002734470707,-0.001051693478,-0.001310322725,-0.0001809359057,-0.001491258631,-0.002004714246,0.0002269198676,-0.001777794378,-0.003073595887,0.000317334348,-0.00275626154,-0.002601906482,0.0003512087351,-0.002250697747,-0.002636533606,0.0003601374855,-0.00227639612,-0.002152628118,0.000216967956,-0.001935660162,-0.002458401508,0.0004166960293,-0.002041705478,-0.002075633526,0.0002589850125,-0.001816648513,-0.002507415193,0.0001120488938,-0.002395366299,-0.001429225548,-0.000154166959,-0.001583392507,-0.002961626788,0.0003438668032,-0.002617759984,-0.0006132417331,-0.0003297544744,-0.0009429962076,-0.0007282178683,-0.0006078152643,-0.001336033133,-0.003774268795,0.0001872735979,-0.003586995197,-0.003983646515,0.0005092232239,-0.003474423291,-0.002626167228,0.0003912844421,-0.002234882786,-0.003103557869,0.0001178002947,-0.002985757574,-0.002132376187,0.0002411362136,-0.001891239974,-0.002800822066,0.0002496783443,-0.002551143722,-0.002267384274,0.0001050730723,-0.002162311202,-0.003297941994,0.0001898905559,-0.003108051438,-0.002042709251,0.000159060493,-0.001883648758,-0.0006490128483,-0.000294733189,-0.0009437460373,-0.001279232086,-6.3799928e-05,-0.001343032014,-0.0008744611735,-0.0003722701411,-0.001246731315,-0.000838660824,-0.0004030034353,-0.001241664259,-0.002226187262,-0.0001078671744,-0.002334054437,-0.003135904004,0.0005885835391,-0.002547320465,-0.002496312038,8.864477123e-05,-0.002407667267,-0.002550460441,0.0001769436506,-0.002373516791,-0.002850000139,0.0003513170911,-0.002498683047,-0.002629336272,0.0005156746162,-0.002113661656,-0.001969840543,-0.000573023846,-0.002542864389,-0.001529790851,-0.0001365305652,-0.001666321416
4.6,-0.002059516458,0.0001938698604,-0.001865646598,-0.001359394073,0.0002798505678,-0.001079543505,-0.001365811022,-0.0001719556404,-0.001537766662,-0.002049721137,0.0002351410494,-0.001814580088,-0.003135901311,0.0003277701762,-0.002808131134,-0.002628557181,0.0003635883961,-0.002264968785,-0.002656581473,0.0003662534973,-0.002290327976,-0.002165433889,0.0002222034232,-0.001943230466,-0.002486809983,0.0004201962599,-0.002066613723,-0.002079911371,0.0002620626917,-0.001817848679,-0.002514917035,0.0001195783189,-0.002395338716,-0.001494639893,-0.0001594141949,-0.001654054088,-0.003002208999,0.0003278594493,-0.00267434955,-0.0006757019708,-0.0003263209395,-0.00100202291,-0.0007885104086,-0.0006218234517,-0.00141033386,-0.003865673774,0.0001823502405,-0.003683323533,-0.004009071419,0.0004689346881,-0.003540136731,-0.002703474831,0.0003868660597,-0.002316608771,-0.003173047083,0.0001372274802,-0.003035819603,-0.002136051007,0.0002515143126,-0.001884536695,-0.002828362778,0.0002577411496,-0.002570621628,-0.002316789204,0.000114741074,-0.00220204813,-0.00331268898,0.0001949079367,-0.003117781044,-0.002065886783,0.0001696406378,-0.001896246145,-0.0006901059246,-0.0002884349417,-0.0009785408663,-0.00130486634,-7.217741183e-05,-0.001377043751,-0.0009238898602,-0.0003806923508,-0.001304582211,-0.0008952885999,-0.0004104149741,-0.001305703574,-0.002244565218,-9.679999208e-05,-0.00234136521,-0.003173678832,0.000601127723,-0.002572551109,-0.00249479165,8.515483548e-05,-0.002409636814,-0.002583098915,0.0002082648964,-0.002374834018,-0.002895051372,0.0003816228387,-0.002513428533,-0.002678128777,0.0005407345952,-0.002137394182,-0.002121347156,-0.0005539294716,-0.002675276627,-0.001585641818,-0.0001290188534,-0.001714660672
4.7,-0.002111573828,0.0002032679797,-0.001908305848,-0.001391906618,0.0002866647286,-0.00110524189,-0.001415917122,-0.0001626708002,-0.001578587923,-0.002090537943,0.0002436279923,-0.001846909951,-0.003193179546,0.0003391114656,-0.002854068081,-0.002651422789,0.0003762984819,-0.002275124307,-0.002673075438,0.0003729813069,-0.002300094131,-0.002174815938,0.000228219282,-0.001946596656,-0.002513734731,0.0004247344134,-0.002089000317,-0.002082154829,0.0002659643423,-0.001816190487,-0.002520121508,0.0001278827766,-0.002392238732,-0.001556440941,-0.0001643299295,-0.001720770871,-0.003038915981,0.0003132700605,-0.00272564592,-0.0007366310122,-0.0003227695894,-0.001059400602,-0.0008474336737,-0.0006336494441,-0.001481083118,-0.003951145148,0.000177582272,-0.003773562876,-0.004023722821,0.0004260135806,-0.003597709241,-0.002775447442,0.0003826854787,-0.002392761963,-0.003237029322,0.0001563119909,-0.003080717331,-0.002136424938,0.0002621613642,-0.001874263574,-0.002852000521,0.0002660120225,-0.002585988498,-0.002363674923,0.0001245865304,-0.002239088392,-0.003322716301,0.000199892586,-0.003122823715,-0.002085871694,0.0001803084737,-0.00190556322,-0.0007287325393,-0.0002819007597,-0.001010633299,-0.001326412766,-8.083917328e-05,-0.001407251939,-0.0009688575886,-0.0003871468551,-0.001356004444,-0.0009389550089,-0.0004230779993,-0.001362033008,-0.002258125431,-8.543285583e-05,-0.002343558286,-0.003203921401,0.0006128327198,-0.002591088681,-0.002489214334,8.221610244e-05,-0.002406998232,-0.002612043873,0.0002408333471,-0.002371210526,-0.002936620825,0.0004142620993,-0.002522358726,-0.00272467291,0.0005643479334,-0.002160324976,-0.002269854446,-0.0005299655804,-0.002799820026,-0.001645320827,-0.0001156402679,-0.001760961095
4.8,-0.002159341617,0.0002130825065,-0.00194625911,-0.00142255623,0.0002938780236,-0.001128678207,-0.00146049086,-0.000153086121,-0.001613576981,-0.002127048188,0.0002523649797,-0.001874683208,-0.003245377669,0.0003513454822,-0.002894032186,-0.002670460129,0.0003893019074,-0.002281158221,-0.002686040924,0.0003803029626,-0.002305737961,-0.002180876397,0.0002350189999,-0.001945857397,-0.002539234633,0.0004303228081,-0.002108911825,-0.002082426422,0.000270664611,-0.001811761811,-0.00252315911,0.0001368849185,-0.002386274191,-0.001614456074,-0.0001688520211,-0.001783308095,-0.003072146881,0.0003003832449,-0.002771763636,-0.0007958072373,-0.0003191254052,-0.001114932642,-0.0009048589699,-0.000643159055,-0.001548018025,-0.004030642832,0.0001730156638,-0.003857627168,-0.004027945274,0.0003810048486,-0.003646940426,-0.00284203783,0.0003788816438,-0.002463156186,-0.003295372777,0.0001748977681,-0.003120475009,-0.002133592249,0.0002730397042,-0.001860552545,-0.002871823365,0.000274451102,-0.002597372263,-0.002407914024,0.0001345786873,-0.002273335337,-0.003328224428,0.0002048264337,-0.003123397994,-0.002102600213,0.0001910363965,-0.001911563816,-0.0007647959432,-0.0002751488963,-0.00103994484,-0.001343887704,-8.97452802e-05,-0.001433632984,-0.00100944687,-0.000391666773,-0.001401113643,-0.0009693928127,-0.0004411322279,-0.001410525041,-0.002266873123,-7.395284054e-05,-0.002340825964,-0.003226778543,0.0006236654811,-0.002603113062,-0.00247978458,7.992953407e-05,-0.002399855046,-0.002637305973,0.0002745600582,-0.002362745915,-0.002974280155,0.0004487700302,-0.002525510125,-0.002768702239,0.0005863325354,-0.002182369704,-0.002414222494,-0.0005013808188,-0.002915603313,-0.001708531188,-9.646387034e-05,-0.001804995058
4.9,-0.002202533809,0.0002232622259,-0.001979271583,-0.001451234529,0.0003014764171,-0.001149758112,-0.001499429199,-0.0001432069982,-0.001642636197,-0.00215916131,0.0002613340466,-0.001897827263,-0.00329247291,0.0003644523046,-0.002928020606,-0.002685630768,0.000402558184,-0.002283072584,-0.002695511319,0.0003881943687,-0.002307316951,-0.002183714343,0.0002425948973,-0.001941119446,-0.002563370186,0.0004369656633,-0.002126404522,-0.002080789929,0.000276130868,-0.001804659061,-0.002524183594,0.0001465022781,-0.002377681316,-0.001668521588,-0.000172923555,-0.001841445143,-0.003102247311,0.0002894321962,-0.002812815115,-0.0008530145356,-0.0003154143361,-0.001168428872,-0.0009606173001,-0.0006502517189,-0.001610869019,-0.004104152438,0.0001687041062,-0.003935448332,-0.004022205106,0.0003345134212,-0.003687691685,-0.002903210128,0.0003755918971,-0.002527618231,-0.003347940198,0.0001928256156,-0.003155114582,-0.002127655113,0.0002841077733,-0.001843547339,-0.002887948661,0.0002830153013,-0.002604933359,-0.002449396159,0.0001446871218,-0.002304709037,-0.003329449296,0.0002096895039,-0.003119759792,-0.002116034032,0.000201796904,-0.001914237128,-0.0007982102697,-0.0002681982139,-0.001066408484,-0.001357308953,-9.885589269e-05,-0.001456164846,-0.001045746637,-0.0003943084355,-0.001440055072,-0.0009865570782,-0.0004645608132,-0.001451117891,-0.00227083032,-6.253678008e-05,-0.0023333671,-0.003242444207,0.0006336197638,-0.002608824444,-0.002466704473,7.83882368e-05,-0.002388316236,-0.00265888332,0.0003093253202,-0.002349558,-0.003007587068,0.0004846535255,-0.002522933543,-0.002809935972,0.0006065559667,-0.002203380005,-0.002553354008,-0.0004684490806,-0.003021803089,-0.001774913828,-7.163854798e-05,-0.001846552376
5.0,-0.002240905923,0.0002337516548,-0.002007154268,-0.001477850766,0.0003094432443,-0.001168407521,-0.001532681055,-0.0001330400389,-0.001665721094,-0.002186816839,0.0002705151135,-0.001916301725,-0.003334475377,0.000378404866,-0.002956070511,-0.002696904063,0.0004160236897,-0.002280880373,-0.002701529879,0.0003966255252,-0.002304904354,-0.002183426318,0.0002509277503,-0.001932498568,-0.002586204723,0.0004446591009,-0.002141545622,-0.002077312542,0.0002823235508,-0.001794988991,-0.002523373535,0.0001566481562,-0.002366725379,-0.001718488068,-0.0001764930331,-0.001894981101,-0.003129509163,0.0002805984774,-0.002848910686,-0.0009080482121,-0.000311662747,-0.001219710959,-0.001014505225,-0.0006548632712,-0.001669368496,-0.004171686401,0.0001647094764,-0.004006976925,-0.004007082425,0.0002871869554,-0.003719895469,-0.002958940351,0.0003729471101,-0.002585993241,-0.003394596104,0.000209935672,-0.003184660432,-0.00211872535,0.0002953205428,-0.001823404807,-0.00290052624,0.000291658734,-0.002608867506,-0.002488031148,0.000154881859,-0.002333149289,-0.00332666474,0.000214459844,-0.003112204896,-0.002126163498,0.0002125626413,-0.001913600857,-0.0008289029892,-0.0002610685579,-0.001089971547,-0.001366695819,-0.0001081325535,-0.001474828372,-0.00107784856,-0.0003951514596,-0.00147300002,-0.0009906386659,-0.0004931758493,-0.001483814515,-0.002270037544,-5.134806583e-05,-0.00232138561,-0.003251160151,0.0006427192464,-0.002608440904,-0.002450172929,7.767529039e-05,-0.002372497638,-0.002676767765,0.0003449821813,-0.002331785583,-0.003036111638,0.0005214105437,-0.002514701095,-0.0028480848,0.0006249334395,-0.00222315136,-0.002686230682,-0.0004314613621,-0.003117692044,-0.001844063555,-4.138892229e-05,-0.001885452478
5.1,-0.002274260575,0.0002444916174,-0.002029768958,-0.001502335774,0.0003177590771,-0.001184576697,-0.001560251292,-0.0001225934982,-0.00168284479,-0.002209988436,0.0002798861328,-0.001930102303,-0.003371430166,0.0003931691552,-0.002978261011,-0.002704260349,0.0004296520485,-0.0022746083,-0.002704151717,0.0004055609266,-0.00229859079,-0.002180107295,0.0002599868941,-0.001920120401,-0.002607805491,0.0004533912371,-0.002154414254,-0.002072066903,0.0002891966166,-0.001782870287,-0.002520933179,0.0001672326039,-0.002353700575,-0.00176422596,-0.0001795136415,-0.001943739601,-0.003154172379,0.0002740129197,-0.002880159459,-0.0009607200009,-0.0003078968094,-0.00126861681,-0.001066292197,-0.0006569667753,-0.001723258972,-0.004233283528,0.0001611015812,-0.004072181947,-0.003983254468,0.0002396930051,-0.003743561463,-0.003009216372,0.0003710657955,-0.002638150577,-0.003435215179,0.0002260715064,-0.003209143672,-0.002106925933,0.0003066301116,-0.001800295822,-0.002909740904,0.000300333065,-0.002609407839,-0.002523751512,0.0001651334456,-0.002358618066,-0.003320183157,0.0002191135971,-0.00310106956,-0.00213301005,0.0002233063966,-0.001909703653,-0.0008568169968,-0.0002537813079,-0.001110598305,-0.001372069978,-0.0001175394354,-0.001489609414,-0.001105843786,-0.0003942982472,-0.001500142034,-0.0009820658431,-0.0005266160406,-0.001508681884,-0.002264554984,-4.053292377e-05,-0.002305087907,-0.003253213911,0.0006510181063,-0.002602195805,-0.002430387036,7.786226592e-05,-0.00235252477,-0.002690949822,0.0003813600047,-0.002309589818,-0.003059460551,0.0005585484692,-0.002500912082,-0.002882859064,0.0006414251942,-0.00224143387,-0.002811943869,-0.0003907177097,-0.003202661579,-0.001915543689,-6.009407493e-06,-0.001921553097
5.2,-0.002302451684,0.0002554199333,-0.002047031751,-0.00152464508,0.0003264016565,-0.001198243423,-0.001582202412,-0.0001118775803,-0.001694079993,-0.002228686655,0.0002894232189,-0.001939263436,-0.003403417831,0.0004087045325,-0.002994713298,-0.002707693485,0.0004433945952,-0.00226429889,-0.002703445148,0.000414960048,-0.0022884851,-0.002173851266,0.000269730844,-0.001904120422,-0.002628243923,0.0004631422671,-0.002165101656,-0.00206513229,0.0002966979701,-0.00176843432,-0.002517091601,0.000178163371,-0.00233892823,-0.00180562931,-0.0001819421952,-0.001987571505,-0.003176425192,0.000269756272,-0.00290666892,-0.001010860665,-0.000304141992,-0.001315002657,-0.001115727971,-0.0006565711401,-0.001772299111,-0.004289006518,0.0001579576419,-0.004131048876,-0.003951470716,0.0001926939687,-0.003758776747,-0.003054036176,0.0003700478293,-0.002683988347,-0.003469689235,0.000241085043,-0.003228604192,-0.002092391576,0.0003179865374,-0.001774405038,-0.002915812826,0.0003089879222,-0.002606824904,-0.002556513732,0.000175413054,-0.002381100678,-0.00331035304,0.0002236252731,-0.003086727767,-0.002136627107,0.0002340010866,-0.001902626021,-0.0008819114264,-0.0002463599419,-0.001128271368,-0.001373456257,-0.0001270444822,-0.00150050074,-0.001129820156,-0.0003918727651,-0.001521692921,-0.0009614928167,-0.0005643574106,-0.001525850227,-0.002254462473,-3.021646112e-05,-0.002284678934,-0.003248933232,0.0006585992169,-0.002590334015,-0.002407544154,7.900839118e-05,-0.002328535763,-0.002701420046,0.0004182670385,-0.002283153008,-0.003077296507,0.0005956010657,-0.002481695441,-0.002913976914,0.0006560335484,-0.002257943365,-0.002929714159,-0.0003465197048,-0.003276233864,-0.001988895761,3.414231943e-05,-0.001954753442
5.3,-0.002325386518,0.0002664721862,-0.002058914331,-0.001544760447,0.0003353459285,-0.001209414519,-0.001598652839,-0.0001009046944,-0.001699557533,-0.002242959468,0.0002991007224,-0.001943858746,-0.003430552477,0.0004249640674,-0.00300558841,-0.002707212014,0.0004572008829,-0.002250011131,-0.002699491742,0.0004247778302,-0.002274713912,-0.002164750835,0.0002801083445,-0.001884642491,-0.002647594762,0.0004738845312,-0.002173710231,-0.002056594491,0.0003047698476,-0.001751824643,-0.002512099569,0.0001893467607,-0.002322752808,-0.001842616081,-0.0001837385471,-0.002026354628,-0.003196401963,0.0002678605796,-0.002928541383,-0.00105831938,-0.0003004226797,-0.00135874206,-0.001162547243,-0.0006537188038,-0.001816266047,-0.004338937621,0.0001553618837,-0.004183575738,-0.003912521647,0.0001468217749,-0.003765699872,-0.00309340392,0.0003699690687,-0.002723434851,-0.003497930524,0.0002548415823,-0.003243088941,-0.002075267983,0.0003293389452,-0.001745929038,-0.00291899494,0.0003175715937,-0.002601423346,-0.002586297889,0.000185692698,-0.002400605191,-0.003297553005,0.000227968209,-0.003069584796,-0.002137099109,0.0002446197642,-0.001892479345,-0.0009041605057,-0.0002388305227,-0.001142991028,-0.001370882576,-0.0001366202796,-0.001507502856,-0.001149859782,-0.0003880189219,-0.001537878704,-0.0009297752333,-0.0006057352891,-0.001535510522,-0.002239857634,-2.049916359e-05,-0.002260356797,-0.003238676991,0.0006655704806,-0.00257310651,-0.002381842769,8.11603474e-05,-0.002300682421,-0.002708166525,0.0004554922162,-0.002252674309,-0.003089350833,0.0006321443108,-0.002457206522,-0.00294116905,0.0006687988085,-0.002272370242,-0.00303889578,-0.0002991637766,-0.003338059557,-0.002063643984,7.865344813e-05,-0.001984990536
5.4,-0.002343025414,0.0002775824808,-0.002065442933,-0.00156268959,0.0003445641524,-0.001218125438,-0.001609771966,-8.968974613e-05,-0.001699461712,-0.002252890433,0.0003088912607,-0.001943999173,-0.003452977697,0.0004418948344,-0.003011082863,-0.002702838729,0.0004710191687,-0.00223181956,-0.002692384965,0.0004349651223,-0.002257419842,-0.002152895806,0.0002910596539,-0.001861836152,-0.002665934213,0.0004855826258,-0.002180351587,-0.002046544526,0.0003133492108,-0.001733195316,-0.002506224439,0.0002006884013,-0.002305536038,-0.00187512507,-0.0001848658148,-0.002059990885,-0.003214180218,0.0002683126083,-0.00294586761,-0.001102960638,-0.0002967618753,-0.001399722514,-0.001206470751,-0.0006484836433,-0.001854954394,-0.004383172842,0.0001534048579,-0.004229767985,-0.003867205049,0.0001026534248,-0.003764551624,-0.00312732419,0.0003708776309,-0.002756446559,-0.003519870816,0.0002672244819,-0.003252646334,-0.002055709892,0.0003406367166,-0.001715073176,-0.002919567592,0.0003260320312,-0.002593535561,-0.002613105963,0.0001959454745,-0.002417160489,-0.003282183546,0.0002321150973,-0.003050068448,-0.002134539137,0.0002551356303,-0.001879403506,-0.0009235504762,-0.0002312221328,-0.001154772609,-0.00136437896,-0.0001462444907,-0.001510623451,-0.001166037163,-0.0003828985826,-0.001548935746,-0.000887934552,-0.0006499743193,-0.001537908871,-0.002220852159,-1.145458788e-05,-0.002232306746,-0.003222823225,0.0006720592982,-0.002550763926,-0.002353481077,8.435282736e-05,-0.002269128249,-0.002711169869,0.0004928064796,-0.00221836339,-0.003095427676,0.0006678092296,-0.002427618447,-0.002964177729,0.0006797924798,-0.002284385249,-0.003138966026,-0.0002489357598,-0.003387901786,-0.002139297567,0.0001270678583,-0.002012229709
5.5,-0.002355379862,0.0002886841234,-0.002066695738,-0.001578464426,0.0003540260592,-0.001224438367,-0.00161577371,-7.825044917e-05,-0.001694024159,-0.00225859546,0.0003187658064,-0.001939829653,-0.003470861608,0.0004594381792,-0.003011423428,-0.002694609257,0.0004847968024,-0.002209812455,-0.002682227957,0.0004454690955,-0.002236758862,-0.002138371419,0.0003025178649,-0.001835853554,-0.002683337816,0.0004981936029,-0.002185144213,-0.002035076899,0.0003223681611,-0.001712708738,-0.002499744336,0.0002120939397,-0.002287650397,-0.001903111262,-0.0001852913741,-0.002088402636,-0.003229779586,0.000271059593,-0.002958719993,-0.001144660693,-0.0002931809743,-0.001437841667,-0.001247205648,-0.0006409692029,-0.001888174851,-0.004421815522,0.0001521817726,-0.004269633749,-0.003816296201,6.069048098e-05,-0.00375560572,-0.003155795775,0.0003727914633,-0.002783004312,-0.003535458175,0.0002781391037,-0.003257319071,-0.002033878538,0.0003518304135,-0.001682048124,-0.002917831975,0.0003343179005,-0.002583514074,-0.002636959746,0.000206145654,-0.002430814092,-0.003264658754,0.0002360384414,-0.003028620312,-0.002129086114,0.0002655220307,-0.001863564083,-0.0009400755285,-0.000223567283,-0.001163642812,-0.001353976282,-0.0001558997301,-0.001509876012,-0.001178418512,-0.000376688879,-0.001555107391,-0.0008371162163,-0.0006962212059,-0.001533337422,-0.002197567306,-3.128554526e-06,-0.002200695861,-0.003201755307,0.0006782048892,-0.002523550417,-0.002322653838,8.860950963e-05,-0.002234044328,-0.002710397642,0.0005299633655,-0.002180434276,-0.003095399946,0.0007022881562,-0.002393111789,-0.002982751683,0.0006891077656,-0.002293643917,-0.003229505045,-0.0001961073132,-0.003425612359,-0.002215353145,0.0001789004683,-0.002036452677
5.6,-0.00236251011,0.0002997102593,-0.002062799851,-0.001592138737,0.0003636991107,-0.001228439627,-0.001616910632,-6.660757733e-05,-0.001683518209,-0.002260219553,0.0003286939418,-0.001931525611,-0.003484392488,0.0004775300158,-0.003006862472,-0.002682570616,0.0004984804983,-0.002184090117,-0.002669131376,0.0004562336455,-0.00221289773,-0.00212125716,0.0003144101496,-0.00180684701,-0.002699878789,0.0005116672447,-0.002188211544,-0.002022288166,0.0003317543278,-0.001690533838,-0.002492942891,0.0002234696295,-0.002269473261,-0.00192654179,-0.0001849885109,-0.002111530301,-0.003243164247,0.0002760165473,-0.0029671477,-0.001183305527,-0.000289699653,-0.00147300518,-0.001284448633,-0.0006313067169,-0.00191575535,-0.00445497086,0.0001517898053,-0.004303181054,-0.003760527516,2.13465095e-05,-0.003739181007,-0.00317880679,0.000375696703,-0.002803110087,-0.003544654651,0.0002875154982,-0.003257139153,-0.0020099394,0.0003628722699,-0.00164706713,-0.002914104038,0.0003423794064,-0.002571724632,-0.002657899314,0.000216268558,-0.002441630756,-0.003245399776,0.0002397108935,-0.003005688883,-0.002120902444,0.0002757524678,-0.001845149976,-0.000953734058,-0.0002159022859,-0.001169636344,-0.001339705691,-0.0001655728169,-0.001505278508,-0.001187062813,-0.0003695785191,-0.001556641332,-0.0007785479338,-0.0007435743178,-0.001522122252,-0.002170130358,4.460541977e-06,-0.002165669816,-0.003175848299,0.0006841491909,-0.002491699108,-0.002289548696,9.394357749e-05,-0.002195605118,-0.002705800131,0.0005666987471,-0.002139101384,-0.003089199498,0.0007353327759,-0.002353866722,-0.002996641361,0.0006968494677,-0.002299791894,-0.00331017374,-0.0001409342079,-0.003451107948,-0.002291297518,0.0002336504403,-0.002057647077
5.7,-0.002364523212,0.0003105945425,-0.00205392867,-0.001603785954,0.0003735489094,-0.001230237045,-0.001613469798,-5.478512471e-05,-0.001668254923,-0.002257934456,0.000338644305,-0.001919290151,-0.003493775871,0.0004961011954,-0.002997674675,-0.002666780502,0.0005120165341,-0.002154763968,-0.002653211956,0.0004671997878,-0.002186012168,-0.002101626692,0.0003266589165,-0.001774967776,-0.00271562725,0.0005259464057,-0.002189680845,-0.002008276318,0.000341431239,-0.001666845079,-0.002486105198,0.0002347228162,-0.002251382381,-0.001945393668,-0.0001839385968,-0.002129332265,-0.003254248673,0.0002830736671,-0.002971175006,-0.001218791096,-0.0002863358934,-0.00150512699,-0.001317893188,-0.0006196524909,-0.001937545679,-0.004482742708,0.0001523250504,-0.004330417658,-0.00370057965,-1.505597579e-05,-0.003715635625,-0.00319633262,0.0003795470772,-0.002816785543,-0.0035474369,0.0002953092427,-0.003252127657,-0.001984060845,0.0003737164009,-0.001610344444,-0.002908709828,0.0003501688726,-0.002558540956,-0.002675982553,0.0002262903377,-0.002449692215,-0.003224830513,0.0002431055159,-0.002981724997,-0.002110172423,0.0002858006616,-0.001824371761,-0.0009645261527,-0.0002082675681,-0.001172793721,-0.001321599267,-0.0001752535447,-0.001496852812,-0.001192024623,-0.000361762918,-0.001553787541,-0.000713502589,-0.0007911078537,-0.001504610443,-0.002138673238,1.132086614e-05,-0.002127352372,-0.003145458039,0.0006900283406,-0.002455429699,-0.002254343079,0.0001003574641,-0.002153985615,-0.002697308936,0.0006027304317,-0.002094578504,-0.003076805339,0.0007667459405,-0.002310059398,-0.003005597704,0.000703125687,-0.002302472017,-0.003380696919,-8.365526059e-05,-0.00346435218,-0.002366610649,0.0002908110144,-0.002075799634
5.8,-0.002361571752,0.0003212718363,-0.002040299916,-0.001613497359,0.0003835397318,-0.001229957627,-0.00160577035,-4.281041104e-05,-0.001648580761,-0.002251937398,0.0003485851681,-0.00190335223,-0.003499233083,0.0005150779476,-0.002984155136,-0.002647307583,0.0005253509703,-0.002121956612,-0.002634592003,0.0004783060461,-0.002156285957,-0.002079548993,0.0003391829365,-0.001740366057,-0.002730650331,0.0005409674828,-0.002189682848,-0.001993141039,0.0003513187787,-0.001641822261,-0.002479514994,0.0002457624037,-0.00223375259,-0.001959653391,-0.000182133317,-0.002141786708,-0.003262905336,0.0002921021613,-0.002970803175,-0.001251025522,-0.0002831060715,-0.001534131593,-0.001347239886,-0.0006061848215,-0.001953424707,-0.00450523255,0.0001538794633,-0.004351353087,-0.00363708286,-4.828062836e-05,-0.003685363488,-0.003208337167,0.0003842649276,-0.002824072239,-0.003543799529,0.0003015001489,-0.00324229938,-0.001956413802,0.000384318967,-0.001572094835,-0.002901982334,0.0003576412379,-0.002544341096,-0.002691285633,0.0002361878001,-0.002455097833,-0.003203375033,0.0002461960027,-0.002957179031,-0.002097101269,0.0002956406498,-0.001801460619,-0.0009724526183,-0.0002007078372,-0.001173160455,-0.001299691911,-0.0001849332804,-0.001484625192,-0.001193358361,-0.0003534379954,-0.001546796356,-0.0006432677207,-0.0008378929963,-0.001481160717,-0.002103333156,1.748575609e-05,-0.0020858474,-0.003110914236,0.0006959664315,-0.002414947805,-0.002217202684,0.0001078426658,-0.002109360018,-0.002684838769,0.0006377587244,-0.002047080045,-0.003058233533,0.0007963710394,-0.002261862493,-0.003009374278,0.0007080418283,-0.002301332449,-0.003440855961,-2.449072366e-05,-0.003465346685,-0.00244076914,0.0003498760908,-0.002090893049
5.9,-0.002353852906,0.0003316788535,-0.002022174052,-0.001621380602,0.0003936350953,-0.001227745507,-0.001594161959,-3.071416346e-05,-0.001624876123,-0.002242450545,0.0003584850588,-0.001883965486,-0.003501000618,0.0005343823784,-0.00296661824,-0.002624232492,0.0005384299645,-0.002085802528,-0.002613399571,0.0004894888853,-0.002123910685,-0.002055090316,0.0003518984112,-0.001703191905,-0.002745012887,0.0005566610609,-0.002188351826,-0.001976984572,0.0003613338106,-0.001615650761,-0.002473452545,0.000256499395,-0.00221695315,-0.001969318108,-0.0001795761771,-0.002148894285,-0.003268972754,0.0003029576796,-0.002966015074,-0.001279932208,-0.0002800249827,-0.00155995719,-0.001372207391,-0.0005911011229,-0.001963308513,-0.004522539408,0.0001565376243,-0.004366001784,-0.003570624634,-7.816754479e-05,-0.003648792179,-0.003214777016,0.0003897443086,-0.002825032708,-0.003533759863,0.0003060894071,-0.003227670456,-0.001927172138,0.0003946383716,-0.001532533767,-0.002894259248,0.0003647545479,-0.0025295047,-0.002703903839,0.0002459382987,-0.002457965541,-0.003181455597,0.0002489568836,-0.002932498714,-0.0020819143,0.0003052468932,-0.001776667407,-0.0009775153369,-0.0001932719973,-0.001170787334,-0.001274024114,-0.0001946036552,-0.001468627769,-0.00119112339,-0.0003447929887,-0.001535916379,-0.0005691222974,-0.0008830190086,-0.001452141306,-0.002064254036,2.301143118e-05,-0.002041242605,-0.003072516883,0.0007020717036,-0.00237044518,-0.00217828207,0.0001163807565,-0.002061901313,-0.002668291683,0.0006714688814,-0.001996822802,-0.003033531392,0.0008240825563,-0.002209448836,-0.003007730404,0.0007116955756,-0.002296034829,-0.003490489889,3.635920142e-05,-0.003454130688,-0.002513250214,0.0004103445012,-0.002102905713
6.0,-0.002341607127,0.0003417546732,-0.001999852454,-0.001627558184,0.0004037983009,-0.001223759883,-0.001579022911,-1.853053141e-05,-0.001597553442,-0.002229720332,0.0003683133366,-0.001861406995,-0.00349932934,0.0005539330249,-0.002945396315,-0.002597648772,0.0005512001323,-0.00204644864,-0.002589768793,0.0005006832478,-0.002089085545,-0.002028316248,0.000364719811,-0.001663596437,-0.002758778222,0.0005729526847,-0.002185825538,-0.001959912559,0.0003713909162,-0.001588521643,-0.002468192384,0.0002668474929,-0.002201344891,-0.001974397677,-0.0001762828599,-0.002150680537,-0.003272262471,0.0003154823259,-0.002956780146,-0.001305452498,-0.0002771057618,-0.001582558259,-0.001392541566,-0.0005746155911,-0.001967157157,-0.004534759372,0.0001603731826,-0.004374386189,-0.003501757781,-0.0001046217586,-0.003606379539,-0.003215607762,0.0003958564579,-0.002819751304,-0.003517362422,0.0003090964246,-0.003208265997,-0.001896512986,0.0004046354196,-0.001491877567,-0.002885880545,0.0003714703625,-0.002514410182,-0.002713951947,0.000255519621,-0.002458432326,-0.003159489857,0.0002513637461,-0.002908126111,-0.002064855572,0.0003145943838,-0.001750261188,-0.0009797183518,-0.0001860127853,-0.001165731137,-0.001244644923,-0.0002042554252,-0.001448900348,-0.001185388573,-0.0003360033996,-0.001521391973,-0.0004923205671,-0.0009256143429,-0.00141793491,-0.002021587244,2.797374009e-05,-0.001993613504,-0.003030534512,0.0007084343485,-0.002322100164,-0.002137726678,0.0001259459127,-0.002011780765,-0.002647562517,0.0007035360426,-0.001944026475,-0.003002775819,0.0008497800282,-0.002152995791,-0.003000433687,0.0007141722544,-0.002286261432,-0.003529497916,9.871397613e-05,-0.00343078394,-0.002583535631,0.0004717223837,-0.002111813247
6.1,-0.002325115619,0.0003514411671,-0.001973674451,-0.001632165438,0.0004139929499,-0.001218172488,-0.001560756446,-6.296971836e-06,-0.001567053418,-0.002214015663,0.0003780406328,-0.00183597503,-0.003494482475,0.000573645453,-0.002920837022,-0.002567662752,0.0005636087627,-0.00200405399,-0.002563839693,0.0005118231772,-0.002052016516,-0.001999292984,0.0003775603332,-0.001621732651,-0.002772008161,0.0005897636386,-0.002182244523,-0.001942034157,0.0003814031028,-0.001560631054,-0.002463999952,0.0002767236526,-0.0021872763,-0.00197491618,-0.0001722807724,-0.002147196952,-0.003272564064,0.000329507134,-0.00294305693,-0.001327546476,-0.0002743597811,-0.001601906257,-0.001408020632,-0.0005569570653,-0.001964977697,-0.004541983791,0.0001654450762,-0.004376538715,-0.003431004185,-0.0001276019875,-0.003558606172,-0.003210791075,0.0004024574517,-0.002808333623,-0.003494680951,0.0003105563125,-0.003184124639,-0.0018646163,0.0004142734138,-0.001450342886,-0.002877184735,0.0003777540286,-0.002499430706,-0.002721563346,0.0002649098752,-0.002456653471,-0.003137885935,0.0002533935227,-0.002884492412,-0.002046185352,0.0003236587759,-0.001722526576,-0.0009790687826,-0.000178986167,-0.00115805495,-0.001211614075,-0.0002138775754,-0.00142549165,-0.001176234714,-0.0003272253276,-0.001503460042,-0.0004140807916,-0.0009648657137,-0.001378946505,-0.001975490695,3.246460419e-05,-0.00194302609,-0.002985203328,0.0007151252468,-0.002270078081,-0.002095674395,0.0001365081888,-0.001959166206,-0.00262254463,0.000733632794,-0.001888911836,-0.002966072993,0.000873385207,-0.002092687786,-0.002987262023,0.0007155417668,-0.002271720256,-0.003557835924,0.0001624104151,-0.003395425509,-0.00265111365,0.0005335229518,-0.002117590698
6.2,-0.002304695969,0.0003606833936,-0.001944012576,-0.001635347587,0.0004241834263,-0.001211164161,-0.001539784442,5.94596225e-06,-0.001533838479,-0.002195624306,0.0003876390844,-0.001807985222,-0.003486731712,0.0005934328469,-0.002893298865,-0.002534391738,0.0005756037354,-0.001958788002,-0.002535756919,0.0005228424559,-0.002012914463,-0.001968087325,0.0003903320317,-0.001577755294,-0.002784762061,0.0006070116743,-0.002177750386,-0.00192346095,0.0003912823873,-0.001532178563,-0.002461126607,0.0002860484984,-0.002175078108,-0.001970911338,-0.0001676084931,-0.002138519831,-0.003269647914,0.000344855762,-0.002924792152,-0.001346191274,-0.000271796618,-0.001617987892,-0.001418455405,-0.0005383665488,-0.001956821954,-0.004544295536,0.0001717936241,-0.004372501912,-0.003358852393,-0.0001471105045,-0.003505962897,-0.00320030049,0.0004093970666,-0.002790903423,-0.00346581605,0.0003105181251,-0.003155297925,-0.001831663312,0.000423518287,-0.001408145025,-0.002868503306,0.0003835749068,-0.0024849284,-0.002726887658,0.0002740874672,-0.00245280019,-0.003117035078,0.0002550248287,-0.002862010249,-0.002026176198,0.0003324165333,-0.001693759664,-0.0009755767222,-0.0001722505824,-0.001147827305,-0.001175002354,-0.0002234568547,-0.001398459209,-0.001163753895,-0.0003185919385,-0.001482345833,-0.0003355750548,-0.001000032545,-0.0013356076,-0.001926126228,3.658891572e-05,-0.001889537312,-0.002936727096,0.000722195495,-0.002214531601,-0.002052254527,0.0001480361828,-0.001904218345,-0.002593135549,0.0007614388173,-0.001831696732,-0.002923556631,0.000894841185,-0.002028715446,-0.002968005047,0.0007158580741,-0.002252146973,-0.003575505443,0.0002273001046,-0.003348205338,-0.002715477802,0.0005952633488,-0.002120214453
6.3,-0.002280696004,0.0003694299563,-0.001911266048,-0.001637255772,0.0004343352862,-0.001202920486,-0.001516538812,1.81548108e-05,-0.001498384001,-0.002174847624,0.0003970823454,-0.001777765278,-0.003476351779,0.000613206535,-0.002863145244,-0.002497960763,0.0005871331836,-0.001910827579,-0.002505667421,0.0005336751999,-0.001971992221,-0.001934765629,0.0004029458658,-0.001531819763,-0.00279709495,0.0006246117212,-0.002172483229,-0.001904304932,0.000400940302,-0.00150336463,-0.002459803477,0.0002947466149,-0.002165056863,-0.001962431644,-0.0001623155887,-0.002124747233,-0.003263266989,0.000361348778,-0.002901918211,-0.001361377678,-0.0002694241076,-0.001630801785,-0.001423685548,-0.0005190942154,-0.001942779764,-0.004541763558,0.0001794366595,-0.004362326898,-0.003285749497,-0.0001631843473,-0.003448933844,-0.00318412447,0.0004165274187,-0.002767597051,-0.003430888389,0.0003090435286,-0.00312184486,-0.001797834222,0.0004323388386,-0.001365495384,-0.002860154014,0.0003889066432,-0.002471247371,-0.002730087317,0.0002830311896,-0.002447056127,-0.003097303246,0.000256238241,-0.002841065005,-0.002005108196,0.0003408450431,-0.001664263153,-0.000969253894,-0.0001658661765,-0.001135120071,-0.001134890061,-0.0002329778288,-0.00136786789,-0.001148046195,-0.0003102120038,-0.001458258199,-0.0002579171763,-0.001030455164,-0.00128837234,-0.00187365581,4.046191104e-05,-0.001833193899,-0.002885278312,0.0007296767189,-0.002155601593,-0.002007583458,0.0001604980824,-0.001847085375,-0.002559242138,0.0007866510513,-0.001772591086,-0.002875383783,0.0009141128001,-0.001961270983,-0.002942464482,0.0007151609879,-0.002227303494,-0.003582539961,0.0002932463044,-0.003289293656,-0.00277612505,0.0006564610755,-0.002119663975
6.4,-0.002253486762,0.0003776332706,-0.001875853492,-0.001638042552,0.0004444155033,-0.001193627049,-0.00149145243,3.028331077e-05,-0.001461169119,-0.002151994737,0.0004063454562,-0.001745649281,-0.003463614791,0.0006328764509,-0.00283073834,-0.002458499025,0.0005981451009,-0.001860353924,-0.00247371777,0.0005442564284,-0.001929461342,-0.001899392697,0.0004153119717,-0.001484080725,-0.002809055556,0.0006424766451,-0.002166578911,-0.001884676394,0.0004102884137,-0.00147438798,-0.002460235503,0.0003027467624,-0.00215748874,-0.001949532828,-0.0001564627594,-0.002105995587,-0.003253160204,0.0003788074697,-0.002874352734,-0.001373106989,-0.0002672484676,-0.001640355456,-0.001423574766,-0.0004993962129,-0.001922970979,-0.00453443732,0.0001883663117,-0.004346071008,-0.00321208892,-0.0001758881461,-0.003387977066,-0.003162267192,0.0004237098985,-0.002738557293,-0.003390030354,0.0003062057699,-0.003083824584,-0.001763305897,0.000440706988,-0.001322598909,-0.002852434517,0.0003937274152,-0.002458707102,-0.002731334109,0.0002917202962,-0.002439613813,-0.003079023921,0.0002570164055,-0.002822007515,-0.001983264382,0.0003489226404,-0.001634341742,-0.0009601118416,-0.0001598941373,-0.001120005979,-0.001091364602,-0.0002424232977,-0.001333787899,-0.001129215771,-0.0003021695226,-0.001431385294,-0.0001821483212,-0.001055558558,-0.001237706879,-0.001818237598,4.420638014e-05,-0.001774031218,-0.002831001555,0.0007375820472,-0.002093419508,-0.00196175868,0.0001738611853,-0.001787897495,-0.002520784552,0.0008089921646,-0.001711792388,-0.002821727731,0.000931187034,-0.001890540697,-0.002910453972,0.0007134796864,-0.002196974286,-0.003578993941,0.0003601169701,-0.003218876971,-0.002832557905,0.0007166338406,-0.002115924064
6.5,-0.002223455931,0.0003852497359,-0.001838206195,-0.001637857798,0.00045439262,-0.001183465178,-0.001464951714,4.228246983e-05,-0.001422669244,-0.002127377476,0.0004154047253,-0.00171197275,-0.003448785887,0.0006523515982,-0.002796434289,-0.00241613724,0.0006085870795,-0.001807550161,-0.002440052073,0.0005545226266,-0.001885529447,-0.001862031693,0.0004273403012,-0.001434691392,-0.002820685029,0.0006605180695,-0.00216016696,-0.001864682623,0.0004192388872,-0.001445443736,-0.002462596972,0.0003099820306,-0.002152614942,-0.001932275945,-0.0001501217978,-0.002082397743,-0.003239059084,0.0003970558293,-0.002842003255,-0.001381389905,-0.0002652745216,-0.001646664426,-0.00141800866,-0.000479531447,-0.001897540107,-0.004522343241,0.0001985474154,-0.004323795825,-0.003138196663,-0.0001853090405,-0.003323505704,-0.003134749021,0.0004308194018,-0.002703929619,-0.003343380377,0.0003020892099,-0.003041291167,-0.001728250321,0.0004485979031,-0.001279652418,-0.002845617741,0.0003980200031,-0.002447597738,-0.002730806524,0.0003001344364,-0.002430672088,-0.003062493818,0.0002573439801,-0.002805149838,-0.001960927197,0.0003566285431,-0.001604298654,-0.0009481608884,-0.0001543961527,-0.001102557041,-0.001044518594,-0.0002517748726,-0.001296293467,-0.0011073682,-0.0002945232716,-0.001401891472,-0.0001092213732,-0.001074856121,-0.001184077495,-0.001760023143,4.794928435e-05,-0.001712073859,-0.002774019655,0.0007459074729,-0.002028112182,-0.001914853884,0.0001880905647,-0.001726763319,-0.002477699054,0.0008282160597,-0.001649482994,-0.002762769045,0.0009460717753,-0.001816697269,-0.002871800125,0.0007108371868,-0.002160962938,-0.003564936638,0.000427771031,-0.003137165607,-0.002884291818,0.000775303785,-0.002108988033
6.6,-0.002191002701,0.0003922399034,-0.001798762798,-0.001636845744,0.0004642369143,-0.00117260883,-0.001437452087,5.410069093e-05,-0.001383351396,-0.00210130698,0.0004242377381,-0.001677069242,-0.003432120899,0.0006715405839,-0.002760580315,-0.002371006696,0.0006184062693,-0.001752600427,-0.002404811137,0.0005644122822,-0.001840398855,-0.001822745597,0.0004389414912,-0.001383804105,-0.002832016819,0.0006786472238,-0.002153369595,-0.001844427853,0.0004277050628,-0.00141672279,-0.002467029239,0.0003163899379,-0.002150639301,-0.00191072846,-0.0001433746952,-0.002054103156,-0.003220697437,0.000415919565,-0.002804777872,-0.001386248066,-0.0002635060363,-0.001649754102,-0.001406897506,-0.0004597580139,-0.00186665552,-0.004505484535,0.0002099181124,-0.004295566422,-0.003064319411,-0.0001915538528,-0.003255873264,-0.003101608536,0.0004377460066,-0.002663862529,-0.003291082874,0.0002967896178,-0.002994293256,-0.001692834261,0.0004559900205,-0.001236844241,-0.002839949581,0.0004017716735,-0.002438177907,-0.002728688342,0.0003082535014,-0.00242043484,-0.003047971848,0.0002572075293,-0.002790764319,-0.001938376268,0.000363942763,-0.001574433505,-0.0009334107032,-0.0001494339229,-0.001082844626,-0.0009944493862,-0.0002610136131,-0.001255462999,-0.001082609623,-0.000287306215,-0.001369915838,-3.998554228e-05,-0.001087954882,-0.001127940424,-0.001699156773,5.181804657e-05,-0.001647338726,-0.002714442622,0.0007546335993,-0.001959809022,-0.001866916503,0.0002031471349,-0.001663769369,-0.002429941029,0.0008441109233,-0.001585830105,-0.002698688842,0.0009587937612,-0.001739895081,-0.002826346178,0.0007072545708,-0.002119091607,-0.003540451371,0.0004960392185,-0.003044412153,-0.002930865597,0.0008320040695,-0.002098861528
6.7,-0.002156534311,0.0003985687296,-0.001757965581,-0.001635143464,0.0004739206249,-0.001161222839,-0.001409356318,6.568397486e-05,-0.001343672343,-0.002074092113,0.0004328235056,-0.001641268607,-0.003413866,0.000690352227,-0.002723513773,-0.002323240127,0.0006275495885,-0.001695690538,-0.00236813297,0.0005738663581,-0.001794266612,-0.001781599996,0.0004500277334,-0.001331572263,-0.002843077696,0.0006967758077,-0.002146301889,-0.001824014393,0.0004356020711,-0.001388412322,-0.002473640521,0.0003219125321,-0.002151727989,-0.001884968326,-0.0001363115525,-0.002021279878,-0.003197823219,0.0004352227732,-0.002762600446,-0.001387717797,-0.0002619461045,-0.001649663902,-0.001390183584,-0.0004403289109,-0.001830512495,-0.004483844454,0.000222392292,-0.004261452162,-0.002990617597,-0.0001947482616,-0.003185365859,-0.003062906856,0.0004443952229,-0.002618511634,-0.003233294005,0.0002904149547,-0.00294287905,-0.001657220262,0.0004628651343,-0.001194355128,-0.002835648787,0.0004049740151,-0.002430674772,-0.002725168399,0.0003160575659,-0.002409110833,-0.003035680658,0.0002565954738,-0.002779085184,-0.001915887353,0.0003708460647,-0.001545041288,-0.0009158725714,-0.000145068701,-0.001060941272,-0.0009412600227,-0.0002701206602,-0.001211380683,-0.001055047319,-0.0002805257036,-0.001335573022,2.48269353e-05,-0.001094559749,-0.001069732813,-0.00163577743,5.593715156e-05,-0.001579840278,-0.002652378675,0.0007637283155,-0.00188865036,-0.001817967545,0.0002189850315,-0.001598982514,-0.002377489643,0.0008565014928,-0.00152098815,-0.0026296686,0.0009693982285,-0.001660270371,-0.002773958751,0.0007027541798,-0.002071204571,-0.003505641665,0.0005647046053,-0.002940937059,-0.002971852665,0.0008862867696,-0.002085565896
