Time,S1D1HbO,S1D1HbR,S1D1HbT,S2D2HbO,S2D2HbR,S2D2HbT,S3D3HbO,S3D3HbR,S3D3HbT,S4D4HbO,S4D4HbR,S4D4HbT,S5D5HbO,S5D5HbR,S5D5HbT,S6D6HbO,S6D6HbR,S6D6HbT,S7D7HbO,S7D7HbR,S7D7HbT,S8D8HbO,S8D8HbR,S8D8HbT,S9D9HbO,S9D9HbR,S9D9HbT,S10D10HbO,S10D10HbR,S10D10HbT,S11D11HbO,S11D11HbR,S11D11HbT,S12D12HbO,S12D12HbR,S12D12HbT,S13D13HbO,S13D13HbR,S13D13HbT,S14D14HbO,S14D14HbR,S14D14HbT,S15D15HbO,S15D15HbR,S15D15HbT,S16D16HbO,S16D16HbR,S16D16HbT,S17D17HbO,S17D17HbR,S17D17HbT,S18D18HbO,S18D18HbR,S18D18HbT,S19D19HbO,S19D19HbR,S19D19HbT,S20D20HbO,S20D20HbR,S20D20HbT,S21D21HbO,S21D21HbR,S21D21HbT,S22D22HbO,S22D22HbR,S22D22HbT,S23D23HbO,S23D23HbR,S23D23HbT,S24D24HbO,S24D24HbR,S24D24HbT,S25D25HbO,S25D25HbR,S25D25HbT,S26D26HbO,S26D26HbR,S26D26HbT,S27D27HbO,S27D27HbR,S27D27HbT,S28D28HbO,S28D28HbR,S28D28HbT,S29D29HbO,S29D29HbR,S29D29HbT,S30D30HbO,S30D30HbR,S30D30HbT,S31D31HbO,S31D31HbR,S31D31HbT,S32D32HbO,S32D32HbR,S32D32HbT,S33D33HbO,S33D33HbR,S33D33HbT,S34D34HbO,S34D34HbR,S34D34HbT,S35D35HbO,S35D35HbR,S35D35HbT,S36D36HbO,S36D36HbR,S36D36HbT,
-10,-3.765296558e-04,6.284122189e-07,-3.759012436e-04,-1.530999040e-04,1.297868835e-04,-2.331302052e-05,-2.540709253e-04,1.492015903e-05,-2.391507662e-04,-3.702054353e-04,-5.132255538e-06,-3.753376909e-04,-7.674618391e-04,1.073674924e-04,-6.600943467e-04,-1.477232165e-03,2.332598711e-04,-1.243972294e-03,-9.405524531e-04,9.916415145e-05,-8.413883017e-04,-1.322914120e-03,1.378824226e-04,-1.185031697e-03,-8.333635425e-04,2.935242974e-05,-8.040111128e-04,-8.575877003e-04,7.513488470e-05,-7.824528156e-04,-6.255430416e-04,1.574140472e-05,-6.098016369e-04,-1.495990601e-03,3.325855049e-05,-1.462732050e-03,-1.246972762e-03,5.328066274e-05,-1.193692099e-03,-9.838277817e-04,1.204367038e-04,-8.633910779e-04,-9.792285774e-04,1.331794397e-04,-8.460491376e-04,-1.892088371e-03,1.290393584e-04,-1.763049012e-03,-2.269603124e-03,2.157687004e-04,-2.053834424e-03,-8.785815067e-04,1.063466974e-04,-7.722348092e-04,-1.350579329e-03,1.794562860e-04,-1.171123043e-03,-1.030239472e-03,1.642625110e-04,-8.659769608e-04,-5.125064500e-04,1.389576857e-05,-4.986106814e-04,-6.490414262e-04,-1.544915079e-06,-6.505863412e-04,7.292272017e-05,-7.358881270e-06,6.556383890e-05,-5.653979726e-04,-2.300587104e-04,-7.954566831e-04,-1.410904831e-03,1.747950202e-04,-1.236109811e-03,-9.732582063e-04,2.105599511e-04,-7.626982552e-04,-9.533197309e-04,-2.101308678e-04,-1.163450599e-03,-8.797127060e-04,1.393737674e-04,-7.403389387e-04,-7.536337648e-04,-4.712436406e-05,-8.007581289e-04,-1.686393511e-03,4.004056929e-05,-1.646352941e-03,-8.357192558e-04,8.968933748e-05,-7.460299183e-04,-1.536287725e-03,6.400841337e-05,-1.472279312e-03,-1.076383624e-03,4.835307704e-05,-1.028030547e-03,-1.774379396e-03,5.468672132e-06,-1.768910723e-03,-1.208431600e-03,-6.668382094e-06,-1.215099982e-03,-1.357223629e-03,-3.995645907e-04,-1.756788220e-03
-9.9,-3.759020599e-04,4.562667354e-06,-3.713393926e-04,-1.555733657e-04,1.310053321e-04,-2.456803360e-05,-2.530394825e-04,1.855750806e-05,-2.344819744e-04,-3.601572436e-04,-2.898127410e-06,-3.630553710e-04,-7.604154692e-04,1.077504061e-04,-6.526650632e-04,-1.448024916e-03,2.324867947e-04,-1.215538121e-03,-9.337793470e-04,9.750799060e-05,-8.362713564e-04,-1.316698945e-03,1.394261159e-04,-1.177272829e-03,-8.275141566e-04,2.841915626e-05,-7.990950003e-04,-8.596610317e-04,7.424551873e-05,-7.854155130e-04,-6.253853189e-04,1.721796699e-05,-6.081673519e-04,-1.475956045e-03,3.579332700e-05,-1.440162718e-03,-1.256827628e-03,6.813887364e-05,-1.188688754e-03,-9.705645697e-04,1.200894566e-04,-8.504751130e-04,-9.767543613e-04,1.279215966e-04,-8.488327646e-04,-1.874279745e-03,1.296162307e-04,-1.744663515e-03,-2.256517346e-03,2.235953093e-04,-2.032922037e-03,-8.769970827e-04,1.046165349e-04,-7.723805478e-04,-1.350030458e-03,1.763166445e-04,-1.173713813e-03,-1.029963077e-03,1.613755908e-04,-8.685874866e-04,-5.198788066e-04,1.648765383e-05,-5.033911528e-04,-6.533205404e-04,1.699038888e-06,-6.516215015e-04,5.943792998e-05,-8.700907672e-06,5.073702231e-05,-5.497016267e-04,-2.194664206e-04,-7.691680473e-04,-1.407323017e-03,1.744809084e-04,-1.232842108e-03,-9.606474873e-04,2.027346411e-04,-7.579128463e-04,-9.650405197e-04,-2.007956894e-04,-1.165836209e-03,-8.771864502e-04,1.377368947e-04,-7.394495554e-04,-7.661794347e-04,-4.590285503e-05,-8.120822898e-04,-1.686322387e-03,4.401331747e-05,-1.642309070e-03,-8.558867375e-04,8.073058816e-05,-7.751561493e-04,-1.529661155e-03,5.336197977e-05,-1.476299176e-03,-1.077951140e-03,4.817504762e-05,-1.029776092e-03,-1.785564999e-03,1.410222579e-05,-1.771462773e-03,-1.213144013e-03,-8.794336149e-06,-1.221938349e-03,-1.348836569e-03,-3.887385596e-04,-1.737575129e-03
-9.8,-3.748795087e-04,8.141501054e-06,-3.667380077e-04,-1.589124799e-04,1.322396199e-04,-2.667285997e-05,-2.515334209e-04,2.226233682e-05,-2.292710840e-04,-3.515369954e-04,-7.281868489e-07,-3.522651823e-04,-7.530650414e-04,1.079969600e-04,-6.450680814e-04,-1.418880202e-03,2.318531260e-04,-1.187027076e-03,-9.268417313e-04,9.588857463e-05,-8.309531567e-04,-1.308879095e-03,1.408036691e-04,-1.168075426e-03,-8.217920784e-04,2.748360436e-05,-7.943084740e-04,-8.612594831e-04,7.347376007e-05,-7.877857230e-04,-6.251121787e-04,1.866346715e-05,-6.064487115e-04,-1.455721329e-03,3.884255275e-05,-1.416878776e-03,-1.267464573e-03,8.380538903e-05,-1.183659184e-03,-9.572596282e-04,1.196300798e-04,-8.376295484e-04,-9.743353927e-04,1.222103514e-04,-8.521250413e-04,-1.855226251e-03,1.295789865e-04,-1.725647265e-03,-2.241308926e-03,2.304053687e-04,-2.010903558e-03,-8.753693961e-04,1.027371213e-04,-7.726322748e-04,-1.348102482e-03,1.721367899e-04,-1.175965692e-03,-1.029153192e-03,1.587016919e-04,-8.704515003e-04,-5.270417716e-04,1.922463410e-05,-5.078171375e-04,-6.576893998e-04,4.888928892e-06,-6.528004709e-04,4.663495776e-05,-9.768361317e-06,3.686659644e-05,-5.335454743e-04,-2.090054365e-04,-7.425509107e-04,-1.402348484e-03,1.735901723e-04,-1.228758312e-03,-9.473138253e-04,1.947879748e-04,-7.525258505e-04,-9.779901516e-04,-1.900496842e-04,-1.168039836e-03,-8.744223533e-04,1.358081927e-04,-7.386141606e-04,-7.787036482e-04,-4.433846320e-05,-8.230421114e-04,-1.685618226e-03,4.792421539e-05,-1.637694011e-03,-8.766291559e-04,7.152406491e-05,-8.051050910e-04,-1.523061983e-03,4.277548160e-05,-1.480286501e-03,-1.079599146e-03,4.788214573e-05,-1.031717000e-03,-1.794167516e-03,2.223792196e-05,-1.771929594e-03,-1.217365179e-03,-1.078004652e-05,-1.228145226e-03,-1.341053494e-03,-3.777147964e-04,-1.718768290e-03
-9.7,-3.733552040e-04,1.136445935e-05,-3.619907446e-04,-1.630072212e-04,1.334555290e-04,-2.955169220e-05,-2.495979027e-04,2.600503932e-05,-2.235928634e-04,-3.442968773e-04,1.371022260e-06,-3.429258550e-04,-7.454291486e-04,1.080992856e-04,-6.373298630e-04,-1.389813983e-03,2.313370308e-04,-1.158476952e-03,-9.197156912e-04,9.431288750e-05,-8.254028037e-04,-1.299488703e-03,1.420228524e-04,-1.157465851e-03,-8.161651717e-04,2.655150081e-05,-7.896136708e-04,-8.623340029e-04,7.282143183e-05,-7.895125711e-04,-6.246850987e-04,2.007949012e-05,-6.046056086e-04,-1.435341771e-03,4.235407556e-05,-1.392987695e-03,-1.278652020e-03,1.000850387e-04,-1.178566982e-03,-9.439526642e-04,1.190329160e-04,-8.249197482e-04,-9.719041319e-04,1.160718080e-04,-8.558323238e-04,-1.835007203e-03,1.289509240e-04,-1.706056279e-03,-2.223934244e-03,2.361015101e-04,-1.987832733e-03,-8.737941730e-04,1.008009335e-04,-7.729932395e-04,-1.344742102e-03,1.668711040e-04,-1.177870999e-03,-1.027770837e-03,1.562499548e-04,-8.715208818e-04,-5.339037523e-04,2.209604285e-05,-5.118077095e-04,-6.620781580e-04,8.017579740e-06,-6.540605783e-04,3.461266792e-05,-1.054386599e-05,2.406880193e-05,-5.169555061e-04,-1.987115003e-04,-7.156670064e-04,-1.395922633e-03,1.721153434e-04,-1.223807289e-03,-9.332722454e-04,1.867352452e-04,-7.465370003e-04,-9.921557426e-04,-1.779194422e-04,-1.170075185e-03,-8.714349438e-04,1.335973164e-04,-7.378376274e-04,-7.911790338e-04,-4.243307385e-05,-8.336121077e-04,-1.684247479e-03,5.175938307e-05,-1.632488096e-03,-8.978532452e-04,6.211477685e-05,-8.357384684e-04,-1.516462505e-03,3.235627911e-05,-1.484106225e-03,-1.081380161e-03,4.749256342e-05,-1.033887597e-03,-1.800071576e-03,2.975971396e-05,-1.770311862e-03,-1.221044826e-03,-1.262393532e-05,-1.233668761e-03,-1.334075580e-03,-3.664809958e-04,-1.700556576e-03
-9.6,-3.712219632e-04,1.423419927e-05,-3.569877640e-04,-1.677441158e-04,1.346187941e-04,-3.312532171e-05,-2.472776475e-04,2.975631229e-05,-2.175213353e-04,-3.383819810e-04,3.394115703e-06,-3.349878653e-04,-7.375237753e-04,1.080511040e-04,-6.294726712e-04,-1.360835741e-03,2.309146855e-04,-1.129921056e-03,-9.123777146e-04,9.278735543e-05,-8.195903591e-04,-1.288570024e-03,1.430940491e-04,-1.145475975e-03,-8.105971596e-04,2.562851490e-05,-7.849686447e-04,-8.628360490e-04,7.228918599e-05,-7.905468630e-04,-6.240617969e-04,2.146814931e-05,-6.025936476e-04,-1.414858051e-03,4.626294438e-05,-1.368595107e-03,-1.290122537e-03,1.167475580e-04,-1.173374979e-03,-9.306827732e-04,1.182745211e-04,-8.124082521e-04,-9.693921793e-04,1.095378638e-04,-8.598543156e-04,-1.813710057e-03,1.277651159e-04,-1.685944942e-03,-2.204361479e-03,2.406048768e-04,-1.963756603e-03,-8.723587450e-04,9.889338199e-05,-7.734653630e-04,-1.339926182e-03,1.604968238e-04,-1.179429358e-03,-1.025776772e-03,1.540277407e-04,-8.717490310e-04,-5.403721394e-04,2.509000549e-05,-5.152821339e-04,-6.664155621e-04,1.107801734e-05,-6.553375448e-04,2.345972592e-05,-1.101307560e-05,1.244665032e-05,-4.999592074e-04,-1.886161338e-04,-6.885753412e-04,-1.387999206e-03,1.700556314e-04,-1.217943574e-03,-9.185430832e-04,1.785906900e-04,-7.399523932e-04,-1.007509302e-03,-1.644437618e-04,-1.171953064e-03,-8.682281177e-04,1.311122566e-04,-7.371158612e-04,-8.035791353e-04,-4.019572899e-05,-8.437748642e-04,-1.682173278e-03,5.550420018e-05,-1.626669078e-03,-9.194539601e-04,5.254293670e-05,-8.669110234e-04,-1.509835831e-03,2.222194822e-05,-1.487613883e-03,-1.083339552e-03,4.701671158e-05,-1.036322840e-03,-1.803197112e-03,3.656441695e-05,-1.766632695e-03,-1.224128284e-03,-1.433103418e-05,-1.238459318e-03,-1.328122385e-03,-3.550017496e-04,-1.683124135e-03
-9.5,-3.683733464e-04,1.675625993e-05,-3.516170864e-04,-1.730072840e-04,1.356952541e-04,-3.731202983e-05,-2.446169600e-04,3.348725819e-05,-2.111297018e-04,-3.337308936e-04,5.336938210e-06,-3.283939554e-04,-7.293627066e-04,1.078476486e-04,-6.215150581e-04,-1.331948998e-03,2.305603451e-04,-1.101388653e-03,-9.048046562e-04,9.131775451e-05,-8.134869016e-04,-1.276172409e-03,1.440292974e-04,-1.132143112e-03,-8.050486725e-04,2.472012296e-05,-7.803285495e-04,-8.627182832e-04,7.187652607e-05,-7.908417571e-04,-6.231972622e-04,2.283198078e-05,-6.003652815e-04,-1.394297137e-03,5.049274273e-05,-1.343804395e-03,-1.301584257e-03,1.335393832e-04,-1.168044874e-03,-9.174883292e-04,1.173334344e-04,-8.001548948e-04,-9.667313973e-04,1.026452771e-04,-8.640861201e-04,-1.791428477e-03,1.260627302e-04,-1.665365747e-03,-2.182573701e-03,2.438574810e-04,-1.938716220e-03,-8.711353452e-04,9.708926627e-05,-7.740460789e-04,-1.333663093e-03,1.530170689e-04,-1.180646024e-03,-1.023131711e-03,1.520404304e-04,-8.710912805e-04,-5.463543609e-04,2.819346061e-05,-5.181609003e-04,-6.706297498e-04,1.406344909e-05,-6.565663007e-04,1.325294619e-05,-1.116505068e-05,2.087895503e-06,-4.825858284e-04,-1.787464049e-04,-6.613322333e-04,-1.378545150e-03,1.674172266e-04,-1.211127924e-03,-9.031531036e-04,1.703678965e-04,-7.327852071e-04,-1.024005300e-03,-1.496745294e-04,-1.173679830e-03,-8.647952295e-04,1.283585810e-04,-7.364366484e-04,-8.158787907e-04,-3.764191937e-05,-8.535207101e-04,-1.679355256e-03,5.914308750e-05,-1.620212169e-03,-9.413168213e-04,4.284618078e-05,-8.984706405e-04,-1.503155696e-03,1.249668835e-05,-1.490659008e-03,-1.085515523e-03,4.645802543e-05,-1.039057497e-03,-1.803503566e-03,4.256605685e-05,-1.760937510e-03,-1.226558455e-03,-1.591211766e-05,-1.242470572e-03,-1.323426465e-03,-3.432233945e-04,-1.666649860e-03
-9.4,-3.647051033e-04,1.893878859e-05,-3.457663147e-04,-1.786799825e-04,1.366510120e-04,-4.202897048e-05,-2.416603399e-04,3.716943245e-05,-2.044909075e-04,-3.302769805e-04,7.196585570e-06,-3.230803949e-04,-7.209587212e-04,1.074855686e-04,-6.134731526e-04,-1.303152582e-03,2.302466073e-04,-1.072905974e-03,-8.969740949e-04,8.990910431e-05,-8.070649906e-04,-1.262351607e-03,1.448413915e-04,-1.117510216e-03,-7.994789219e-04,2.383150073e-05,-7.756474212e-04,-8.619359332e-04,7.158187884e-05,-7.903540544e-04,-6.220454841e-04,2.417386491e-05,-5.978716192e-04,-1.373674485e-03,5.495739710e-05,-1.318717088e-03,-1.312733627e-03,1.501963690e-04,-1.162537258e-03,-9.044074004e-04,1.161900498e-04,-7.882173506e-04,-9.638568535e-04,9.543501680e-05,-8.684218367e-04,-1.768260814e-03,1.238911528e-04,-1.644369662e-03,-2.158571986e-03,2.458234753e-04,-1.912748511e-03,-8.701758348e-04,9.545079925e-05,-7.747250355e-04,-1.325992294e-03,1.444627430e-04,-1.181529551e-03,-1.019797192e-03,1.502913307e-04,-8.695058617e-04,-5.517593363e-04,3.139224482e-05,-5.203670915e-04,-6.746494784e-04,1.696726051e-05,-6.576822179e-04,4.055618741e-06,-1.099258685e-05,-6.936968111e-06,-4.648668156e-04,-1.691248405e-04,-6.339916561e-04,-1.367541539e-03,1.642132576e-04,-1.203328281e-03,-8.871374269e-04,1.620805256e-04,-7.250569014e-04,-1.041578533e-03,-1.336779559e-04,-1.175256489e-03,-8.611207596e-04,1.253392076e-04,-7.357815520e-04,-8.280547301e-04,-3.479281475e-05,-8.628475448e-04,-1.675749755e-03,6.265897646e-05,-1.613090778e-03,-9.633200570e-04,3.306087608e-05,-9.302591809e-04,-1.496396282e-03,3.306929153e-06,-1.493089353e-03,-1.087939998e-03,4.581422307e-05,-1.042125775e-03,-1.800993148e-03,4.769957629e-05,-1.753293571e-03,-1.228278855e-03,-1.738264711e-05,-1.245661502e-03,-1.320231748e-03,-3.310775826e-04,-1.651309330e-03
-9.3,-3.601167891e-04,2.079223600e-05,-3.393245531e-04,-1.846463458e-04,1.374526147e-04,-4.719373111e-05,-2.384533636e-04,4.077486986e-05,-1.976784938e-04,-3.279500773e-04,8.971374402e-06,-3.189787029e-04,-7.123251068e-04,1.069628311e-04,-6.053622757e-04,-1.274442013e-03,2.299446298e-04,-1.044497383e-03,-8.888648457e-04,8.856557543e-05,-8.002992703e-04,-1.247169290e-03,1.455431652e-04,-1.101626124e-03,-7.938474510e-04,2.296745343e-05,-7.708799975e-04,-8.604483267e-04,7.140271594e-05,-7.890456107e-04,-6.205613466e-04,2.549697890e-05,-5.950643677e-04,-1.352996815e-03,5.956317016e-05,-1.293433645e-03,-1.323269583e-03,1.664569002e-04,-1.156812683e-03,-8.914783660e-04,1.148267237e-04,-7.766516423e-04,-9.607107102e-04,8.795201359e-05,-8.727586966e-04,-1.744308771e-03,1.213019314e-04,-1.623006840e-03,-2.132378025e-03,2.464892669e-04,-1.885888758e-03,-8.695085291e-04,9.402673212e-05,-7.754817970e-04,-1.316981676e-03,1.348923504e-04,-1.182089325e-03,-1.015736677e-03,1.487816124e-04,-8.669550641e-04,-5.564990946e-04,3.467120358e-05,-5.218278910e-04,-6.784054922e-04,1.978299625e-05,-6.586224959e-04,-4.083950269e-06,-1.049247782e-05,-1.457642809e-05,-4.468362416e-04,-1.597695079e-04,-6.066057495e-04,-1.354984424e-03,1.604633636e-04,-1.194521060e-03,-8.705414236e-04,1.537429207e-04,-7.167985029e-04,-1.060142191e-03,-1.165362171e-04,-1.176678408e-03,-8.571829648e-04,1.220548694e-04,-7.351280954e-04,-8.400860701e-04,-3.167463978e-05,-8.717607099e-04,-1.671310223e-03,6.603256300e-05,-1.605277660e-03,-9.853361337e-04,2.322233055e-05,-9.621138032e-04,-1.489531824e-03,-5.223588766e-06,-1.494755413e-03,-1.090639296e-03,4.507845400e-05,-1.045560842e-03,-1.795712656e-03,5.192388950e-05,-1.743788767e-03,-1.229237204e-03,-1.876128366e-05,-1.247998488e-03,-1.318793480e-03,-3.184837375e-04,-1.637277218e-03
-9.2,-3.545133432e-04,2.232905314e-05,-3.321842901e-04,-1.907930146e-04,1.380673064e-04,-5.272570816e-05,-2.350434879e-04,4.427613942e-05,-1.907673485e-04,-3.266782241e-04,1.066077619e-05,-3.160174479e-04,-7.034770036e-04,1.062786366e-04,-5.971983669e-04,-1.245810571e-03,2.296240973e-04,-1.016186473e-03,-8.804573540e-04,8.729041504e-05,-7.931669389e-04,-1.230692548e-03,1.461469495e-04,-1.084545598e-03,-7.881154604e-04,2.213236474e-05,-7.659830957e-04,-8.582200704e-04,7.133567818e-05,-7.868843922e-04,-6.187021560e-04,2.680474694e-05,-5.918974091e-04,-1.332265017e-03,6.421085751e-05,-1.268054160e-03,-1.332908919e-03,1.820750619e-04,-1.150833857e-03,-8.787403945e-04,1.132281456e-04,-7.655122489e-04,-9.572457111e-04,8.024509986e-05,-8.770006112e-04,-1.719675941e-03,1.183487073e-04,-1.601327233e-03,-2.104035935e-03,2.458628483e-04,-1.858173087e-03,-8.691369732e-04,9.285194765e-05,-7.762850255e-04,-1.306722907e-03,1.243893658e-04,-1.182333542e-03,-1.010916471e-03,1.475102351e-04,-8.634062362e-04,-5.604903108e-04,3.801430732e-05,-5.224760035e-04,-6.818317309e-04,2.250431009e-05,-6.593274208e-04,-1.113350509e-05,-9.665685213e-06,-2.079919030e-05,-4.285311102e-04,-1.506942408e-04,-5.792253510e-04,-1.340885414e-03,1.561929601e-04,-1.184692453e-03,-8.534218391e-04,1.453702659e-04,-7.080515732e-04,-1.079585728e-03,-9.834935305e-05,-1.177935081e-03,-8.529568669e-04,1.185051599e-04,-7.344517070e-04,-8.519546004e-04,-2.831813969e-05,-8.802727401e-04,-1.665987767e-03,6.924163796e-05,-1.596746129e-03,-1.007233017e-03,1.336450451e-05,-9.938685125e-04,-1.482535714e-03,-1.297902969e-05,-1.495514744e-03,-1.093633837e-03,4.423992319e-05,-1.049393914e-03,-1.787753516e-03,5.522414885e-05,-1.732529367e-03,-1.229388858e-03,-2.006780934e-05,-1.249456667e-03,-1.319374381e-03,-3.053529517e-04,-1.624727332e-03
-9.1,-3.478064399e-04,2.356341024e-05,-3.242430297e-04,-1.970104288e-04,1.384633973e-04,-5.854703153e-05,-2.314804928e-04,4.764645250e-05,-1.838340403e-04,-3.263891015e-04,1.226531576e-05,-3.141237857e-04,-6.944322055e-04,1.054333481e-04,-5.889988574e-04,-1.217249873e-03,2.292529826e-04,-9.879968907e-04,-8.717337858e-04,8.608586364e-05,-7.856479221e-04,-1.212993125e-03,1.466640703e-04,-1.066329054e-03,-7.822464158e-04,2.133014885e-05,-7.609162670e-04,-8.552215031e-04,7.137665383e-05,-7.838448493e-04,-6.164284508e-04,2.810075424e-05,-5.883276966e-04,-1.311477032e-03,6.879836989e-05,-1.242678663e-03,-1.341401042e-03,1.968325290e-04,-1.144568513e-03,-8.662334727e-04,1.113818178e-04,-7.548516549e-04,-9.534273344e-04,7.236687916e-05,-8.810604552e-04,-1.694466061e-03,1.150853644e-04,-1.579380697e-03,-2.073613104e-03,2.439728112e-04,-1.829640293e-03,-8.690397953e-04,9.194711763e-05,-7.770926777e-04,-1.295325646e-03,1.130577694e-04,-1.182267876e-03,-1.005306259e-03,1.464739037e-04,-8.588323552e-04,-5.636555974e-04,4.140480378e-05,-5.222507936e-04,-6.848661951e-04,2.512492767e-05,-6.597412674e-04,-1.707739927e-05,-8.517382370e-06,-2.559478164e-05,-4.099914520e-04,-1.419089554e-04,-5.519004074e-04,-1.325271740e-03,1.514323577e-04,-1.173839382e-03,-8.358468625e-04,1.369783463e-04,-6.988685162e-04,-1.099772339e-03,-7.923708980e-05,-1.179009429e-03,-8.484171122e-04,1.146897816e-04,-7.337273307e-04,-8.636447602e-04,-2.475795532e-05,-8.884027155e-04,-1.659731764e-03,7.226072472e-05,-1.587471040e-03,-1.028875767e-03,3.520002441e-06,-1.025355765e-03,-1.475379007e-03,-1.985653271e-05,-1.495235539e-03,-1.096936923e-03,4.328405062e-05,-1.053652872e-03,-1.777249973e-03,5.761293464e-05,-1.719637038e-03,-1.228699395e-03,-2.132069118e-05,-1.250020086e-03,-1.322233508e-03,-2.915948504e-04,-1.613828358e-03
-9,-3.399154801e-04,2.451092464e-05,-3.154045555e-04,-2.031936447e-04,1.386107222e-04,-6.458292242e-05,-2.278163826e-04,5.085981504e-05,-1.769565675e-04,-3.270109310e-04,1.378641418e-05,-3.132245168e-04,-6.852112280e-04,1.044284077e-04,-5.807828203e-04,-1.188750042e-03,2.287973045e-04,-9.599527373e-04,-8.626777430e-04,8.495305332e-05,-7.777246897e-04,-1.194146253e-03,1.471042889e-04,-1.047041964e-03,-7.762058900e-04,2.056421168e-05,-7.556416783e-04,-8.514283076e-04,7.152080755e-05,-7.799075000e-04,-6.137040057e-04,2.938862424e-05,-5.843153815e-04,-1.290630556e-03,7.322372550e-05,-1.217406831e-03,-1.348539705e-03,2.105475146e-04,-1.137992191e-03,-8.539977907e-04,1.092784468e-04,-7.447193439e-04,-9.492344410e-04,6.437347256e-05,-8.848609685e-04,-1.668780957e-03,1.115645800e-04,-1.557216377e-03,-2.041199659e-03,2.408671210e-04,-1.800332538e-03,-8.691712122e-04,9.131863479e-05,-7.778525775e-04,-1.282911193e-03,1.010166965e-04,-1.181894496e-03,-9.988791405e-04,1.456671143e-04,-8.532120263e-04,-5.659244548e-04,4.482543403e-05,-5.210990208e-04,-6.874514051e-04,2.763868383e-05,-6.598127213e-04,-2.191661486e-05,-7.056870910e-06,-2.897348577e-05,-3.912601808e-04,-1.334200069e-04,-5.246801877e-04,-1.308185652e-03,1.462158516e-04,-1.161969800e-03,-8.178952250e-04,1.285832003e-04,-6.893120247e-04,-1.120536778e-03,-5.934003047e-05,-1.179876808e-03,-8.435406100e-04,1.106097590e-04,-7.329308510e-04,-8.751431542e-04,-2.103174453e-05,-8.961748988e-04,-1.652490302e-03,7.506109775e-05,-1.577429204e-03,-1.050128802e-03,-6.279043802e-06,-1.056407846e-03,-1.468028422e-03,-2.577066193e-05,-1.493799084e-03,-1.100553113e-03,4.219267943e-05,-1.058360433e-03,-1.764375562e-03,5.913010285e-05,-1.705245459e-03,-1.227146045e-03,-2.253476136e-05,-1.249680806e-03,-1.327609267e-03,-2.771258598e-04,-1.604735127e-03
-8.9,-3.307682091e-04,2.518836281e-05,-3.055798463e-04,-2.092426464e-04,1.384811087e-04,-7.076153775e-05,-2.241047276e-04,5.389120756e-05,-1.702135200e-04,-3.284727824e-04,1.522616894e-05,-3.132466134e-04,-6.758366726e-04,1.032662194e-04,-5.725704532e-04,-1.160299538e-03,2.282210058e-04,-9.320785322e-04,-8.532736605e-04,8.389191908e-05,-7.693817414e-04,-1.174229136e-03,1.474752097e-04,-1.026753927e-03,-7.699608456e-04,1.983743374e-05,-7.501234118e-04,-8.468204604e-04,7.176258804e-05,-7.750578723e-04,-6.104952321e-04,3.067188117e-05,-5.798233509e-04,-1.269725412e-03,7.738833546e-05,-1.192337076e-03,-1.354170570e-03,2.230803062e-04,-1.131090264e-03,-8.420725698e-04,1.069121994e-04,-7.351603705e-04,-9.446588473e-04,5.632421482e-05,-8.883346325e-04,-1.642718176e-03,1.078368113e-04,-1.534881365e-03,-2.006906213e-03,2.366113764e-04,-1.770294837e-03,-8.694626460e-04,9.095931534e-05,-7.785033306e-04,-1.269606047e-03,8.839512062e-05,-1.181210926e-03,-9.916112139e-04,1.450822406e-04,-8.465289733e-04,-5.672338565e-04,4.825867176e-05,-5.189751848e-04,-6.895344917e-04,3.003963710e-05,-6.594948546e-04,-2.566831763e-05,-5.297407221e-06,-3.096572485e-05,-3.723827803e-04,-1.252305576e-04,-4.976133379e-04,-1.289683189e-03,1.405808436e-04,-1.149102345e-03,-7.996546258e-04,1.202009297e-04,-6.794536960e-04,-1.141684805e-03,-3.881963572e-05,-1.180504441e-03,-8.383090302e-04,1.062686894e-04,-7.320403408e-04,-8.864375073e-04,-1.717904069e-05,-9.036165480e-04,-1.644210423e-03,7.761126523e-05,-1.566599158e-03,-1.070858604e-03,-1.599916179e-05,-1.086857765e-03,-1.460444010e-03,-3.065709354e-05,-1.491101104e-03,-1.104476815e-03,4.094491590e-05,-1.063531899e-03,-1.749337881e-03,5.984107136e-05,-1.689496809e-03,-1.224718110e-03,-2.371944417e-05,-1.248437555e-03,-1.335701027e-03,-2.618760344e-04,-1.597577061e-03
-8.8,-3.203010956e-04,2.561329938e-05,-2.946877963e-04,-2.150622887e-04,1.380487900e-04,-7.701349869e-05,-2.203996085e-04,5.671679458e-05,-1.636828139e-04,-3.307044573e-04,1.658709664e-05,-3.141173606e-04,-6.663321381e-04,1.019499969e-04,-5.643821412e-04,-1.131884875e-03,2.274859827e-04,-9.043988925e-04,-8.435060540e-04,8.290116454e-05,-7.606048895e-04,-1.153319251e-03,1.477817482e-04,-1.005537503e-03,-7.634787292e-04,1.915217099e-05,-7.443265582e-04,-8.413809017e-04,7.209572821e-05,-7.692851735e-04,-6.067703713e-04,3.195380694e-05,-5.748165643e-04,-1.248765659e-03,8.120045258e-05,-1.167565206e-03,-1.358194935e-03,2.343359003e-04,-1.123859035e-03,-8.304946630e-04,1.042808813e-04,-7.262137817e-04,-9.397044580e-04,4.828134212e-05,-8.914231159e-04,-1.616368457e-03,1.039496451e-04,-1.512418812e-03,-1.970860097e-03,2.312864762e-04,-1.739573621e-03,-8.698258333e-04,9.084987529e-05,-7.789759580e-04,-1.255536204e-03,7.532757733e-05,-1.180208627e-03,-9.834808060e-04,1.447095588e-04,-8.387712472e-04,-5.675285195e-04,5.168690252e-05,-5.158416169e-04,-6.910670327e-04,3.232220211e-05,-6.587448306e-04,-2.836509183e-05,-3.255974900e-06,-3.162106673e-05,-3.534069665e-04,-1.173409405e-04,-4.707479070e-04,-1.269832607e-03,1.345670731e-04,-1.135265534e-03,-7.812198421e-04,1.118478107e-04,-6.693720314e-04,-1.162995056e-03,-1.785664287e-05,-1.180851699e-03,-8.327110931e-04,1.016742070e-04,-7.310368861e-04,-8.975151050e-04,-1.324001271e-05,-9.107551177e-04,-1.634838513e-03,7.987808602e-05,-1.554960427e-03,-1.090936266e-03,-2.560347908e-05,-1.116539745e-03,-1.452576649e-03,-3.447563032e-05,-1.487052279e-03,-1.108691587e-03,3.951889614e-05,-1.069172690e-03,-1.732371817e-03,5.983351504e-05,-1.672538302e-03,-1.221416758e-03,-2.487771506e-05,-1.246294473e-03,-1.346652917e-03,-2.457928919e-04,-1.592445809e-03
-8.7,-3.084597020e-04,2.580375900e-05,-2.826559430e-04,-2.205621119e-04,1.372907759e-04,-8.327133601e-05,-2.167544099e-04,5.931417035e-05,-1.574402396e-04,-3.336362626e-04,1.787187541e-05,-3.157643872e-04,-6.567210267e-04,1.004835974e-04,-5.562374292e-04,-1.103490461e-03,2.265523504e-04,-8.769381104e-04,-8.333588231e-04,8.197829237e-05,-7.513805307e-04,-1.131492634e-03,1.480257162e-04,-9.834669173e-04,-7.567267364e-04,1.851025503e-05,-7.382164814e-04,-8.350943289e-04,7.251322734e-05,-7.625811015e-04,-6.024988797e-04,3.323728333e-05,-5.692615964e-04,-1.227761644e-03,8.457864741e-05,-1.143182997e-03,-1.360570027e-03,2.442639247e-04,-1.116306103e-03,-8.192972450e-04,1.013860365e-04,-7.179112085e-04,-9.343864186e-04,4.030966535e-05,-8.940767533e-04,-1.589813332e-03,9.994742627e-05,-1.489865905e-03,-1.933200931e-03,2.249860873e-04,-1.708214843e-03,-8.701570264e-04,9.096068311e-05,-7.791963433e-04,-1.240823276e-03,6.195169820e-05,-1.178871578e-03,-9.744675964e-04,1.445371825e-04,-8.299304140e-04,-5.667610005e-04,5.509250888e-05,-5.116684916e-04,-6.920047953e-04,3.448125261e-05,-6.575235427e-04,-3.005399266e-05,-9.530072619e-07,-3.100699992e-05,-3.343824615e-04,-1.097489964e-04,-4.441314579e-04,-1.248712793e-03,1.282160886e-04,-1.120496705e-03,-7.626907737e-04,1.035406725e-04,-6.591501011e-04,-1.184223167e-03,3.352144580e-06,-1.180871023e-03,-8.267446468e-04,9.683973861e-05,-7.299049082e-04,-9.083609778e-04,-9.254291272e-06,-9.176152691e-04,-1.624321166e-03,8.182851136e-05,-1.542492655e-03,-1.110239461e-03,-3.505017952e-05,-1.145289641e-03,-1.444365825e-03,-3.721238326e-05,-1.481578208e-03,-1.113170380e-03,3.789422189e-05,-1.075276158e-03,-1.713731721e-03,5.921287632e-05,-1.654518845e-03,-1.217254452e-03,-2.600571514e-05,-1.243260167e-03,-1.360540858e-03,-2.288424811e-04,-1.589383339e-03
-8.6,-2.951992566e-04,2.577788497e-05,-2.694213717e-04,-2.256562672e-04,1.361872250e-04,-8.946904223e-05,-2.132206979e-04,6.166262393e-05,-1.515580740e-04,-3.371989721e-04,1.908310198e-05,-3.181158701e-04,-6.470255758e-04,9.887135497e-05,-5.481542208e-04,-1.075098735e-03,2.253790079e-04,-8.497197273e-04,-8.228147772e-04,8.111968002e-05,-7.416950972e-04,-1.108822344e-03,1.482055488e-04,-9.606167954e-04,-7.496715106e-04,1.791298751e-05,-7.317585231e-04,-8.279464285e-04,7.300731629e-05,-7.549391122e-04,-5.976512890e-04,3.452462231e-05,-5.631266667e-04,-1.206732031e-03,8.745507116e-05,-1.119276960e-03,-1.361305727e-03,2.528554233e-04,-1.108450304e-03,-8.085087584e-04,9.823290118e-05,-7.102758572e-04,-9.287303876e-04,3.247619994e-05,-8.962541877e-04,-1.563123250e-03,9.587108020e-05,-1.467252170e-03,-1.894076488e-03,2.178143068e-04,-1.676262182e-03,-8.703415750e-04,9.125345035e-05,-7.790881247e-04,-1.225582855e-03,4.840741902e-05,-1.177175436e-03,-9.645519560e-04,1.445510096e-04,-8.200009464e-04,-5.648917948e-04,5.845791505e-05,-5.064338797e-04,-6.923075363e-04,3.651220145e-05,-6.557953348e-04,-3.079550582e-05,1.587953176e-06,-2.920755264e-05,-3.153609643e-04,-1.024503724e-04,-4.178113367e-04,-1.226411897e-03,1.215710378e-04,-1.104840859e-03,-7.441705164e-04,9.529735140e-05,-6.488731650e-04,-1.205107685e-03,2.459875943e-05,-1.180508926e-03,-8.204186604e-04,9.178636269e-05,-7.286322977e-04,-9.189562501e-04,-5.259885064e-06,-9.242161351e-04,-1.612606475e-03,8.343154237e-05,-1.529174933e-03,-1.128654087e-03,-4.429164698e-05,-1.172945734e-03,-1.435738525e-03,-3.888055148e-05,-1.474619076e-03,-1.117876424e-03,3.605418279e-05,-1.081822241e-03,-1.693683190e-03,5.809745911e-05,-1.635585731e-03,-1.212254128e-03,-2.709288683e-05,-1.239347015e-03,-1.377363008e-03,-2.110086075e-04,-1.588371616e-03
-8.5,-2.804855015e-04,2.555364602e-05,-2.549318555e-04,-2.302636682e-04,1.347218159e-04,-9.554185229e-05,-2.098473209e-04,6.374339065e-05,-1.461039302e-04,-3.413241280e-04,2.022305888e-05,-3.211010691e-04,-6.372663086e-04,9.711790827e-05,-5.401484003e-04,-1.046690545e-03,2.239243908e-04,-8.227661544e-04,-8.118554825e-04,8.032068257e-05,-7.315347999e-04,-1.085377262e-03,1.483162060e-04,-9.370610559e-04,-7.422793644e-04,1.736115199e-05,-7.249182124e-04,-8.199236822e-04,7.356943873e-05,-7.463542434e-04,-5.921996339e-04,3.581741304e-05,-5.563822209e-04,-1.185705403e-03,8.977800387e-05,-1.095927399e-03,-1.360457597e-03,2.601360922e-04,-1.100321505e-03,-7.981521483e-04,9.483020165e-05,-7.033219467e-04,-9.227716514e-04,2.484957218e-05,-8.979220792e-04,-1.536356486e-03,9.175803757e-05,-1.444598448e-03,-1.853639086e-03,2.098834750e-04,-1.643755611e-03,-8.702585134e-04,9.168291591e-05,-7.785755975e-04,-1.209924500e-03,3.483677939e-05,-1.175087720e-03,-9.537147191e-04,1.447347745e-04,-8.089799446e-04,-5.618895440e-04,6.176566614e-05,-5.001238778e-04,-6.919389053e-04,3.841107741e-05,-6.535278279e-04,-3.066242015e-05,4.340659584e-06,-2.632176057e-05,-2.963962979e-04,-9.543881361e-05,-3.918351115e-04,-1.203026206e-03,1.146766769e-04,-1.088349529e-03,-7.257634963e-04,8.713702431e-05,-6.386264720e-04,-1.225377495e-03,4.567066980e-05,-1.179706825e-03,-8.137549319e-04,8.654432288e-05,-7.272106091e-04,-9.292770006e-04,-1.292179523e-06,-9.305691801e-04,-1.599645387e-03,8.465986814e-05,-1.514985519e-03,-1.146076221e-03,-5.327398681e-05,-1.199350208e-03,-1.426609951e-03,-3.951934691e-05,-1.466129298e-03,-1.122764143e-03,3.398679151e-05,-1.088777352e-03,-1.672494942e-03,5.661373115e-05,-1.615881211e-03,-1.206448096e-03,-2.812258817e-05,-1.234570684e-03,-1.397033977e-03,-1.922914070e-04,-1.589325384e-03
-8.4,-2.642957131e-04,2.514856019e-05,-2.391471529e-04,-2.343082897e-04,1.328820526e-04,-1.014262371e-04,-2.066797191e-04,6.553987983e-05,-1.411398393e-04,-3.459446217e-04,2.129350139e-05,-3.246511203e-04,-6.274618494e-04,9.522803152e-05,-5.322338178e-04,-1.018245532e-03,2.221472112e-04,-7.960983209e-04,-8.004613979e-04,7.957575877e-05,-7.208856391e-04,-1.061221292e-03,1.483492928e-04,-9.128719993e-04,-7.345168500e-04,1.685506750e-05,-7.176617825e-04,-8.110136070e-04,7.419027889e-05,-7.368233282e-04,-5.861182712e-04,3.711641031e-05,-5.490018609e-04,-1.164720664e-03,9.151306187e-05,-1.073207602e-03,-1.358116506e-03,2.661562989e-04,-1.091960207e-03,-7.882442978e-04,9.118983788e-05,-6.970544599e-04,-9.165536304e-04,1.749881072e-05,-8.990548197e-04,-1.509558752e-03,8.764223276e-05,-1.421916519e-03,-1.812042098e-03,2.013118417e-04,-1.610730257e-03,-8.697850599e-04,9.219879232e-05,-7.775862676e-04,-1.193952072e-03,2.138320270e-05,-1.172568869e-03,-9.419373271e-04,1.450701719e-04,-7.968671552e-04,-5.577313022e-04,6.499855137e-05,-4.927327508e-04,-6.908663533e-04,4.017458808e-05,-6.506917652e-04,-2.973854444e-05,7.276614851e-06,-2.246192959e-05,-2.775446033e-04,-8.870650096e-05,-3.662511043e-04,-1.178659101e-03,1.075794081e-04,-1.071079693e-03,-7.075736854e-04,7.908039047e-05,-6.284932949e-04,-1.244760242e-03,6.635832422e-05,-1.178401918e-03,-8.067889818e-04,8.115388685e-05,-7.256350949e-04,-9.392937449e-04,2.616946797e-06,-9.366767982e-04,-1.585392893e-03,8.549098846e-05,-1.499901904e-03,-1.162414535e-03,-6.193665244e-05,-1.224351187e-03,-1.416885969e-03,-3.919125648e-05,-1.456077225e-03,-1.127779580e-03,3.168437668e-05,-1.096095203e-03,-1.650430854e-03,5.489189494e-05,-1.595538959e-03,-1.199876488e-03,-2.907317661e-05,-1.228949665e-03,-1.419382203e-03,-1.727068890e-04,-1.592089092e-03
-8.3,-2.466197203e-04,2.457943262e-05,-2.220402876e-04,-2.377194021e-04,1.306594530e-04,-1.070599492e-04,-2.037593050e-04,6.703790049e-05,-1.367214046e-04,-3.509953251e-04,2.229549602e-05,-3.286998291e-04,-6.176288449e-04,9.320648774e-05,-5.244223571e-04,-9.897423254e-04,2.200070977e-04,-7.697352278e-04,-7.886121616e-04,7.887861078e-05,-7.097335508e-04,-1.036412942e-03,1.482934068e-04,-8.881195353e-04,-7.263513437e-04,1.639467401e-05,-7.099566697e-04,-8.012051107e-04,7.485982475e-05,-7.263452860e-04,-5.793847355e-04,3.842145548e-05,-5.409632800e-04,-1.143825722e-03,9.264283563e-05,-1.051182887e-03,-1.354395980e-03,2.709797300e-04,-1.083416250e-03,-7.787954363e-04,8.732645908e-05,-6.914689773e-04,-9.101256042e-04,1.049120907e-05,-8.996343951e-04,-1.482763245e-03,8.355419850e-05,-1.399209047e-03,-1.769436099e-03,1.922208541e-04,-1.577215244e-03,-8.688007841e-04,9.274826994e-05,-7.760525141e-04,-1.177763628e-03,8.190020225e-06,-1.169573608e-03,-9.292020781e-04,1.455369485e-04,-7.836651296e-04,-5.524026994e-04,6.813971746e-05,-4.842629820e-04,-6.890609043e-04,4.180014407e-05,-6.472607602e-04,-2.811719628e-05,1.036556222e-05,-1.775163406e-05,-2.588644301e-04,-8.224445980e-05,-3.411088899e-04,-1.153419894e-03,1.003272402e-04,-1.053092654e-03,-6.897028941e-04,7.114975100e-05,-6.185531431e-04,-1.262990513e-03,8.646203297e-05,-1.176528480e-03,-7.995699020e-04,7.566565781e-05,-7.239042442e-04,-9.489715455e-04,6.439923524e-06,-9.425316220e-04,-1.569809050e-03,8.590802468e-05,-1.483901026e-03,-1.177592712e-03,-7.021211866e-05,-1.247804831e-03,-1.406466390e-03,-3.797827310e-05,-1.444444663e-03,-1.132860127e-03,2.914233105e-05,-1.103717796e-03,-1.627742034e-03,5.306141201e-05,-1.574680622e-03,-1.192585059e-03,-2.991948878e-05,-1.222504548e-03,-1.444149104e-03,-1.522885303e-04,-1.596437634e-03
-8.2,-2.274607793e-04,2.386213065e-05,-2.035986487e-04,-2.404315906e-04,1.280496398e-04,-1.123819508e-04,-2.011227601e-04,6.822590033e-05,-1.328968598e-04,-3.564134997e-04,2.322932706e-05,-3.331841727e-04,-6.077817098e-04,9.105792214e-05,-5.167237877e-04,-9.611585347e-04,2.174652728e-04,-7.436932619e-04,-7.762868799e-04,7.822230447e-05,-6.980645754e-04,-1.011005095e-03,1.481346597e-04,-8.628704354e-04,-7.177513476e-04,1.597961519e-05,-7.017717324e-04,-7.904886420e-04,7.556742877e-05,-7.149212132e-04,-5.719802984e-04,3.973140123e-05,-5.322488972e-04,-1.123074732e-03,9.316536279e-05,-1.029909369e-03,-1.349419477e-03,2.746737926e-04,-1.074745685e-03,-7.698082684e-04,8.325692041e-05,-6.865513480e-04,-9.035398386e-04,3.889412124e-06,-8.996504265e-04,-1.455990790e-03,7.952123769e-05,-1.376469552e-03,-1.725964512e-03,1.827320507e-04,-1.543232461e-03,-8.671909695e-04,9.327898037e-05,-7.739119891e-04,-1.161450889e-03,-4.601389937e-06,-1.166052279e-03,-9.154922400e-04,1.461129228e-04,-7.693793171e-04,-5.458978671e-04,7.117273749e-05,-4.747251296e-04,-6.864967218e-04,4.328585257e-05,-6.432108692e-04,-2.589942250e-05,1.357601186e-05,-1.232341064e-05,-2.404166068e-04,-7.604302383e-05,-3.164596306e-04,-1.127422431e-03,9.296964966e-05,-1.034452781e-03,-6.722490589e-04,6.336898394e-05,-6.088800750e-04,-1.279816447e-03,1.057968730e-04,-1.174019574e-03,-7.921594118e-04,7.014061343e-05,-7.220187983e-04,-9.582706266e-04,1.015424768e-05,-9.481163789e-04,-1.552859737e-03,8.590045556e-05,-1.466959281e-03,-1.191551400e-03,-7.802556340e-05,-1.269576963e-03,-1.395248238e-03,-3.597760400e-05,-1.431225842e-03,-1.137933746e-03,2.635786396e-05,-1.111575882e-03,-1.604658864e-03,5.124641738e-05,-1.553412446e-03,-1.184622207e-03,-3.063458617e-05,-1.215256793e-03,-1.470989362e-03,-1.310906890e-04,-1.602080051e-03
-8.1,-2.068362035e-04,2.301139655e-05,-1.838248069e-04,-2.423845275e-04,1.250523829e-04,-1.173321445e-04,-1.988011275e-04,6.909519726e-05,-1.297059303e-04,-3.621387371e-04,2.409444695e-05,-3.380442901e-04,-5.979320077e-04,8.878678667e-05,-5.091452210e-04,-9.324707143e-04,2.144854868e-04,-7.179852274e-04,-7.634643021e-04,7.759933298e-05,-6.858649692e-04,-9.850448425e-04,1.478573335e-04,-8.371875091e-04,-7.086863313e-04,1.560929822e-05,-6.930770331e-04,-7.788559261e-04,7.630184776e-05,-7.025540783e-04,-5.638900111e-04,4.104402902e-05,-5.228459821e-04,-1.102524577e-03,9.309207327e-05,-1.009432504e-03,-1.343310161e-03,2.773043366e-04,-1.066005824e-03,-7.612767071e-04,7.899969033e-05,-6.822770168e-04,-8.968482818e-04,-2.251608671e-06,-8.990998904e-04,-1.429249905e-03,7.556759986e-05,-1.353682305e-03,-1.681759192e-03,1.729639149e-04,-1.508795277e-03,-8.648488184e-04,9.374156089e-05,-7.711072575e-04,-1.145098435e-03,-1.685373334e-05,-1.161952169e-03,-9.007918966e-04,1.467739935e-04,-7.540179031e-04,-5.382190670e-04,7.408166521e-05,-4.641374017e-04,-6.831504629e-04,4.463052186e-05,-6.385199411e-04,-2.319193393e-05,1.687579128e-05,-6.316142642e-06,-2.222637963e-04,-7.009231518e-05,-2.923561115e-04,-1.100783277e-03,8.555726126e-05,-1.015226016e-03,-6.553043073e-04,5.576332662e-05,-5.995409807e-04,-1.295004127e-03,1.241956647e-04,-1.170808463e-03,-7.846302550e-04,6.464995026e-05,-7.199803047e-04,-9.671470630e-04,1.374304178e-05,-9.534040212e-04,-1.534516863e-03,8.546475523e-05,-1.449052108e-03,-1.204249436e-03,-8.529454028e-05,-1.289543976e-03,-1.383128695e-03,-3.329709067e-05,-1.416425785e-03,-1.142918044e-03,2.332933607e-05,-1.119588708e-03,-1.581383352e-03,4.956153596e-05,-1.531821816e-03,-1.176035332e-03,-3.119166462e-05,-1.207226997e-03,-1.499472882e-03,-1.091927869e-04,-1.608665669e-03
-8,-1.847776502e-04,2.204065940e-05,-1.627369908e-04,-2.435225161e-04,1.216716020e-04,-1.218509141e-04,-1.968186552e-04,6.964015963e-05,-1.271784956e-04,-3.681122782e-04,2.488944100e-05,-3.432228372e-04,-5.880874175e-04,8.639727255e-05,-5.016901450e-04,-9.036544696e-04,2.110352899e-04,-6.926191797e-04,-7.501228180e-04,7.700162264e-05,-6.731211954e-04,-9.585733680e-04,1.474447095e-04,-8.111286585e-04,-6.991261324e-04,1.528293458e-05,-6.838431979e-04,-7.662992594e-04,7.705127845e-05,-6.892479810e-04,-5.551022062e-04,4.235597499e-05,-5.127462312e-04,-1.082231078e-03,9.244559975e-05,-9.897854783e-04,-1.336184233e-03,2.789349503e-04,-1.057249283e-03,-7.531843058e-04,7.457430254e-05,-6.786100033e-04,-8.900988750e-04,-7.886975292e-06,-8.979858503e-04,-1.402536792e-03,7.171460564e-05,-1.330822187e-03,-1.636936559e-03,1.630292593e-04,-1.473907300e-03,-8.616764623e-04,9.409073986e-05,-7.675857224e-04,-1.128782638e-03,-2.843658411e-05,-1.157219222e-03,-8.850855336e-04,1.474942168e-04,-7.375913168e-04,-5.293760355e-04,7.685111603e-05,-4.525249194e-04,-6.790004561e-04,4.583370171e-05,-6.331667544e-04,-2.010481241e-05,2.023257667e-05,1.277642617e-07,-2.044697149e-04,-6.438268953e-05,-2.688524044e-04,-1.073619374e-03,7.814123699e-05,-9.954781371e-04,-6.389525868e-04,4.835885643e-05,-5.905937304e-04,-1.308339904e-03,1.415110021e-04,-1.166828902e-03,-7.770635585e-04,5.927444984e-05,-7.177891087e-04,-9.755530366e-04,1.719515254e-05,-9.583578840e-04,-1.514757957e-03,8.460474474e-05,-1.430153212e-03,-1.215663991e-03,-9.192891645e-05,-1.307592908e-03,-1.370007778e-03,-3.005053648e-05,-1.400058315e-03,-1.147719706e-03,2.005643596e-05,-1.127663270e-03,-1.558082642e-03,4.810878331e-05,-1.509973859e-03,-1.166866813e-03,-3.156603786e-05,-1.198432850e-03,-1.529089831e-03,-8.670248733e-05,-1.615792318e-03
-7.9,-1.613310608e-04,2.096182423e-05,-1.403692366e-04,-2.437939144e-04,1.179153036e-04,-1.258786108e-04,-1.951915227e-04,6.985830491e-05,-1.253332178e-04,-3.742757846e-04,2.561201881e-05,-3.486637658e-04,-5.782504694e-04,8.389323726e-05,-4.943572321e-04,-8.746847914e-04,2.070875371e-04,-6.675972543e-04,-7.362403217e-04,7.642052129e-05,-6.598198005e-04,-9.316259627e-04,1.468800932e-04,-7.847458695e-04,-6.890401954e-04,1.499956566e-05,-6.740406297e-04,-7.528106093e-04,7.780340939e-05,-6.750071999e-04,-5.456077232e-04,4.366268014e-05,-5.019450430e-04,-1.062245274e-03,9.125758507e-05,-9.709876885e-04,-1.328146639e-03,2.796289655e-04,-1.048517674e-03,-7.455026925e-04,7.000088103e-05,-6.755018114e-04,-8.833317692e-04,-1.298341454e-05,-8.963151837e-04,-1.375835342e-03,6.798071754e-05,-1.307854624e-03,-1.591594791e-03,1.530334547e-04,-1.438561337e-03,-8.575850711e-04,9.428467468e-05,-7.633003964e-04,-1.112570115e-03,-3.923013753e-05,-1.151800253e-03,-8.683574907e-04,1.482459501e-04,-7.201115406e-04,-5.193851198e-04,7.946635906e-05,-4.399187607e-04,-6.740258229e-04,4.689573156e-05,-6.271300914e-04,-1.674916672e-05,2.361436086e-05,6.865194139e-06,-1.870981458e-04,-5.890509856e-05,-2.460032444e-04,-1.046045332e-03,7.077238607e-05,-9.752729459e-04,-6.232669986e-04,4.118167454e-05,-5.820853241e-04,-1.319631133e-03,1.576169206e-04,-1.162014212e-03,-7.695446137e-04,5.410280175e-05,-7.154418119e-04,-9.834365438e-04,2.050475397e-05,-9.629317898e-04,-1.493565345e-03,8.333154933e-05,-1.410233796e-03,-1.225789325e-03,-9.783158088e-05,-1.323620906e-03,-1.355790912e-03,-2.635322777e-05,-1.382144140e-03,-1.152234987e-03,1.654128956e-05,-1.135693697e-03,-1.534884424e-03,4.697570640e-05,-1.487908718e-03,-1.157150121e-03,-3.173694633e-05,-1.188887067e-03,-1.559260072e-03,-6.375580296e-05,-1.623015875e-03
-7.8,-1.365563794e-04,1.978508341e-05,-1.167712960e-04,-2.431506689e-04,1.137954410e-04,-1.293552279e-04,-1.939267418e-04,6.975031687e-05,-1.241764249e-04,-3.805698724e-04,2.625907666e-05,-3.543107957e-04,-5.684174031e-04,8.127813343e-05,-4.871392697e-04,-8.455366452e-04,2.026219251e-04,-6.429147201e-04,-7.217940834e-04,7.584680785e-05,-6.459472755e-04,-9.042322200e-04,1.461479342e-04,-7.580842858e-04,-6.783970323e-04,1.475806469e-05,-6.636389676e-04,-7.383808894e-04,7.854548646e-05,-6.598354029e-04,-5.353992503e-04,4.495836152e-05,-4.904408888e-04,-1.042610174e-03,8.956658854e-05,-9.530435856e-04,-1.319287203e-03,2.794519756e-04,-1.039835228e-03,-7.381904609e-04,6.529977351e-05,-6.728906874e-04,-8.765760521e-04,-1.751988497e-05,-8.940959371e-04,-1.349117274e-03,6.438157958e-05,-1.284735694e-03,-1.545812282e-03,1.430733549e-04,-1.402738927e-03,-8.524945908e-04,9.428326346e-05,-7.582113273e-04,-1.096516089e-03,-4.912926316e-05,-1.145645352e-03,-8.505914558e-04,1.489999899e-04,-7.015914659e-04,-5.082683393e-04,8.191337544e-05,-4.263549638e-04,-6.682057318e-04,4.781775021e-05,-6.203879816e-04,-1.323494411e-05,2.698985404e-05,1.375490993e-05,-1.702119521e-04,-5.365134582e-05,-2.238632979e-04,-1.018170702e-03,6.350011397e-05,-9.546705882e-04,-6.083074057e-04,3.425700504e-05,-5.740504006e-04,-1.328705703e-03,1.724099091e-04,-1.156295794e-03,-7.621570193e-04,4.922846064e-05,-7.129285586e-04,-9.907408508e-04,2.367069484e-05,-9.670701560e-04,-1.470925190e-03,8.166315815e-05,-1.389262032e-03,-1.234634351e-03,-1.029001783e-04,-1.337534529e-03,-1.340391439e-03,-2.231789356e-05,-1.362709333e-03,-1.156351751e-03,1.279040289e-05,-1.143561348e-03,-1.511874212e-03,4.623418305e-05,-1.465640029e-03,-1.146906681e-03,-3.168881359e-05,-1.178595495e-03,-1.589347181e-03,-4.051315245e-05,-1.629860334e-03
-7.7,-1.105272053e-04,1.851883099e-05,-9.200837429e-05,-2.415481885e-04,1.093277166e-04,-1.322204719e-04,-1.930214865e-04,6.931999263e-05,-1.237014939e-04,-3.869327609e-04,2.682685263e-05,-3.601059082e-04,-5.585774511e-04,7.855495199e-05,-4.800224992e-04,-8.161857073e-04,1.976263224e-04,-6.185593849e-04,-7.067607269e-04,7.527072182e-05,-6.314900051e-04,-8.764163585e-04,1.452348401e-04,-7.311815184e-04,-6.671641243e-04,1.455711121e-05,-6.526070131e-04,-7.229996475e-04,7.926437472e-05,-6.437352728e-04,-5.244710290e-04,4.623599689e-05,-4.782350321e-04,-1.023358121e-03,8.741624734e-05,-9.359418738e-04,-1.309676962e-03,2.784737718e-04,-1.031203190e-03,-7.311928658e-04,6.049137366e-05,-6.707014921e-04,-8.698473515e-04,-2.148749346e-05,-8.913348450e-04,-1.322342360e-03,6.093002414e-05,-1.261412336e-03,-1.499647330e-03,1.332366314e-04,-1.366410699e-03,-8.463335000e-04,9.404636171e-05,-7.522871383e-04,-1.080663690e-03,-5.804631586e-05,-1.138710006e-03,-8.317701365e-04,1.497256659e-04,-6.820444706e-04,-4.960525287e-04,8.417889235e-05,-4.118736363e-04,-6.615189341e-04,4.860166459e-05,-6.129172695e-04,-9.669024513e-06,3.032884149e-05,2.065981698e-05,-1.538722128e-04,-4.861422771e-05,-2.024864405e-04,-9.900973882e-04,5.637128296e-05,-9.337261052e-04,-5.941188665e-04,2.760850179e-05,-5.665103647e-04,-1.335410611e-03,1.858087598e-04,-1.149601852e-03,-7.549757782e-04,4.474514243e-05,-7.102306357e-04,-9.974040549e-04,2.669581276e-05,-9.707082422e-04,-1.446826471e-03,7.962362510e-05,-1.367202846e-03,-1.242219515e-03,-1.070297933e-04,-1.349249308e-03,-1.323733049e-03,-1.805126760e-05,-1.341784317e-03,-1.159952567e-03,8.816939749e-06,-1.151135627e-03,-1.489093713e-03,4.593911290e-05,-1.443154600e-03,-1.136143764e-03,-3.141176501e-05,-1.167555529e-03,-1.618677259e-03,-1.715145935e-05,-1.635828718e-03
-7.6,-8.333044030e-05,1.716972462e-05,-6.616071568e-05,-2.389456536e-04,1.045313398e-04,-1.344143139e-04,-1.924629611e-04,6.857411849e-05,-1.238888426e-04,-3.932992825e-04,2.731114974e-05,-3.659881328e-04,-5.487126870e-04,7.572618019e-05,-4.729865068e-04,-7.866090156e-04,1.920976706e-04,-5.945113449e-04,-6.911163391e-04,7.468199499e-05,-6.164343441e-04,-8.481975922e-04,1.441303147e-04,-7.040672775e-04,-6.553083032e-04,1.439515869e-05,-6.409131445e-04,-7.066552382e-04,7.994661546e-05,-6.267086227e-04,-5.128189932e-04,4.748733442e-05,-4.653316588e-04,-1.004508650e-03,8.485382988e-05,-9.196548205e-04,-1.299366117e-03,2.767696091e-04,-1.022596508e-03,-7.244423479e-04,5.559614964e-05,-6.688461983e-04,-8.631460366e-04,-2.488908378e-05,-8.880351204e-04,-1.295458597e-03,5.763600726e-05,-1.237822589e-03,-1.453138925e-03,1.236014420e-04,-1.329537483e-03,-8.390385596e-04,9.353237925e-05,-7.455061803e-04,-1.065044313e-03,-6.591204184e-05,-1.130956355e-03,-8.118752112e-04,1.503909387e-04,-6.614842725e-04,-4.827686958e-04,8.625046046e-05,-3.965182354e-04,-6.539436522e-04,4.925011610e-05,-6.046935361e-04,-6.153634572e-06,3.360250491e-05,2.744887034e-05,-1.381374995e-04,-4.378756962e-05,-1.819250691e-04,-9.619171430e-04,4.942899641e-05,-9.124881466e-04,-5.807310067e-04,2.125788017e-05,-5.594731266e-04,-1.339610076e-03,1.977532118e-04,-1.141856864e-03,-7.480604294e-04,4.074156358e-05,-7.073188659e-04,-1.003358985e-03,2.958625669e-05,-9.737727287e-04,-1.421260009e-03,7.724204980e-05,-1.344017959e-03,-1.248573205e-03,-1.101165384e-04,-1.358689743e-03,-1.305751765e-03,-1.365147990e-05,-1.319403245e-03,-1.162917621e-03,4.642471407e-06,-1.158275149e-03,-1.466539889e-03,4.612683517e-05,-1.420413054e-03,-1.124853546e-03,-3.090154569e-05,-1.155755092e-03,-1.646562912e-03,6.147131545e-06,-1.640415781e-03
-7.5,-5.506589442e-05,1.574287521e-05,-3.932301921e-05,-2.353067204e-04,9.942872137e-05,-1.358779990e-04,-1.922287848e-04,6.752227048e-05,-1.247065143e-04,-3.996003672e-04,2.770758189e-05,-3.718927854e-04,-5.387984483e-04,7.279376887e-05,-4.660046795e-04,-7.567854164e-04,1.860423494e-04,-5.707430670e-04,-6.748367135e-04,7.406990000e-05,-6.007668135e-04,-8.195904990e-04,1.428271885e-04,-6.767633105e-04,-6.427965613e-04,1.427042952e-05,-6.285261318e-04,-6.893354559e-04,8.057849837e-05,-6.087569576e-04,-5.004413188e-04,4.870295213e-05,-4.517383666e-04,-9.860668849e-04,8.192923619e-05,-9.041376487e-04,-1.288384237e-03,2.744208267e-04,-1.013963411e-03,-7.178596492e-04,5.063479508e-05,-6.672248541e-04,-8.564556098e-04,-2.773880746e-05,-8.841944173e-04,-1.268402348e-03,5.450642705e-05,-1.213895921e-03,-1.406308278e-03,1.142364024e-04,-1.292071875e-03,-8.305544913e-04,9.269730174e-05,-7.378571895e-04,-1.049677321e-03,-7.267580560e-05,-1.122353126e-03,-7.908875986e-04,1.509625814e-04,-6.399250172e-04,-4.684516224e-04,8.811660191e-05,-3.803350205e-04,-6.454577890e-04,4.976646046e-05,-5.956913285e-04,-2.785064178e-06,3.678368678e-05,3.399862261e-05,-1.230632592e-04,-3.916620174e-05,-1.622294609e-04,-9.337092775e-04,4.271142461e-05,-8.909978529e-04,-5.681580322e-04,1.522475948e-05,-5.529332727e-04,-1.341184081e-03,2.082019536e-04,-1.132982127e-03,-7.414495607e-04,3.729636363e-05,-7.041531971e-04,-1.008533589e-03,3.235082711e-05,-9.761827616e-04,-1.394217704e-03,7.455151792e-05,-1.319666186e-03,-1.253727738e-03,-1.120619842e-04,-1.365789722e-03,-1.286397178e-03,-9.206445259e-06,-1.295603623e-03,-1.165126487e-03,2.974895811e-07,-1.164828997e-03,-1.444165022e-03,4.681385117e-05,-1.397351171e-03,-1.113013355e-03,-3.015915149e-05,-1.143172507e-03,-1.672330211e-03,2.920789694e-05,-1.643122314e-03
-7.4,-2.584575306e-05,1.424212624e-05,-1.160362682e-05,-2.306004555e-04,9.404507996e-05,-1.365553755e-04,-1.922877750e-04,6.617655955e-05,-1.261112154e-04,-4.057629686e-04,2.801181600e-05,-3.777511526e-04,-5.288041831e-04,6.975911804e-05,-4.590450651e-04,-7.266958489e-04,1.794760494e-04,-5.472197995e-04,-6.578977021e-04,7.342335360e-05,-5.844743485e-04,-7.906053381e-04,1.413218111e-04,-6.492835271e-04,-6.295971091e-04,1.418095030e-05,-6.154161588e-04,-6.710284709e-04,8.114616080e-05,-5.898823101e-04,-4.873392149e-04,4.987237343e-05,-4.374668415e-04,-9.680225979e-04,7.869436446e-05,-8.893282335e-04,-1.276741239e-03,2.715144404e-04,-1.005226798e-03,-7.113552052e-04,4.562839353e-05,-6.657268117e-04,-8.497414452e-04,-3.006146487e-05,-8.798029100e-04,-1.241098674e-03,5.154484236e-05,-1.189553831e-03,-1.359160562e-03,1.052005699e-04,-1.253959992e-03,-8.208338956e-04,9.149417805e-05,-7.293397176e-04,-1.034567432e-03,-7.830665427e-05,-1.112874086e-03,-7.687879476e-04,1.514064624e-04,-6.173814852e-04,-4.531395922e-04,8.976696414e-05,-3.633726281e-04,-6.360393303e-04,5.015472963e-05,-5.858846007e-04,3.473577554e-07,3.984708002e-05,4.019443778e-05,-1.087012460e-04,-3.474592507e-05,-1.434471710e-04,-9.055388917e-04,3.625094607e-05,-8.692879456e-04,-5.563990143e-04,9.526576121e-06,-5.468724381e-04,-1.340028048e-03,2.171306934e-04,-1.122897354e-03,-7.351578111e-04,3.447426654e-05,-7.006835446e-04,-1.012851787e-03,3.500039664e-05,-9.778513905e-04,-1.365692048e-03,7.158802930e-05,-1.294104019e-03,-1.257715080e-03,-1.127780398e-04,-1.370493120e-03,-1.265633082e-03,-4.793071121e-06,-1.270426153e-03,-1.166458781e-03,-4.179369979e-06,-1.170638151e-03,-1.421878120e-03,4.799649881e-05,-1.373881621e-03,-1.100586758e-03,-2.919051958e-05,-1.129777277e-03,-1.695343637e-03,5.187406483e-05,-1.643469572e-03
-7.3,4.206200388e-06,1.267042092e-05,1.687662131e-05,-2.248023088e-04,8.840797909e-05,-1.363943298e-04,-1.926009554e-04,6.455135869e-05,-1.280495967e-04,-4.117102622e-04,2.821981517e-05,-3.834904470e-04,-5.186944589e-04,6.662310003e-05,-4.520713589e-04,-6.963234734e-04,1.724232856e-04,-5.239001878e-04,-6.402755923e-04,7.273108388e-05,-5.675445084e-04,-7.612482150e-04,1.396140455e-04,-6.216341695e-04,-6.156803950e-04,1.412460393e-05,-6.015557910e-04,-6.517237802e-04,8.163569897e-05,-5.700880813e-04,-4.735176679e-04,5.098421337e-05,-4.225334545e-04,-9.503498335e-04,7.520254102e-05,-8.751472925e-04,-1.264427398e-03,2.681413351e-04,-9.962860627e-04,-7.048305694e-04,4.059850000e-05,-6.642320694e-04,-8.429504490e-04,-3.189120730e-05,-8.748416563e-04,-1.213462000e-03,4.875120227e-05,-1.164710798e-03,-1.311686535e-03,9.654317594e-05,-1.215143359e-03,-8.098379325e-04,8.987332541e-05,-7.199646071e-04,-1.019700136e-03,-8.279514909e-05,-1.102495285e-03,-7.455571854e-04,1.516879240e-04,-5.938692614e-04,-4.368740823e-04,9.119240884e-05,-3.456816734e-04,-6.256667693e-04,5.041954023e-05,-5.752472291e-04,3.162077363e-06,4.276935150e-05,4.593142887e-05,-9.509894169e-05,-3.052347594e-05,-1.256224176e-04,-8.774557689e-04,3.007378784e-05,-8.473819811e-04,-5.454382542e-04,4.178574502e-06,-5.412596797e-04,-1.336053389e-03,2.245303680e-04,-1.111523021e-03,-7.291755828e-04,3.232418394e-05,-6.968513988e-04,-1.016234565e-03,3.754746821e-05,-9.786870967e-04,-1.335675688e-03,6.838931301e-05,-1.267286375e-03,-1.260562609e-03,-1.121915496e-04,-1.372754159e-03,-1.243437951e-03,-4.768476253e-07,-1.243914799e-03,-1.166794183e-03,-8.742864769e-06,-1.175537048e-03,-1.399547801e-03,4.965183407e-05,-1.349895967e-03,-1.087524836e-03,-2.800650069e-05,-1.115531337e-03,-1.715025770e-03,7.401310962e-05,-1.641012661e-03
-7.2,3.495568629e-05,1.103027756e-05,4.598596385e-05,-2.178949971e-04,8.254685288e-05,-1.353481442e-04,-1.931226151e-04,6.266303202e-05,-1.304595831e-04,-4.173619080e-04,2.832808817e-05,-3.890338198e-04,-5.084298818e-04,6.338612017e-05,-4.450437617e-04,-6.656535672e-04,1.649166794e-04,-5.007368877e-04,-6.219473960e-04,7.198182346e-05,-5.499655725e-04,-7.315209647e-04,1.377069912e-04,-5.938139734e-04,-6.010198114e-04,1.409916283e-05,-5.869206486e-04,-6.314128763e-04,8.203326764e-05,-5.493796086e-04,-4.589858400e-04,5.202632357e-05,-4.069595165e-04,-9.330066138e-04,7.150755809e-05,-8.614990558e-04,-1.251412414e-03,2.643933113e-04,-9.870191032e-04,-6.981796935e-04,3.556705570e-05,-6.626126378e-04,-8.360118440e-04,-3.326969146e-05,-8.692815355e-04,-1.185397085e-03,4.612167874e-05,-1.139275406e-03,-1.263864183e-03,8.830326090e-05,-1.175560922e-03,-7.975380065e-04,8.778346206e-05,-7.097545445e-04,-1.005037077e-03,-8.615462502e-05,-1.091191702e-03,-7.211769869e-04,1.517722795e-04,-5.694047074e-04,-4.196993167e-04,9.238504951e-05,-3.273142672e-04,-6.143194009e-04,5.056595244e-05,-5.637534485e-04,5.585999084e-06,4.552922209e-05,5.111522117e-05,-8.229888888e-05,-2.649646757e-05,-1.087953565e-04,-8.494937710e-04,2.420006179e-05,-8.252937092e-04,-5.352456520e-04,-8.060391113e-07,-5.360516912e-04,-1.329187996e-03,2.304049125e-04,-1.098783083e-03,-7.234707449e-04,3.087925989e-05,-6.925914850e-04,-1.018600881e-03,4.000585795e-05,-9.785950233e-04,-1.304160684e-03,6.499351527e-05,-1.239167169e-03,-1.262289289e-03,-1.102478238e-04,-1.372537113e-03,-1.219805430e-03,3.688566339e-06,-1.216116864e-03,-1.166012295e-03,-1.334271143e-05,-1.179355006e-03,-1.377006732e-03,5.173979069e-05,-1.325266941e-03,-1.073767123e-03,-2.662309099e-05,-1.100390214e-03,-1.730871990e-03,9.551942989e-05,-1.635352560e-03
-7.1,6.625943162e-05,9.324351662e-06,7.558378328e-05,-2.098691914e-04,7.649254089e-05,-1.333766505e-04,-1.938012643e-04,6.052965402e-05,-1.332716103e-04,-4.226341873e-04,2.833391759e-05,-3.943002697e-04,-4.979677304e-04,6.004818659e-05,-4.379195438e-04,-6.346731635e-04,1.569961102e-04,-4.776770533e-04,-6.028909242e-04,7.116448588e-05,-5.317264383e-04,-7.014207048e-04,1.356063662e-04,-5.658143386e-04,-5.855918884e-04,1.410229256e-05,-5.714895959e-04,-6.100893909e-04,8.232516147e-05,-5.277642294e-04,-4.437568993e-04,5.298592727e-05,-3.907709720e-04,-9.159342471e-04,6.766209889e-05,-8.482721482e-04,-1.237644465e-03,2.603594924e-04,-9.772849729e-04,-6.912899393e-04,3.055609709e-05,-6.607338422e-04,-8.288387203e-04,-3.424407523e-05,-8.630827955e-04,-1.156800055e-03,4.364857985e-05,-1.113151476e-03,-1.215660410e-03,8.050943011e-05,-1.135150980e-03,-7.839180506e-04,8.517363613e-05,-6.987444145e-04,-9.905132784e-04,-8.842074155e-05,-1.078934020e-03,-6.956300418e-04,1.516254230e-04,-5.440046187e-04,-4.016616463e-04,9.333829356e-05,-3.083233528e-04,-6.019773815e-04,5.059930827e-05,-5.513780732e-04,7.555139788e-06,4.810750671e-05,5.566264650e-05,-7.033782467e-05,-2.266329445e-05,-9.300111912e-05,-8.216705227e-04,1.864396385e-05,-8.030265588e-04,-5.257769619e-04,-5.415762707e-06,-5.311927246e-04,-1.319375819e-03,2.347682958e-04,-1.084607523e-03,-7.179912963e-04,3.015826838e-05,-6.878330279e-04,-1.019868011e-03,4.239034677e-05,-9.774776642e-04,-1.271137249e-03,6.143789970e-05,-1.209699349e-03,-1.262902496e-03,-1.069127695e-04,-1.369815266e-03,-1.194744434e-03,7.661833391e-06,-1.187082600e-03,-1.163992737e-03,-1.792449312e-05,-1.181917230e-03,-1.354057343e-03,5.420641985e-05,-1.299850923e-03,-1.059242077e-03,-2.506169483e-05,-1.084303772e-03,-1.742460020e-03,1.163137797e-04,-1.626146240e-03
-7,9.796713112e-05,7.556010808e-06,1.055231419e-04,-2.007238911e-04,7.027679535e-05,-1.304470958e-04,-1.945803962e-04,5.817069563e-05,-1.364097005e-04,-4.274398893e-04,2.823552678e-05,-3.992043626e-04,-4.872622257e-04,5.660895753e-05,-4.306532682e-04,-6.033705292e-04,1.487077622e-04,-4.546627670e-04,-5.830845667e-04,7.026831778e-05,-5.128162490e-04,-6.709391398e-04,1.333196043e-04,-5.376195355e-04,-5.693759749e-04,1.413153696e-05,-5.552444380e-04,-5.877486737e-04,8.249788439e-05,-5.052507893e-04,-4.278472498e-04,5.384975590e-05,-3.739974939e-04,-8.990561110e-04,6.371581485e-05,-8.353402962e-04,-1.223049771e-03,2.561223949e-04,-9.669273756e-04,-6.840428498e-04,2.558729890e-05,-6.584555509e-04,-8.213300846e-04,-3.486484560e-05,-8.561949302e-04,-1.127559370e-03,4.132033820e-05,-1.086239032e-03,-1.167032142e-03,7.317959954e-05,-1.093852543e-03,-7.689765299e-04,8.199561986e-05,-6.869809101e-04,-9.760369356e-04,-8.964900973e-05,-1.065685945e-03,-6.689000473e-04,1.512144598e-04,-5.176855876e-04,-3.828087536e-04,9.404688518e-05,-2.887618685e-04,-5.886215469e-04,5.052505882e-05,-5.380964881e-04,9.015269300e-06,5.048708805e-05,5.950235735e-05,-5.924557364e-05,-1.902299890e-05,-7.826857254e-05,-7.939873636e-04,1.341403790e-05,-7.805733257e-04,-5.169738615e-04,-9.640363967e-06,-5.266142254e-04,-1.306575448e-03,2.376413367e-04,-1.068934111e-03,-7.126681549e-04,3.016760431e-05,-6.825005506e-04,-1.019951124e-03,4.471608250e-05,-9.752350413e-04,-1.236592165e-03,5.775766812e-05,-1.178834497e-03,-1.262395489e-03,-1.021740312e-04,-1.364569520e-03,-1.168278107e-03,1.141412080e-05,-1.156863986e-03,-1.160616017e-03,-2.242954574e-05,-1.183045563e-03,-1.330477964e-03,5.698742137e-05,-1.273490543e-03,-1.043867327e-03,-2.334914111e-05,-1.067216468e-03,-1.749451673e-03,1.363379608e-04,-1.613113712e-03
-6.9,1.299237951e-04,5.729849398e-06,1.356536445e-04,-1.904664766e-04,6.393173422e-05,-1.265347424e-04,-1.953991270e-04,5.560667510e-05,-1.397924519e-04,-4.316879926e-04,2.803218172e-05,-4.036558109e-04,-4.762645889e-04,5.306776230e-05,-4.231968266e-04,-5.717345707e-04,1.401029458e-04,-4.316316249e-04,-5.625068400e-04,6.928304252e-05,-4.932237975e-04,-6.400617959e-04,1.308548099e-04,-5.092069860e-04,-5.523536879e-04,1.418429074e-05,-5.381693971e-04,-5.643870701e-04,8.253820911e-05,-4.818488610e-04,-4.112754254e-04,5.460419099e-05,-3.566712344e-04,-8.822762381e-04,5.971347755e-05,-8.225627605e-04,-1.207533208e-03,2.517542662e-04,-9.557789414e-04,-6.763149749e-04,2.068147415e-05,-6.556335008e-04,-8.133735946e-04,-3.518319373e-05,-8.485567884e-04,-1.097556846e-03,3.912170518e-05,-1.058435141e-03,-1.117926466e-03,6.632059626e-05,-1.051605870e-03,-7.527275737e-04,7.820662678e-05,-6.745209469e-04,-9.614917986e-04,-8.991038372e-05,-1.051402182e-03,-6.409715438e-04,1.505082414e-04,-4.904633024e-04,-3.631887717e-04,9.450688144e-05,-2.686818902e-04,-5.742331393e-04,5.034856078e-05,-5.238845785e-04,9.922414312e-06,5.265279995e-05,6.257521427e-05,-4.904384691e-05,-1.557510478e-05,-6.461895169e-05,-7.664297363e-04,8.513593386e-06,-7.579161429e-04,-5.087640435e-04,-1.347043594e-05,-5.222344795e-04,-1.290758497e-03,2.390492471e-04,-1.051709250e-03,-7.074177048e-04,3.090329376e-05,-6.765144111e-04,-1.018762265e-03,4.699767045e-05,-9.717645941e-04,-1.200507348e-03,5.398488609e-05,-1.146522462e-03,-1.260745426e-03,-9.604189601e-05,-1.356787322e-03,-1.140441009e-03,1.492838366e-05,-1.125512625e-03,-1.155765433e-03,-2.679408046e-05,-1.182559513e-03,-1.306028622e-03,6.001110038e-05,-1.246017522e-03,-1.027550045e-03,-2.151730222e-05,-1.049067347e-03,-1.751586618e-03,1.555455094e-04,-1.596041108e-03
-6.8,1.619722488e-04,3.852101958e-06,1.658243508e-04,-1.791126071e-04,5.748927125e-05,-1.216233359e-04,-1.961929011e-04,5.285880047e-05,-1.433341007e-04,-4.352833695e-04,2.772425656e-05,-4.075591130e-04,-4.649231976e-04,4.942362095e-05,-4.154995767e-04,-5.397541907e-04,1.312365446e-04,-4.085176461e-04,-5.411358968e-04,6.819899523e-05,-4.729369015e-04,-6.087674282e-04,1.282197367e-04,-4.805476916e-04,-5.345085080e-04,1.425775208e-05,-5.202507560e-04,-5.400013293e-04,8.243322254e-05,-4.575681068e-04,-3.940610383e-04,5.523540050e-05,-3.388256378e-04,-8.654783647e-04,5.569348557e-05,-8.097848791e-04,-1.190980412e-03,2.473144885e-04,-9.436659233e-04,-6.679791639e-04,1.585820463e-05,-6.521209592e-04,-8.048492122e-04,-3.524797413e-05,-8.400971864e-04,-1.066668967e-03,3.703430188e-05,-1.029634665e-03,-1.068280251e-03,5.992791647e-05,-1.008352335e-03,-7.352012339e-04,7.377231872e-05,-6.614289151e-04,-9.467420890e-04,-8.928519427e-05,-1.036027283e-03,-6.118298618e-04,1.494777505e-04,-4.623521114e-04,-3.428495011e-04,9.471552714e-05,-2.481339740e-04,-5.587936872e-04,5.007483958e-05,-5.087188476e-04,1.024307935e-05,5.459123588e-05,6.483431523e-05,-3.974520029e-05,-1.231941422e-05,-5.206461451e-05,-7.389682044e-04,3.941394869e-06,-7.350268095e-04,-5.010617465e-04,-1.689697218e-05,-5.179587187e-04,-1.271908743e-03,2.390205833e-04,-1.032888160e-03,-7.021442414e-04,3.235267811e-05,-6.697915633e-04,-1.016209133e-03,4.924805898e-05,-9.669610741e-04,-1.162858981e-03,5.014755981e-05,-1.112711421e-03,-1.257911871e-03,-8.855024130e-05,-1.346462113e-03,-1.111274488e-03,1.819741547e-05,-1.093077073e-03,-1.149329659e-03,-3.094830859e-05,-1.180277967e-03,-1.280456304e-03,6.320048946e-05,-1.217255814e-03,-1.010187804e-03,-1.960227840e-05,-1.029790083e-03,-1.748673143e-03,1.738932147e-04,-1.574779928e-03
-6.7,1.939555047e-04,1.930923050e-06,1.958864277e-04,-1.666861779e-04,5.098056946e-05,-1.157056085e-04,-1.968944167e-04,4.994862572e-05,-1.469457909e-04,-4.381267890e-04,2.731327979e-05,-4.108135093e-04,-4.531841223e-04,4.567528856e-05,-4.075088337e-04,-5.074176573e-04,1.221651369e-04,-3.852525204e-04,-5.189491939e-04,6.700722607e-05,-4.519419678e-04,-5.770278531e-04,1.254209609e-04,-4.516068923e-04,-5.158257714e-04,1.434885474e-05,-5.014769166e-04,-5.145884839e-04,8.217036447e-05,-4.324181194e-04,-3.762240818e-04,5.572946784e-05,-3.204946140e-04,-8.485262447e-04,5.168706965e-05,-7.968391750e-04,-1.173260661e-03,2.428480035e-04,-9.304126576e-04,-6.589065432e-04,1.113571428e-05,-6.477708289e-04,-7.956336201e-04,-3.510268702e-05,-8.307363071e-04,-1.034768535e-03,3.503753624e-05,-9.997309992e-04,-1.018020204e-03,5.398620406e-05,-9.640339997e-04,-7.164430207e-04,6.866978440e-05,-6.477732363e-04,-9.316394208e-04,-8.785633559e-05,-1.019495756e-03,-5.814614467e-04,1.480963584e-04,-4.333650883e-04,-3.218379325e-04,9.467108274e-05,-2.271668498e-04,-5.422852361e-04,4.970836142e-05,-4.925768747e-04,9.954132135e-06,5.629052556e-05,6.624465770e-05,-3.135232175e-05,-9.255752508e-06,-4.060807426e-05,-7.115601365e-04,-3.074325997e-07,-7.118675691e-04,-4.937689805e-04,-1.991098805e-05,-5.136799685e-04,-1.250021929e-03,2.375874476e-04,-1.012434481e-03,-6.967426641e-04,3.449562667e-05,-6.622470374e-04,-1.012194101e-03,5.147732025e-05,-9.607167803e-04,-1.123617484e-03,4.626909113e-05,-1.077348393e-03,-1.253836026e-03,-7.975691395e-05,-1.333592940e-03,-1.080820906e-03,2.122082725e-05,-1.059600079e-03,-1.141205258e-03,-3.481637601e-05,-1.176021634e-03,-1.253499972e-03,6.647490485e-05,-1.187025067e-03,-9.916702148e-04,-1.764311101e-05,-1.009313326e-03,-1.740579743e-03,1.913365186e-04,-1.549243224e-03
-6.6,2.257188003e-04,-2.350607325e-08,2.256952942e-04,-1.532194485e-04,4.443552484e-05,-1.087839237e-04,-1.974348295e-04,4.689771286e-05,-1.505371166e-04,-4.401154108e-04,2.680195701e-05,-4.133134538e-04,-4.409921789e-04,4.182133224e-05,-3.991708467e-04,-4.747121657e-04,1.129450185e-04,-3.617671472e-04,-4.959234535e-04,6.569955692e-05,-4.302238966e-04,-5.448083709e-04,1.224633563e-04,-4.223450146e-04,-4.962931549e-04,1.445420507e-05,-4.818389498e-04,-4.881463696e-04,8.173748964e-05,-4.064088799e-04,-3.577847363e-04,5.607254088e-05,-3.017121955e-04,-8.312657723e-04,4.771859951e-05,-7.835471728e-04,-1.154229556e-03,2.383839753e-04,-9.158455806e-04,-6.489690440e-04,6.530937027e-06,-6.424381069e-04,-7.856048768e-04,-3.478299837e-05,-8.203878752e-04,-1.001726540e-03,3.310968119e-05,-9.686168591e-04,-9.670639124e-04,4.847075909e-05,-9.185931533e-04,-6.965128461e-04,6.289000924e-05,-6.336228369e-04,-9.160303002e-04,-8.570325012e-05,-1.001733550e-03,-5.498547049e-04,1.463400236e-04,-4.035146813e-04,-3.002002074e-04,9.437268109e-05,-2.058275263e-04,-5.246910020e-04,4.925286001e-05,-4.754381420e-04,9.042383897e-06,5.774011291e-05,6.678249681e-05,-2.385769322e-05,-6.383666499e-06,-3.024135971e-05,-6.841518679e-04,-4.240541835e-06,-6.883924098e-04,-4.867773745e-04,-2.250329891e-05,-5.092806734e-04,-1.225105511e-03,2.347860411e-04,-9.903194700e-04,-6.911015295e-04,3.730535987e-05,-6.537961696e-04,-1.006613851e-03,5.369138246e-05,-9.529224690e-04,-1.082748408e-03,4.236832836e-05,-1.040380079e-03,-1.248441040e-03,-6.974284408e-05,-1.318183884e-03,-1.049117820e-03,2.400156161e-05,-1.025116259e-03,-1.131298386e-03,-3.831756217e-05,-1.169615949e-03,-1.224895947e-03,6.975151784e-05,-1.155144429e-03,-9.718813872e-04,-1.568008620e-05,-9.875614734e-04,-1.727225191e-03,2.078259838e-04,-1.519399207e-03
-6.5,2.571112027e-04,-1.999067804e-06,2.551121349e-04,-1.387533229e-04,3.788226523e-05,-1.008710577e-04,-1.977451945e-04,4.372728975e-05,-1.540179048e-04,-4.411438370e-04,2.619417630e-05,-4.149496607e-04,-4.282924588e-04,3.786024411e-05,-3.904322147e-04,-4.416237692e-04,1.036303685e-04,-3.379934006e-04,-4.720349738e-04,6.426861462e-05,-4.077663592e-04,-5.120687772e-04,1.193498428e-04,-3.927189344e-04,-4.759016208e-04,1.457005567e-05,-4.613315651e-04,-4.606747749e-04,8.112298265e-05,-3.795517923e-04,-3.387636926e-04,5.625103742e-05,-2.825126552e-04,-8.135286910e-04,4.380690825e-05,-7.697217827e-04,-1.133731771e-03,2.339344301e-04,-8.997973407e-04,-6.380421394e-04,2.059643432e-06,-6.359824959e-04,-7.746466123e-04,-3.431518737e-05,-8.089617997e-04,-9.674140303e-04,3.122879493e-05,-9.361852354e-04,-9.153218399e-04,4.334988289e-05,-8.719719570e-04,-6.754836599e-04,5.643960398e-05,-6.190440559e-04,-8.997625195e-04,-8.289798896e-05,-9.826605084e-04,-5.170013271e-04,1.441874495e-04,-3.728138776e-04,-2.779820188e-04,9.382021296e-05,-1.841618058e-04,-5.059963858e-04,4.871121356e-05,-4.572851722e-04,7.503917639e-06,5.893054493e-05,6.643446257e-05,-1.724362756e-05,-3.702122440e-06,-2.094575000e-05,-6.566810573e-04,-7.867766973e-06,-6.645488243e-04,-4.799703613e-04,-2.466463434e-05,-5.046349957e-04,-1.197178274e-03,2.306569773e-04,-9.665212971e-04,-6.851062617e-04,4.074900413e-05,-6.443572576e-04,-9.993599669e-04,5.589086372e-05,-9.434691032e-04,-1.040214232e-03,3.846015023e-05,-1.001754082e-03,-1.241633172e-03,-5.861020903e-05,-1.300243381e-03,-1.016193072e-03,2.654265437e-05,-9.896504173e-04,-1.119525295e-03,-4.136872035e-05,-1.160894015e-03,-1.194384121e-03,7.294756891e-05,-1.121436552e-03,-9.507029112e-04,-1.375287537e-05,-9.644557866e-04,-1.708563506e-03,2.233010861e-04,-1.485262420e-03
-6.4,2.879867411e-04,-3.981968099e-06,2.840047730e-04,-1.233376854e-04,3.134668075e-05,-9.199100464e-05,-1.977580440e-04,4.045792735e-05,-1.573001167e-04,-4.411056716e-04,2.549502281e-05,-4.156106488e-04,-4.150321276e-04,3.379060257e-05,-3.812415250e-04,-4.081377425e-04,9.427169738e-05,-3.138660451e-04,-4.472602828e-04,6.270788822e-05,-3.845523946e-04,-4.787648356e-04,1.160812974e-04,-3.626835382e-04,-4.546466473e-04,1.469232039e-05,-4.399543269e-04,-4.321770448e-04,8.031591727e-05,-3.518611275e-04,-3.191828580e-04,5.625191198e-05,-2.629309460e-04,-7.951369372e-04,3.996688442e-05,-7.551700527e-04,-1.111604539e-03,2.294932808e-04,-8.821112580e-04,-6.260075039e-04,-2.263459546e-06,-6.282709635e-04,-7.626511211e-04,-3.371578995e-05,-7.963669110e-04,-9.317039434e-04,2.937334448e-05,-9.023305989e-04,-8.626999860e-04,3.858754735e-05,-8.241124386e-04,-6.534400172e-04,4.934188294e-05,-6.040981342e-04,-8.826894994e-04,-7.950351317e-05,-9.621930126e-04,-4.828978682e-04,1.416201443e-04,-3.412777239e-04,-2.552293411e-04,9.301417247e-05,-1.622151686e-04,-4.861902264e-04,4.808533128e-05,-4.381048952e-04,5.343215869e-06,5.985328148e-05,6.519649735e-05,-1.148268698e-05,-1.209263223e-06,-1.269195020e-05,-6.290790214e-04,-1.120074542e-05,-6.402797668e-04,-4.732253701e-04,-2.638623967e-05,-4.996116098e-04,-1.166270366e-03,2.252456348e-04,-9.410247316e-04,-6.786423097e-04,4.478791609e-05,-6.338543936e-04,-9.903205127e-04,5.807025894e-05,-9.322502538e-04,-9.959769013e-04,3.455621113e-05,-9.614206901e-04,-1.233303090e-03,-4.648050401e-05,-1.279783594e-03,-9.820610033e-04,2.884460810e-05,-9.532163952e-04,-1.105811585e-03,-4.388759577e-05,-1.149699180e-03,-1.161714650e-03,7.598320772e-05,-1.085731443e-03,-9.280169326e-04,-1.189872618e-05,-9.399156588e-04,-1.684565936e-03,2.376826221e-04,-1.446883313e-03
-6.3,3.182050564e-04,-5.957088116e-06,3.122479683e-04,-1.070317142e-04,2.485205431e-05,-8.217965985e-05,-1.974089707e-04,3.710927776e-05,-1.602996930e-04,-4.398954537e-04,2.471081863e-05,-4.151846350e-04,-4.011622183e-04,2.961129185e-05,-3.715509265e-04,-3.742393383e-04,8.491459188e-05,-2.893247465e-04,-4.215770946e-04,6.101183272e-05,-3.605652619e-04,-4.448500444e-04,1.126565314e-04,-3.321935130e-04,-4.325294974e-04,1.481660605e-05,-4.177128913e-04,-4.026618541e-04,7.930621499e-05,-3.233556392e-04,-2.990662258e-04,5.606295277e-05,-2.430032730e-04,-7.759068368e-04,3.621058363e-05,-7.396962532e-04,-1.087681217e-03,2.250357282e-04,-8.626454889e-04,-6.127553777e-04,-6.424693544e-06,-6.191800713e-04,-7.495210101e-04,-3.299253487e-05,-7.825135450e-04,-8.944730657e-04,2.752267212e-05,-8.669503936e-04,-8.091030350e-04,3.414587700e-05,-7.749571580e-04,-6.304765753e-04,4.163755769e-05,-5.888390176e-04,-8.646727921e-04,-7.557339462e-05,-9.402461867e-04,-4.475473338e-04,1.386223554e-04,-3.089249784e-04,-2.319893484e-04,9.195543272e-05,-1.400339157e-04,-4.652661669e-04,4.737603752e-05,-4.178901294e-04,2.572175633e-06,6.050055874e-05,6.307273438e-05,-6.538462442e-06,1.097732682e-06,-5.440729760e-06,-6.012729348e-04,-1.425259487e-05,-6.155255297e-04,-4.664157916e-04,-2.766094608e-05,-4.940767376e-04,-1.132423649e-03,2.186028614e-04,-9.138207878e-04,-6.715981612e-04,4.937783425e-05,-6.222203270e-04,-9.793822854e-04,6.021760077e-05,-9.191646847e-04,-9.500007516e-04,3.066551713e-05,-9.193352345e-04,-1.223327200e-03,-3.349269971e-05,-1.256819900e-03,-9.467195802e-04,3.090338156e-05,-9.158161986e-04,-1.090090729e-03,-4.579652520e-05,-1.135887254e-03,-1.126654198e-03,7.878415039e-05,-1.047870048e-03,-9.037091954e-04,-1.015070541e-05,-9.138599008e-04,-1.655206367e-03,2.508684628e-04,-1.404337905e-03
-6.2,3.476316117e-04,-7.908355308e-06,3.397232564e-04,-8.990411416e-05,1.841887256e-05,-7.148524161e-05,-1.966380259e-04,3.369989262e-05,-1.629381333e-04,-4.374107727e-04,2.384915565e-05,-4.135616170e-04,-3.866391341e-04,2.532177328e-05,-3.613173608e-04,-3.399148308e-04,7.559875239e-05,-2.643160784e-04,-3.949654644e-04,5.917599354e-05,-3.357894709e-04,-4.102774909e-04,1.090722805e-04,-3.012052104e-04,-4.095582390e-04,1.493824389e-05,-3.946199952e-04,-3.721448034e-04,7.808476873e-05,-2.940600347e-04,-2.784406418e-04,5.567307358e-05,-2.227675682e-04,-7.556530906e-04,3.254775619e-05,-7.231053344e-04,-1.061793565e-03,2.205174919e-04,-8.412760728e-04,-5.981863805e-04,-1.041148616e-05,-6.085978667e-04,-7.351695057e-04,-3.214631841e-05,-7.673158241e-04,-8.556043034e-04,2.565748027e-05,-8.299468231e-04,-7.544378431e-04,2.998716848e-05,-7.244506746e-04,-6.066964651e-04,3.338519132e-05,-5.733112738e-04,-8.455833578e-04,-7.115218380e-05,-9.167355416e-04,-4.109605667e-04,1.351809555e-04,-2.757796112e-04,-2.083113400e-04,9.064502471e-05,-1.176663153e-04,-4.432239771e-04,4.658299912e-05,-3.966409779e-04,-7.908227887e-07,6.086534822e-05,6.007452543e-05,-2.366608165e-06,3.222680804e-06,8.560726389e-07,-5.731877393e-04,-1.703764743e-05,-5.902253867e-04,-4.594125665e-04,-2.848449574e-05,-4.878970622e-04,-1.095691575e-03,2.107856963e-04,-8.849058792e-04,-6.638678142e-04,5.446879370e-05,-6.093990205e-04,-9.664331669e-04,6.231451620e-05,-9.041186507e-04,-9.022554524e-04,2.679491453e-05,-8.754605379e-04,-1.211569681e-03,-1.980102424e-05,-1.231370705e-03,-9.101483128e-04,3.270902697e-05,-8.774392858e-04,-1.072302642e-03,-4.702590392e-05,-1.119328546e-03,-1.088991007e-03,8.128353123e-05,-1.007707476e-03,-8.776720527e-04,-8.535897791e-06,-8.862079505e-04,-1.620454234e-03,2.627350797e-04,-1.357719155e-03
-6.1,3.761376093e-04,-9.819121943e-06,3.663184874e-04,-7.203313130e-05,1.206484109e-05,-5.996829021e-05,-1.953906934e-04,3.024711283e-05,-1.651435806e-04,-4.335543347e-04,2.291886833e-05,-4.106354664e-04,-3.714255739e-04,2.092238874e-05,-3.505031852e-04,-3.051527010e-04,6.635743534e-05,-2.387952656e-04,-3.674089469e-04,5.719711587e-05,-3.102118310e-04,-3.750015653e-04,1.053232005e-04,-2.696783648e-04,-3.857482432e-04,1.505232945e-05,-3.706959137e-04,-3.406494910e-04,7.664354411e-05,-2.640059469e-04,-2.573362182e-04,5.507258215e-05,-2.022636360e-04,-7.341925926e-04,2.898612786e-05,-7.052064647e-04,-1.033772402e-03,2.158737639e-04,-8.178986376e-04,-5.822125714e-04,-1.421258106e-05,-5.964251525e-04,-7.195198613e-04,-3.117365762e-05,-7.506935189e-04,-8.149891950e-04,2.376037371e-05,-7.912288213e-04,-6.986169539e-04,2.607546503e-05,-6.725414889e-04,-5.822094198e-04,2.466120801e-05,-5.575482118e-04,-8.253016308e-04,-6.627660652e-05,-8.915782373e-04,-3.731572210e-04,1.312853537e-04,-2.418718673e-04,-1.842474286e-04,8.908402023e-05,-9.516340842e-05,-4.200706299e-04,4.570475002e-05,-3.743658799e-04,-4.721614013e-06,6.094142266e-05,5.621980864e-05,1.084043478e-06,5.170333602e-06,6.254377080e-06,-5.447475699e-04,-1.957133416e-05,-5.643189040e-04,-4.520852541e-04,-2.885685180e-05,-4.809421059e-04,-1.056138064e-03,2.018576902e-04,-8.542803742e-04,-6.553517846e-04,6.000452071e-05,-5.953472639e-04,-9.513642882e-04,6.433664388e-05,-8.870276443e-04,-8.527186873e-04,2.294980208e-05,-8.297688852e-04,-1.197885632e-03,-5.572011992e-06,-1.203457644e-03,-8.723071458e-04,3.424526531e-05,-8.380618805e-04,-1.052392789e-03,-4.751676451e-05,-1.099909553e-03,-1.048538730e-03,8.342317984e-05,-9.651155500e-04,-8.498073327e-04,-7.073600200e-06,-8.568809329e-04,-1.580274297e-03,2.731435154e-04,-1.307130781e-03
-6,4.035997818e-04,-1.167257297e-05,3.919272088e-04,-5.350618842e-05,5.805060903e-06,-4.770112751e-05,-1.936183004e-04,2.676701839e-05,-1.668512820e-04,-4.282358212e-04,2.192993028e-05,-4.063058909e-04,-3.554907340e-04,1.641467713e-05,-3.390760568e-04,-2.699447719e-04,5.721742092e-05,-2.127273510e-04,-3.388955919e-04,5.507323281e-05,-2.838223591e-04,-3.389794386e-04,1.014019416e-04,-2.375774970e-04,-3.611220409e-04,1.515378184e-05,-3.459682591e-04,-3.082079040e-04,7.497568918e-05,-2.332322149e-04,-2.357862830e-04,5.425341257e-05,-1.815328704e-04,-7.113476874e-04,2.553160116e-05,-6.858160863e-04,-1.003447754e-03,2.110186535e-04,-7.924291003e-04,-5.647578007e-04,-1.781832224e-05,-5.825761230e-04,-7.025042803e-04,-3.006917070e-05,-7.325734510e-04,-7.725303844e-04,2.181642643e-05,-7.507139579e-04,-6.415617055e-04,2.237776896e-05,-6.191839365e-04,-5.571292293e-04,1.555905899e-05,-5.415701703e-04,-8.037161819e-04,-6.097787213e-05,-8.646940540e-04,-3.341661647e-04,1.269274058e-04,-2.072387589e-04,-1.598527739e-04,8.727352724e-05,-7.257924667e-05,-3.958209707e-04,4.473880999e-05,-3.510821607e-04,-9.190637499e-06,6.072350504e-05,5.153286754e-05,3.870409847e-06,6.946269556e-06,1.081667940e-05,-5.158766536e-04,-2.187018827e-05,-5.377468418e-04,-4.443026219e-04,-2.878323430e-05,-4.730858562e-04,-1.013835377e-03,1.918887380e-04,-8.219466394e-04,-6.459559825e-04,6.592123873e-05,-5.800347437e-04,-9.340720180e-04,6.625445551e-05,-8.678175625e-04,-8.013783509e-04,1.913511363e-05,-7.822432373e-04,-1.182124747e-03,9.019020301e-06,-1.173105727e-03,-8.331366859e-04,3.549036883e-05,-7.976463171e-04,-1.030311597e-03,-4.722228573e-05,-1.077533882e-03,-1.005139060e-03,8.515474687e-05,-9.199843126e-04,-8.200288971e-04,-5.773765896e-06,-8.258026630e-04,-1.534631286e-03,2.819482657e-04,-1.252683020e-03
-5.9,4.299001252e-04,-1.345214862e-05,4.164479766e-04,-3.441908841e-05,-3.476910680e-07,-3.476677947e-05,-1.912779260e-04,2.327444495e-05,-1.680034810e-04,-4.213735159e-04,2.089329288e-05,-4.004802230e-04,-3.388098682e-04,1.180169208e-05,-3.270081762e-04,-2.342870526e-04,4.819942195e-05,-1.860876307e-04,-3.094187445e-04,5.280373794e-05,-2.566150066e-04,-3.021723870e-04,9.729942009e-05,-2.048729669e-04,-3.357086112e-04,1.523741282e-05,-3.204711983e-04,-2.748602055e-04,7.307564934e-05,-2.017845562e-04,-2.138269115e-04,5.320930247e-05,-1.606176091e-04,-6.869483967e-04,2.218822825e-05,-6.647601685e-04,-9.706500236e-04,2.058463350e-04,-7.648036886e-04,-5.457575881e-04,-2.122093042e-05,-5.669785185e-04,-6.840624542e-04,-2.882798532e-05,-7.128904395e-04,-7.281437987e-04,1.981377473e-05,-7.083300240e-04,-5.832045188e-04,1.886477574e-05,-5.643397430e-04,-5.315698431e-04,6.187104323e-06,-5.253827388e-04,-7.807214373e-04,-5.528460930e-05,-8.360060466e-04,-2.940253638e-04,1.221013041e-04,-1.719240597e-04,-1.351853156e-04,8.521472359e-05,-4.997059201e-05,-3.704979560e-04,4.368184634e-05,-3.268161096e-04,-1.416307293e-05,6.020747688e-05,4.604440394e-05,6.054126447e-06,8.556748054e-06,1.461087450e-05,-4.864998433e-04,-2.395185324e-05,-5.104516965e-04,-4.359330722e-04,-2.827468366e-05,-4.642077558e-04,-9.688614638e-04,1.809546195e-04,-7.879068443e-04,-6.355888810e-04,7.214636863e-05,-5.634425124e-04,-9.144598308e-04,6.803440947e-05,-8.464254213e-04,-7.482340769e-04,1.535632198e-05,-7.328777549e-04,-1.164134111e-03,2.379124098e-05,-1.140342870e-03,-7.925601083e-04,3.641930597e-05,-7.561408023e-04,-1.006013442e-03,-4.610882075e-05,-1.052122263e-03,-9.586630712e-04,8.644058515e-05,-8.722224860e-04,-7.882647723e-04,-4.635990442e-06,-7.929007628e-04,-1.483498662e-03,2.890090291e-04,-1.194489633e-03
-5.8,4.549255684e-04,-1.514192857e-05,4.397836398e-04,-1.487485549e-05,-6.382608551e-06,-2.125746404e-05,-1.883319891e-04,1.978306817e-05,-1.685489210e-04,-4.128957499e-04,1.982067080e-05,-3.930750791e-04,-3.213634553e-04,7.088308564e-06,-3.142751467e-04,-1.981801843e-04,3.931873315e-05,-1.588614512e-04,-2.789776974e-04,5.038942432e-05,-2.285882730e-04,-2.645471050e-04,9.300536798e-05,-1.715417370e-04,-3.095422709e-04,1.529798725e-05,-2.942442837e-04,-2.406541453e-04,7.093925510e-05,-1.697148902e-04,-1.914961674e-04,5.193589972e-05,-1.395602677e-04,-6.608336194e-04,1.895782626e-05,-6.418757931e-04,-9.352126974e-04,2.002344711e-04,-7.349782263e-04,-5.251587572e-04,-2.441475209e-05,-5.495735093e-04,-6.641397195e-04,-2.744806008e-05,-6.915877796e-04,-6.817604151e-04,1.774425000e-05,-6.640161651e-04,-5.234901374e-04,1.551093162e-05,-5.079792058e-04,-5.056399516e-04,-3.335071141e-06,-5.089750227e-04,-7.562150479e-04,-4.922577339e-05,-8.054408212e-04,-2.527815391e-04,1.168035279e-04,-1.359780113e-04,-1.103051560e-04,8.290889023e-05,-2.739626580e-05,-3.441325744e-04,4.252984713e-05,-3.016027273e-04,-1.959886312e-05,5.939063100e-05,3.979176787e-05,7.700478397e-06,1.000856164e-05,1.770904004e-05,-4.565430053e-04,-2.583504541e-05,-4.823780507e-04,-4.268451829e-04,-2.734816946e-05,-4.541933523e-04,-9.212980307e-04,1.691369540e-04,-7.521610767e-04,-6.241582888e-04,7.859783815e-05,-5.455604507e-04,-8.924401285e-04,6.964035739e-05,-8.227997711e-04,-6.932980882e-04,1.162021466e-05,-6.816778736e-04,-1.143759142e-03,3.856026881e-05,-1.105198873e-03,-7.504865968e-04,3.700647282e-05,-7.134801240e-04,-9.794548981e-04,-4.415712776e-05,-1.023612026e-03,-9.090114696e-04,8.725411537e-05,-8.217573543e-04,-7.544586986e-04,-3.649219737e-06,-7.581079183e-04,-1.426871110e-03,2.942045479e-04,-1.132666563e-03
-5.7,4.785675544e-04,-1.672695463e-05,4.618405998e-04,5.017617020e-06,-1.229045222e-05,-7.272835204e-06,-1.847477334e-04,1.630552239e-05,-1.684422110e-04,-4.027422526e-04,1.872426967e-05,-3.840179830e-04,-3.031363018e-04,2.281495130e-06,-3.008548067e-04,-1.616296681e-04,3.058597411e-05,-1.310436940e-04,-2.475783051e-04,4.783246103e-05,-1.997458441e-04,-2.260770968e-04,8.850914762e-05,-1.375679492e-04,-2.826614414e-04,1.533027679e-05,-2.673311646e-04,-2.056444267e-04,6.856377563e-05,-1.370806510e-04,-1.688333012e-04,5.043081266e-05,-1.184024886e-04,-6.328517713e-04,1.583930395e-05,-6.170124674e-04,-8.969753646e-04,1.940489276e-04,-7.029264370e-04,-5.029190427e-04,-2.739649883e-05,-5.303155415e-04,-6.426851511e-04,-2.593220042e-05,-6.686173516e-04,-6.333275776e-04,1.560391826e-05,-6.177236593e-04,-4.623759671e-04,1.229387465e-05,-4.500820925e-04,-4.794371085e-04,-1.288149291e-05,-4.923186014e-04,-7.300951254e-04,-4.283334563e-05,-7.729284710e-04,-2.104899701e-04,1.110329706e-04,-9.945699943e-05,-8.527384893e-05,8.035747913e-05,-4.916369803e-06,-3.167636246e-04,4.127832046e-05,-2.754853041e-04,-2.545279618e-05,5.827193815e-05,3.281914196e-05,8.877237170e-06,1.130893313e-05,2.018617030e-05,-4.259334276e-04,-2.753948500e-05,-4.534729126e-04,-4.169084735e-04,-2.602646067e-05,-4.429349342e-04,-8.712306797e-04,1.565244242e-04,-7.147062555e-04,-6.115690112e-04,8.518441177e-05,-5.263845995e-04,-8.679361712e-04,7.103523192e-05,-7.969009393e-04,-6.365955537e-04,7.935261732e-06,-6.286602920e-04,-1.120843121e-03,5.313869523e-05,-1.067704426e-03,-7.068156251e-04,3.722814739e-05,-6.695874777e-04,-9.505928299e-04,-4.136372601e-05,-9.919565560e-04,-8.561144081e-04,8.757966233e-05,-7.685347458e-04,-7.185710188e-04,-2.792254319e-06,-7.213632731e-04,-1.364778915e-03,2.974458475e-04,-1.067333068e-03
-5.6,5.007215206e-04,-1.819352659e-05,4.825279941e-04,2.514490367e-05,-1.806313698e-05,7.081766683e-06,-1.804968152e-04,1.285350978e-05,-1.676433054e-04,-3.908655136e-04,1.761646947e-05,-3.732490441e-04,-2.841169046e-04,-2.609473893e-06,-2.867263785e-04,-1.246461559e-04,2.200782564e-05,-1.026383302e-04,-2.152337369e-04,4.513630897e-05,-1.700974279e-04,-1.867441681e-04,8.380074636e-05,-1.029434218e-04,-2.551075843e-04,1.532913418e-05,-2.397784501e-04,-1.698923570e-04,6.594797021e-05,-1.039443868e-04,-1.458782051e-04,4.869364232e-05,-9.718456275e-05,-6.028614701e-04,1.282788244e-05,-5.900335877e-04,-8.557855780e-04,1.871482572e-04,-6.686373209e-04,-4.790068411e-04,-3.016544559e-05,-5.091722867e-04,-6.196502378e-04,-2.428937494e-05,-6.439396127e-04,-5.828098173e-04,1.339322155e-05,-5.694165957e-04,-3.998321044e-04,9.193664749e-06,-3.906384396e-04,-4.530427558e-04,-2.232485902e-05,-4.753676149e-04,-7.022578877e-04,-3.614452695e-05,-7.384024147e-04,-1.672146692e-04,1.047912457e-04,-6.242342354e-05,-6.015380580e-05,7.756223518e-05,1.740842938e-05,-2.884374682e-04,3.992253460e-05,-2.485149336e-04,-3.167474681e-05,5.685228225e-05,2.517753544e-05,9.653427917e-06,1.246547536e-05,2.211890327e-05,-3.946004177e-04,-2.908578573e-05,-4.236862034e-04,-4.059944963e-04,-2.433790263e-05,-4.303323989e-04,-8.187511539e-04,1.432152243e-04,-6.755359297e-04,-5.977220183e-04,9.180693874e-05,-5.059150796e-04,-8.408841393e-04,7.218291385e-05,-7.687012254e-04,-5.781646833e-04,4.311500459e-06,-5.738531828e-04,-1.095226931e-03,6.733637305e-05,-1.027890558e-03,-6.614413855e-04,3.706417723e-05,-6.243772082e-04,-9.193833468e-04,-3.774177957e-05,-9.571251264e-04,-7.999315059e-04,8.741188302e-05,-7.125196229e-04,-6.805791346e-04,-2.034914353e-06,-6.826140489e-04,-1.297300853e-03,2.986859636e-04,-9.986148894e-04
-5.5,5.212862917e-04,-1.952950424e-05,5.017567875e-04,4.539024342e-05,-2.369335092e-05,2.169689249e-05,-1.755551100e-04,9.437894138e-06,-1.661172159e-04,-3.772321745e-04,1.650949615e-05,-3.607226783e-04,-2.642972018e-04,-7.572871033e-06,-2.718700728e-04,-8.724593882e-05,1.358771440e-05,-7.365822442e-05,-1.819655132e-04,4.230561132e-05,-1.396599019e-04,-1.465399456e-04,7.887180441e-05,-6.766814119e-05,-2.269244534e-04,1.528961165e-05,-2.116348417e-04,-1.334659167e-04,6.309215825e-05,-7.037375848e-05,-1.226712615e-04,4.672602040e-05,-7.594524113e-05,-5.707328288e-04,9.914566704e-06,-5.608182621e-04,-8.114998626e-04,1.793878143e-04,-6.321120484e-04,-4.534011393e-04,-3.272351793e-05,-4.861246572e-04,-5.949887272e-04,-2.253493138e-05,-6.175236586e-04,-5.301891622e-04,1.111650929e-05,-5.190726529e-04,-3.358418363e-04,6.192366532e-06,-3.296494698e-04,-4.265181870e-04,-3.154136059e-05,-4.580595476e-04,-6.725966031e-04,-2.920278419e-05,-7.017993873e-04,-1.230289004e-04,9.808305489e-05,-2.494584550e-05,-3.500789924e-05,7.452532055e-05,3.951742132e-05,-2.592077628e-04,3.845777374e-05,-2.207499891e-04,-3.821006518e-05,5.513463684e-05,1.692457166e-05,1.009811493e-05,1.348619158e-05,2.358430651e-05,-3.624762193e-04,-3.049525162e-05,-3.929714710e-04,-3.939782663e-04,-2.231606370e-05,-4.162943300e-04,-7.639606326e-04,1.293197576e-04,-6.346408750e-04,-5.825148758e-04,9.836004093e-05,-4.841548348e-04,-8.112351940e-04,7.305001886e-05,-7.381851751e-04,-5.180567544e-04,7.600835676e-07,-5.172966709e-04,-1.066750393e-03,8.096198812e-05,-9.857884052e-04,-6.142573093e-04,3.649897895e-05,-5.777583304e-04,-8.857819230e-04,-3.332130163e-05,-9.191032246e-04,-7.404523618e-04,8.675496070e-05,-6.536974011e-04,-6.404778949e-04,-1.339506384e-06,-6.418174013e-04,-1.224572764e-03,2.979250073e-04,-9.266477567e-04
-5.4,5.401634232e-04,-2.072459202e-05,5.194388312e-04,6.563458550e-05,-2.917421045e-05,3.646037505e-05,-1.699027300e-04,6.068808005e-06,-1.638339220e-04,-3.618243671e-04,1.541511721e-05,-3.464092499e-04,-2.436726449e-04,-1.259441910e-05,-2.562670640e-04,-4.945164942e-05,5.326488000e-06,-4.412516142e-05,-1.478048374e-04,3.934608231e-05,-1.084587551e-04,-1.054673037e-04,7.371649294e-05,-3.175081080e-05,-1.981576500e-04,1.520711257e-05,-1.829505375e-04,-9.644018013e-05,5.999828689e-05,-3.644189325e-05,-9.925354136e-05,4.453164122e-05,-5.472190014e-05,-5.363497686e-04,7.086374512e-06,-5.292633941e-04,-7.639853808e-04,1.706245152e-04,-5.933608656e-04,-4.260915571e-04,-3.507525524e-05,-4.611668124e-04,-5.686577693e-04,-2.068959282e-05,-5.893473621e-04,-4.754650700e-04,8.781038391e-06,-4.666840316e-04,-2.704030288e-04,3.274266541e-06,-2.671287622e-04,-3.999007388e-04,-4.041527500e-05,-4.403160138e-04,-6.410019030e-04,-2.205785025e-05,-6.630597532e-04,-7.801588369e-05,9.091649910e-05,1.290061541e-05,-9.899263836e-06,7.124938244e-05,6.135011860e-05,-2.291351341e-04,3.687957132e-05,-1.922555628e-04,-4.500007034e-05,5.312419143e-05,8.124121095e-06,1.027926638e-05,1.437949503e-05,2.465876141e-05,-3.294972342e-04,-3.178953604e-05,-3.612867703e-04,-3.807399290e-04,-1.999916390e-05,-4.007390929e-04,-7.069728704e-04,1.149623504e-04,-5.920105200e-04,-5.658427280e-04,1.047337937e-04,-4.611089343e-04,-7.789575062e-04,7.360747479e-05,-7.053500314e-04,-4.563361850e-04,-2.707283620e-06,-4.590434686e-04,-1.035255423e-03,9.382645470e-05,-9.414289680e-04,-5.651612059e-04,3.552231878e-05,-5.296388871e-04,-8.497441379e-04,-2.814904909e-05,-8.778931870e-04,-6.776977062e-04,8.562176900e-05,-5.920759372e-04,-5.982801133e-04,-6.622961561e-07,-5.989424095e-04,-1.146791219e-03,2.952114364e-04,-8.515797828e-04
-5.3,5.572565447e-04,-2.177055085e-05,5.354859938e-04,8.575750020e-05,-3.449892820e-05,5.125857201e-05,-1.635241863e-04,2.755785758e-06,-1.607684006e-04,-3.446409091e-04,1.434437390e-05,-3.302965352e-04,-2.222424683e-04,-1.765724186e-05,-2.398997102e-04,-1.129309926e-05,-2.776938261e-06,-1.407003752e-05,-1.127940784e-04,3.626437773e-05,-7.652970072e-05,-6.354162710e-05,6.833210861e-05,4.790481501e-06,-1.688544250e-04,1.507754342e-05,-1.537768816e-04,-5.889792377e-05,5.666996535e-05,-2.227958426e-06,-7.566722316e-05,4.211626477e-05,-3.355095839e-05,-4.996133261e-04,4.327553610e-06,-4.952857725e-04,-7.131231612e-04,1.607225481e-04,-5.524006131e-04,-3.970784739e-04,-3.722770579e-05,-4.343061797e-04,-5.406199500e-04,-1.877764427e-05,-5.593975942e-04,-4.186542214e-04,6.395675415e-06,-4.122585460e-04,-2.035299698e-04,4.262224120e-07,-2.031037473e-04,-3.732005346e-04,-4.884304865e-05,-4.220435832e-04,-6.073627778e-04,-1.476583966e-05,-6.221286174e-04,-3.226954095e-05,8.330328690e-05,5.103374595e-05,1.510872252e-05,6.773758094e-05,8.284630346e-05,-1.982867861e-04,3.518392399e-05,-1.631028621e-04,-5.198261233e-05,5.082845973e-05,-1.154152597e-06,1.026271986e-05,1.515424940e-05,2.541696926e-05,-2.956054263e-04,-3.299014224e-05,-3.285955685e-04,-3.661666601e-04,-1.742920768e-05,-3.835958678e-04,-6.479161064e-04,1.002807945e-04,-5.476353119e-04,-5.475994595e-04,1.108153565e-04,-4.367841030e-04,-7.440381871e-04,7.383184741e-05,-6.702063397e-04,-3.930806053e-04,-6.078931820e-06,-3.991595371e-04,-1.000590315e-03,1.057475884e-04,-8.948427268e-04,-5.140613828e-04,3.413033782e-05,-4.799310450e-04,-8.112265553e-04,-2.228839530e-05,-8.335149506e-04,-6.117211958e-04,8.403307285e-05,-5.276881229e-04,-5.540171249e-04,4.504301585e-08,-5.539720819e-04,-1.064213006e-03,2.906407432e-04,-7.735722625e-04
-5.2,5.724707899e-04,-2.266131844e-05,5.498094714e-04,1.056379809e-04,-3.966048383e-05,6.597749703e-05,-1.564086027e-04,-4.921020902e-07,-1.569007048e-04,-3.256982787e-04,1.330732655e-05,-3.123909521e-04,-2.000100361e-04,-2.274188522e-05,-2.227519213e-04,2.719201583e-05,-1.072512009e-05,1.646689574e-05,-7.698815025e-05,3.306792148e-05,-4.392022877e-05,-2.079187055e-05,6.271935436e-05,4.192748381e-05,-1.390635990e-04,1.489744668e-05,-1.241661523e-04,-2.093017645e-05,5.311246228e-05,3.218228583e-05,-5.195602999e-05,3.948768790e-05,-1.246834209e-05,-4.604453309e-04,1.621403193e-06,-4.588239277e-04,-6.588128495e-04,1.495593944e-04,-5.092534551e-04,-3.663732634e-04,-3.919023257e-05,-4.055634960e-04,-5.108455587e-04,-1.682504720e-05,-5.276706059e-04,-3.597903729e-04,3.969543668e-06,-3.558208293e-04,-1.352547318e-04,-2.362819359e-06,-1.376175511e-04,-3.463990571e-04,-5.673622629e-05,-4.031352834e-04,-5.715681607e-04,-7.390249671e-06,-5.789584104e-04,1.410486129e-05,7.525886217e-05,8.936372346e-05,3.995234088e-05,6.399364948e-05,1.039459904e-04,-1.667360469e-04,3.336752290e-05,-1.333685240e-04,-5.909262406e-05,4.825738928e-05,-1.083523478e-05,1.011132458e-05,1.581984596e-05,2.593117054e-05,-2.607497292e-04,-3.411782035e-05,-2.948675496e-04,-3.501548495e-04,-1.465078547e-05,-3.648056350e-04,-5.869330371e-04,8.542310602e-05,-5.015099310e-04,-5.276791798e-04,1.164907479e-04,-4.111884319e-04,-7.064847225e-04,7.370621616e-05,-6.327785064e-04,-3.283807926e-04,-9.343809967e-06,-3.377246026e-04,-9.626144591e-04,1.165552202e-04,-8.460592389e-04,-4.608834728e-04,3.232701311e-05,-4.285564596e-04,-7.701877714e-04,-1.581898845e-05,-7.860067599e-04,-5.426114644e-04,8.201667954e-05,-4.605947849e-04,-5.077390368e-04,8.338213982e-07,-5.069052154e-04,-9.771510124e-04,2.843518493e-04,-6.927991631e-04
-5.1,5.857124715e-04,-2.339308023e-05,5.623193912e-04,1.251552061e-04,-4.465132349e-05,8.050388259e-05,-1.485498888e-04,-3.666150585e-06,-1.522160394e-04,-3.050312803e-04,1.231278921e-05,-2.927184911e-04,-1.769831429e-04,-2.782643809e-05,-2.048095810e-04,6.595785987e-05,-1.852188882e-05,4.743597105e-05,-4.045554006e-05,2.976469232e-05,-1.069084774e-05,2.273865003e-05,5.688233881e-05,7.962098884e-05,-1.088354300e-04,1.466411860e-05,-9.417131143e-05,1.736354760e-05,4.933267934e-05,6.669622693e-05,-2.816544734e-05,3.665569938e-05,8.490252042e-06,-4.187915400e-04,-1.048060778e-06,-4.198396007e-04,-6.009785993e-04,1.370319768e-04,-4.639466225e-04,-3.339986959e-04,-4.097406242e-05,-3.749727583e-04,-4.793145656e-04,-1.485799809e-05,-4.941725636e-04,-2.989244358e-04,1.510917181e-06,-2.974135187e-04,-6.562761522e-05,-5.103480001e-06,-7.073109522e-05,-3.194504162e-04,-6.402286451e-05,-3.834732807e-04,-5.335095056e-04,-3.324383389e-09,-5.335128300e-04,6.099033584e-05,6.680246167e-05,1.277927975e-04,6.456744734e-05,6.002201939e-05,1.245894667e-04,-1.345617984e-04,3.142801260e-05,-1.031337858e-04,-6.626253727e-05,4.542346250e-05,-2.083907478e-05,9.884418892e-06,1.638632909e-05,2.627074799e-05,-2.248872338e-04,-3.519201739e-05,-2.600792512e-04,-3.326123706e-04,-1.170973680e-05,-3.443221074e-04,-5.241789516e-04,7.054212331e-05,-4.536368283e-04,-5.059780907e-04,1.216467684e-04,-3.843313223e-04,-6.663255205e-04,7.322044137e-05,-5.931050791e-04,-2.623404202e-04,-1.249195991e-05,-2.748323801e-04,-9.212033080e-04,1.260962508e-04,-7.951070572e-04,-4.055771281e-04,3.012590657e-05,-3.754512215e-04,-7.265897738e-04,-8.835842192e-06,-7.354256160e-04,-4.704936260e-04,7.960643014e-05,-3.908871958e-04,-4.595142313e-04,1.756292701e-06,-4.577579386e-04,-8.859669971e-04,2.765208764e-04,-6.094461207e-04
-5,5.968891366e-04,-2.396434140e-05,5.729247952e-04,1.441893364e-04,-4.946312688e-05,9.472620950e-05,-1.399468235e-04,-6.757968734e-06,-1.467047922e-04,-2.826933290e-04,1.136806715e-05,-2.713252618e-04,-1.531741911e-04,-3.288675788e-05,-1.860609489e-04,1.049507357e-04,-2.617231145e-05,7.877842428e-05,-3.278859518e-06,2.636298932e-05,2.308412981e-05,6.699183486e-05,5.082833939e-05,1.178201743e-04,-7.822129650e-05,1.437571180e-05,-6.384558471e-05,5.587549109e-05,4.533909824e-05,1.012145893e-04,-4.342573090e-06,3.363202634e-05,2.928945325e-05,-3.746236235e-04,-3.695109355e-06,-3.783187329e-04,-5.395755072e-04,1.230631314e-04,-4.165123758e-04,-2.999894408e-04,-4.259149256e-05,-3.425809333e-04,-4.460181674e-04,-1.290188323e-05,-4.589200506e-04,-2.361248947e-04,-9.733271672e-07,-2.370982219e-04,5.282947618e-06,-7.808137431e-06,-2.525189812e-06,-2.922850796e-04,-7.064771299e-05,-3.629327926e-04,-4.930841429e-04,7.313256407e-06,-4.857708865e-04,1.082582058e-04,5.795708832e-05,1.662152941e-04,8.888955043e-05,5.582795700e-05,1.447175074e-04,-1.018476991e-04,2.936423953e-05,-7.248345952e-05,-7.342245102e-05,4.234177286e-05,-3.108067816e-05,9.637776269e-06,1.686456604e-05,2.650234231e-05,-1.879840209e-04,-3.623048539e-05,-2.242145063e-04,-3.134604502e-04,-8.652099567e-06,-3.221125497e-04,-4.598188978e-04,5.578943591e-05,-4.040294619e-04,-4.823964386e-04,1.261728440e-04,-3.562235946e-04,-6.236095856e-04,7.237101592e-05,-5.512385697e-04,-1.950755917e-04,-1.551486788e-05,-2.105904596e-04,-8.762537954e-04,1.342395057e-04,-7.420142897e-04,-3.481214537e-04,2.755170304e-05,-3.205697507e-04,-6.803995967e-04,-1.447740377e-06,-6.818473371e-04,-3.955294009e-04,7.684099872e-05,-3.186884022e-04,-4.094278958e-04,2.863052565e-06,-4.065648432e-04,-7.910613571e-04,2.673511643e-04,-5.237101929e-04
-4.9,6.059100428e-04,-2.437599570e-05,5.815340471e-04,1.626223997e-04,-5.408664624e-05,1.085357534e-04,-1.306030108e-04,-9.759454926e-06,-1.403624657e-04,-2.587562903e-04,1.047872947e-05,-2.482775608e-04,-1.286001941e-04,-3.789677903e-05,-1.664969731e-04,1.441097963e-04,-3.368267191e-05,1.104271244e-04,3.444515540e-05,2.287118009e-05,5.731633548e-05,1.118948215e-04,4.456741254e-05,1.564622340e-04,-4.727312002e-05,1.403129498e-05,-3.324182504e-05,9.449044706e-05,4.114167687e-05,1.356321239e-04,1.946447171e-05,3.043025551e-05,4.989472722e-05,-3.279399899e-04,-6.331806806e-06,-3.342717967e-04,-4.745953247e-04,1.076073157e-04,-3.669880090e-04,-2.643923114e-04,-4.405498612e-05,-3.084472975e-04,-4.109600295e-04,-1.098026177e-05,-4.219402912e-04,-1.714784536e-04,-3.477594891e-06,-1.749560485e-04,7.739051860e-05,-1.049272486e-05,6.689779374e-05,-2.648149714e-04,-7.657170536e-05,-3.413866767e-04,-4.501989182e-04,1.446915174e-05,-4.357297665e-04,1.557686379e-04,4.874939858e-05,2.045180365e-04,1.128541571e-04,5.141764897e-05,1.642718061e-04,-6.868112059e-05,2.717644716e-05,-4.150467343e-05,-8.050000830e-05,3.903007771e-05,-4.146993059e-05,9.424026995e-06,1.726644620e-05,2.669047319e-05,-1.500156466e-04,-3.724900511e-05,-1.872646517e-04,-2.926347184e-04,-5.523608439e-06,-2.981583268e-04,-3.940249415e-04,4.130990727e-05,-3.527150343e-04,-4.568401465e-04,1.299625964e-04,-3.268775501e-04,-5.784054803e-04,7.116081265e-05,-5.072446676e-04,-1.267140099e-04,-1.840585900e-05,-1.451198689e-04,-8.276900182e-04,1.408802720e-04,-6.868097462e-04,-2.885281011e-04,2.464087368e-05,-2.638872274e-04,-6.315911226e-04,6.224896022e-06,-6.253662266e-04,-3.179152645e-04,7.376245732e-05,-2.441528071e-04,-3.575797310e-04,4.200136552e-06,-3.533795944e-04,-6.928592599e-04,2.570582050e-04,-4.358010548e-04
-4.8,6.126870143e-04,-2.463134591e-05,5.880556684e-04,1.803393191e-04,-5.851159050e-05,1.218277286e-04,-1.205266683e-04,-1.266278686e-05,-1.331894551e-04,-2.333097781e-04,9.648427694e-06,-2.236613504e-04,-1.032825664e-04,-4.282888412e-05,-1.461114505e-04,1.833680451e-04,-4.106038101e-05,1.423076641e-04,7.260631992e-05,1.929743740e-05,9.190375732e-05,1.573604601e-04,3.811197334e-05,1.954724335e-04,-1.604254429e-05,1.363083302e-05,-2.411711277e-06,1.330871203e-04,3.675167909e-05,1.698387994e-04,4.320757261e-05,2.706570454e-05,7.027327715e-05,-2.787657297e-04,-8.967424266e-06,-2.877331540e-04,-4.060699648e-04,9.065350061e-05,-3.154164642e-04,-2.272658159e-04,-4.537654113e-05,-2.726423570e-04,-3.741572191e-04,-9.113769052e-06,-3.832709881e-04,-1.050905760e-04,-5.996965788e-06,-1.110875418e-04,1.505908103e-04,-1.317770062e-05,1.374131097e-04,-2.369388297e-04,-8.177087519e-05,-3.187097049e-04,-4.047743186e-04,2.136806065e-05,-3.834062579e-04,2.033717016e-04,3.920953923e-05,2.425812409e-04,1.363974095e-04,4.679824818e-05,1.831956577e-04,-3.515178717e-05,2.486641264e-05,-1.028537453e-05,-8.742006311e-05,3.550882237e-05,-5.191124074e-05,9.293430682e-06,1.760509519e-05,2.689852587e-05,-1.109673051e-04,-3.826116714e-05,-1.492284722e-04,-2.700853723e-04,-2.369601395e-06,-2.724549737e-04,-3.269740862e-04,2.723730097e-05,-2.997367852e-04,-4.292218668e-04,1.329150962e-04,-2.963067706e-04,-5.307995937e-04,6.959879350e-05,-4.612008002e-04,-5.739371926e-05,-2.116060349e-05,-7.855432276e-05,-7.754683604e-04,1.459441552e-04,-6.295242052e-04,-2.268413919e-04,2.144092216e-05,-2.054004698e-04,-5.801466327e-04,1.405237276e-05,-5.660942599e-04,-2.378782244e-04,7.041440383e-05,-1.674638205e-04,-3.040812158e-04,5.806358215e-06,-2.982748576e-04,-5.917930990e-04,2.458509902e-04,-3.459421088e-04
-4.7,6.171355997e-04,-2.473605328e-05,5.923995464e-04,1.972291062e-04,-6.272656959e-05,1.345025366e-04,-1.097302717e-04,-1.546044593e-05,-1.251907177e-04,-2.064598458e-04,8.878752687e-06,-1.975810931e-04,-7.724675072e-05,-4.765433766e-05,-1.249010884e-04,2.226534208e-04,-4.831370567e-05,1.743397152e-04,1.110824220e-04,1.564950054e-05,1.267319226e-04,2.032881697e-04,3.147642391e-05,2.347645936e-04,1.541992038e-05,1.317508166e-05,2.859500205e-05,1.715399062e-04,3.218146365e-05,2.037213699e-04,6.683989649e-05,2.355524089e-05,9.039513738e-05,-2.271517623e-04,-1.160748041e-05,-2.387592427e-04,-3.340727406e-04,7.222468682e-05,-2.618480538e-04,-1.886789433e-04,-4.656751854e-05,-2.352464618e-04,-3.356405242e-04,-7.319247564e-06,-3.429597718e-04,-3.708565765e-05,-8.526378706e-06,-4.561203635e-05,2.247622968e-04,-1.588846067e-05,2.088738362e-04,-2.085473643e-04,-8.623444411e-05,-2.947818084e-04,-3.567493489e-04,2.791218747e-05,-3.288371614e-04,2.509088437e-04,2.937097132e-05,2.802798150e-04,1.594569256e-04,4.197794480e-05,2.014348704e-04,-1.350231556e-06,2.243754319e-05,2.108731164e-05,-9.410437733e-05,3.180108360e-05,-6.230329373e-05,9.294792096e-06,1.789507255e-05,2.718986464e-05,-7.083367602e-05,-3.927825868e-05,-1.101119347e-04,-2.457767020e-04,7.649287031e-07,-2.450117733e-04,-2.588466769e-04,1.369100543e-05,-2.451556714e-04,-3.994614834e-04,1.349357987e-04,-2.645256848e-04,-4.808938272e-04,6.769960139e-05,-4.131942258e-04,1.273832159e-05,-2.377750460e-05,-1.103918301e-05,-7.195810800e-04,1.493898275e-04,-5.701912525e-04,-1.631357044e-04,1.800802767e-05,-1.451276768e-04,-5.260577295e-04,2.189805534e-05,-5.041596742e-04,-1.556695079e-04,6.683955905e-05,-8.882994888e-05,-2.490527084e-04,7.711205087e-06,-2.413415034e-04,-4.882838298e-04,2.339151689e-04,-2.543686609e-04
-4.6,6.191763979e-04,-2.469803304e-05,5.944783648e-04,2.131861699e-04,-6.671917435e-05,1.464669956e-04,-9.823018829e-05,-1.814529806e-05,-1.163754863e-04,-1.783271471e-04,8.169132266e-06,-1.701580149e-04,-5.052184167e-05,-5.234378168e-05,-1.028656233e-04,2.618897555e-04,-5.545125577e-05,2.064384997e-04,1.497412351e-04,1.193451360e-05,1.616757487e-04,2.495650468e-04,2.467681262e-05,2.742418594e-04,4.706547911e-05,1.266543238e-05,5.973091149e-05,2.097207685e-04,2.744428446e-05,2.371650529e-04,9.031704075e-05,1.991706833e-05,1.102341091e-04,-1.731729974e-04,-1.425284683e-05,-1.874258442e-04,-2.587189235e-04,5.237560353e-05,-2.063433200e-04,-1.487095521e-04,-4.763879805e-05,-1.963483501e-04,-2.954536902e-04,-5.609440490e-06,-3.010631307e-04,3.239320713e-05,-1.105982952e-05,2.133337761e-05,2.997675856e-04,-1.865576328e-05,2.811118223e-04,-1.795281524e-04,-8.996231577e-05,-2.694904681e-04,-3.060862638e-04,3.400735081e-05,-2.720789130e-04,2.982145789e-04,1.927026925e-05,3.174848482e-04,1.819727042e-04,3.696607428e-05,2.189387785e-04,3.263373142e-05,1.989493057e-05,5.252866199e-05,-1.004716526e-04,2.793235166e-05,-7.253930092e-05,9.476304035e-06,1.815249625e-05,2.762880029e-05,-2.961853109e-05,-4.030936867e-05,-6.992789976e-05,-2.196863394e-04,3.835222155e-06,-2.158511173e-04,-1.898247182e-04,7.736971517e-07,-1.890510210e-04,-3.674865298e-04,1.359372882e-04,-2.315492416e-04,-4.288030255e-04,6.548305745e-05,-3.633199680e-04,8.352759938e-05,-2.625775680e-05,5.726984257e-05,-6.600578415e-04,1.512105077e-04,-5.088473338e-04,-9.751138077e-05,1.440358492e-05,-8.310779585e-05,-4.693258043e-04,2.962074070e-05,-4.397050636e-04,-7.155746499e-05,6.307720653e-05,-8.480258464e-06,-1.926204476e-04,9.933172412e-06,-1.826872751e-04,-3.827263259e-04,2.214040238e-04,-1.613223021e-04
-4.5,6.187363921e-04,-2.452731080e-05,5.942090813e-04,2.281116366e-04,-7.047622733e-05,1.576354093e-04,-8.604643759e-05,-2.071071500e-05,-1.067571526e-04,-1.490447593e-04,7.516794823e-06,-1.415279644e-04,-2.314032853e-05,-5.686776115e-05,-8.000808969e-05,3.009975371e-04,-6.248127402e-05,2.385162630e-04,1.884427826e-04,8.158967777e-06,1.966017504e-04,2.960671157e-04,1.773046996e-05,3.137975856e-04,7.884719808e-05,1.210374651e-05,9.095094460e-05,2.475009282e-04,2.255412939e-05,2.700550576e-04,1.135977609e-04,1.617049245e-05,1.297682534e-04,-1.169255137e-04,-1.689959620e-05,-1.338251099e-04,-1.801671903e-04,3.119050386e-05,-1.489766865e-04,-1.074428350e-04,-4.860095840e-05,-1.560437934e-04,-2.536513163e-04,-3.993335100e-06,-2.576446514e-04,1.031848366e-04,-1.358967333e-05,8.959516327e-05,3.754553620e-04,-2.151631801e-05,3.539390440e-04,-1.497700419e-04,-9.296292713e-05,-2.427329690e-04,-2.527736784e-04,3.956731709e-05,-2.132063613e-04,3.451182203e-04,8.946837783e-06,3.540650580e-04,2.038879721e-04,3.177319513e-05,2.356611672e-04,6.671231621e-05,1.724533221e-05,8.395764842e-05,-1.064381115e-04,2.393010911e-05,-8.250800240e-05,9.886144786e-06,1.839505377e-05,2.828119856e-05,1.266569531e-05,-4.136171295e-05,-2.869601764e-05,-1.918045668e-04,6.796587215e-06,-1.850079796e-04,-1.200895626e-04,-1.143030388e-05,-1.315198665e-04,-3.332334051e-04,1.358403071e-04,-1.973930980e-04,-3.746524924e-04,6.297364592e-05,-3.116788465e-04,1.548134451e-04,-2.860517341e-05,1.262082717e-04,-5.969652384e-04,1.514341492e-04,-4.455310892e-04,-3.009077553e-05,1.069077637e-05,-1.939999916e-05,-4.099626054e-04,3.707731625e-05,-3.728852891e-04,1.417862000e-05,5.916108403e-05,7.333970404e-05,-1.349134636e-04,1.247835427e-05,-1.224351093e-04,-2.754831769e-04,2.084393916e-04,-6.704378536e-05
-4.4,6.157501450e-04,-2.423582687e-05,5.915143181e-04,2.419145345e-04,-7.398413540e-05,1.679303990e-04,-7.320265966e-05,-2.315069663e-05,-9.635335629e-05,-1.187558845e-04,6.916829377e-06,-1.118390551e-04,4.862003996e-06,-6.119723024e-05,-5.633522625e-05,3.398944504e-04,-6.941081203e-05,2.704836383e-04,2.270415166e-04,4.328723132e-06,2.313702397e-04,3.426606147e-04,1.065562391e-05,3.533162386e-04,1.107197322e-04,1.149219057e-05,1.222119228e-04,2.847522158e-04,1.752558185e-05,3.022777977e-04,1.366441737e-04,1.233565664e-05,1.489798303e-04,-5.852337451e-05,-1.953972037e-05,-7.806309488e-05,-9.862261439e-05,8.782299612e-06,-8.984031478e-05,-6.497014879e-05,-4.946426285e-05,-1.144344116e-04,-2.102957709e-04,-2.477000895e-06,-2.127727718e-04,1.751110046e-04,-1.610606213e-05,1.590049425e-04,4.516622821e-04,-2.451303521e-05,4.271492469e-04,-1.191667689e-04,-9.525210281e-05,-2.144188717e-04,-1.968274798e-04,4.451666654e-05,-1.523108132e-04,3.914454890e-04,-1.557477260e-06,3.898880118e-04,2.251498552e-04,2.641108410e-05,2.515609393e-04,1.008006970e-04,1.449705660e-05,1.152977536e-04,-1.119186824e-04,1.982324479e-05,-9.209543763e-05,1.057269221e-05,1.864190549e-05,2.921459770e-05,5.599806947e-05,-4.244097260e-05,1.355709687e-05,-1.621339951e-04,9.604281487e-06,-1.525297136e-04,-4.981864328e-05,-2.285630806e-05,-7.267495134e-05,-2.966500680e-04,1.345754745e-04,-1.620745935e-04,-3.185757521e-04,6.019993101e-05,-2.583758210e-04,2.264305461e-04,-3.082592504e-05,1.956046210e-04,-5.304047025e-04,1.501221347e-04,-3.802825678e-04,3.898464885e-05,6.932077900e-06,4.591672675e-05,-3.479912433e-04,4.412567852e-05,-3.038655648e-04,1.012527545e-04,5.511808389e-05,1.563708383e-04,-7.606053670e-05,1.533934386e-05,-6.072119284e-05,-1.668867793e-04,1.951189541e-04,2.823217476e-05
-4.3,6.101607462e-04,-2.383716966e-05,5.863235766e-04,2.545126899e-04,-7.722924458e-05,1.772834453e-04,-5.972631304e-05,-2.545997994e-05,-8.518629298e-05,-8.761160314e-05,6.362342070e-06,-8.124926107e-05,3.344601045e-05,-6.530401268e-05,-3.185800223e-05,3.784955720e-04,-7.624485801e-05,3.022507140e-04,2.653882003e-04,4.490502900e-07,2.658372506e-04,3.892031688e-04,3.471057551e-06,3.926742263e-04,1.426387057e-04,1.083307117e-05,1.534717769e-04,3.213480288e-04,1.237368676e-05,3.337217156e-04,1.594214548e-04,8.433245642e-06,1.678547005e-04,1.903980696e-06,-2.216222402e-05,-2.025824332e-05,-1.434080821e-05,-1.470667538e-05,-2.904748359e-05,-2.138828806e-05,-5.023845584e-05,-7.162674390e-05,-1.654540681e-04,-1.064599231e-06,-1.665186674e-04,2.479779553e-04,-1.859659184e-05,2.293813634e-04,5.282140995e-04,-2.769425330e-05,5.005198462e-04,-8.761988129e-05,-9.685255198e-05,-1.844724333e-04,-1.382899710e-04,4.879220436e-05,-8.949776661e-05,4.370198432e-04,-1.219882911e-05,4.248210141e-04,2.457097307e-04,2.089268555e-05,2.666024163e-04,1.348174269e-04,1.165977507e-05,1.464772020e-04,-1.168287055e-04,1.564139235e-05,-1.011873132e-04,1.158426204e-05,1.891349702e-05,3.049775907e-05,1.003489036e-04,-4.355144918e-05,5.679745446e-05,-1.306898425e-04,1.221356037e-05,-1.184762821e-04,2.081867966e-05,-3.346031533e-05,-1.264163566e-05,-2.576998220e-04,1.320853004e-04,-1.256145216e-04,-2.607124433e-04,5.719364950e-05,-2.035187938e-04,2.982103043e-04,-3.292813946e-05,2.652821648e-04,-4.605092701e-04,1.473662856e-04,-3.131429845e-04,1.095563902e-04,3.187574650e-06,1.127439648e-04,-2.834477884e-04,5.062773942e-05,-2.328200490e-04,1.893746000e-04,5.096768068e-05,2.403422807e-04,-1.618744331e-05,1.849453896e-05,2.307095648e-06,-5.724575989e-05,1.815238788e-04,1.242781189e-04
-4.2,6.019204771e-04,-2.334624483e-05,5.785742323e-04,2.658332685e-04,-8.019817177e-05,1.856350967e-04,-4.564906770e-05,-2.763415397e-05,-7.328322167e-05,-5.576876247e-05,5.844668308e-06,-4.992409417e-05,6.256898093e-05,-6.916122456e-05,-6.592243629e-06,4.167131321e-04,-8.298547902e-05,3.337276531e-04,3.033314694e-04,-3.475344155e-06,2.998561252e-04,4.355446960e-04,-3.804144140e-06,4.317405519e-04,1.745598420e-04,1.012868050e-05,1.846885225e-04,3.571639328e-04,7.113834534e-06,3.642777673e-04,1.818971494e-04,4.484180614e-06,1.863813300e-04,6.421315986e-05,-2.475404215e-05,3.945911770e-05,7.236847196e-05,-3.910341066e-05,3.326506130e-05,2.320079743e-05,-5.093246898e-05,-2.773167155e-05,-1.191956123e-04,2.407616373e-07,-1.189548506e-04,3.215782897e-04,-2.104631712e-05,3.005319726e-04,6.049257040e-04,-3.111177756e-05,5.738139265e-04,-5.504126160e-05,-9.779327341e-05,-1.528345350e-04,-7.722801094e-05,5.234312030e-05,-2.488489064e-05,4.816634674e-04,-2.293178438e-05,4.587316830e-04,2.655231912e-04,1.523208517e-05,2.807552764e-04,1.686843163e-04,8.744309296e-06,1.774286256e-04,-1.210859897e-04,1.141427368e-05,-1.096717160e-04,1.296840430e-05,1.923128009e-05,3.219968439e-05,1.456792207e-04,-4.469610792e-05,1.009831128e-04,-9.750076659e-05,1.457991261e-05,-8.292085399e-05,9.166560568e-05,-4.321982377e-05,4.844578191e-05,-2.163650329e-04,1.283257231e-04,-8.803930976e-05,-2.012060870e-04,5.398819586e-05,-1.472178912e-04,3.699818732e-04,-3.492136753e-05,3.350605056e-04,-3.874394859e-04,1.432844021e-04,-2.441550838e-04,1.814508447e-04,-4.867151737e-07,1.809641295e-04,-2.163837722e-04,5.645265620e-05,-1.599311160e-04,2.782508941e-04,4.672175151e-05,3.249726456e-04,4.458524900e-05,2.190784023e-05,6.649308923e-05,5.314796281e-05,1.677237794e-04,2.208717422e-04
-4.1,5.909912383e-04,-2.277891503e-05,5.682123233e-04,2.758130180e-04,-8.287815856e-05,1.929348594e-04,-3.100730324e-05,-2.966979445e-05,-6.067709769e-05,-2.338800491e-05,5.353598366e-06,-1.803440654e-05,9.218436669e-05,-7.274367475e-05,1.944069195e-05,4.544560099e-04,-8.963108197e-05,3.648249279e-04,3.407191772e-04,-7.440284409e-06,3.332788928e-04,4.815280683e-04,-1.115078207e-05,4.703772862e-04,2.064379837e-04,9.381168345e-06,2.158191521e-04,3.920780494e-04,1.761686715e-06,3.938397361e-04,2.040402983e-04,5.093362728e-07,2.045496345e-04,1.282469827e-04,-2.730049981e-05,1.009464828e-04,1.611402464e-04,-6.420403137e-05,9.693621507e-05,6.868989580e-05,-5.155406064e-05,1.713583516e-05,-7.159115973e-05,1.436470420e-06,-7.015468931e-05,3.956930607e-04,-2.343833513e-05,3.722547256e-04,6.816004438e-04,-3.481829417e-05,6.467821496e-04,-2.135527851e-05,-9.810842002e-05,-1.194636985e-04,-1.373125759e-05,5.513037523e-05,4.139911764e-05,5.251980874e-04,-3.370971231e-05,4.914883751e-04,2.845497213e-04,9.444512457e-06,2.939942338e-04,2.023259088e-04,5.762414825e-06,2.080883236e-04,-1.246129842e-04,7.171090077e-06,-1.174418942e-04,1.477096177e-05,1.961734385e-05,3.438830562e-05,1.919401307e-04,-4.587669682e-05,1.460634339e-04,-6.260994463e-05,1.665943952e-05,-4.595050511e-05,1.625817989e-04,-5.213436625e-05,1.104474326e-04,-1.726500537e-04,1.232670613e-04,-4.938299238e-05,-1.402016264e-04,5.061646211e-05,-8.958516427e-05,4.415731283e-04,-3.681608744e-05,4.047570409e-04,-3.113784016e-04,1.380146979e-04,-1.733637037e-04,2.544813611e-04,-4.040815225e-06,2.504405459e-04,-1.468697566e-04,6.148049539e-05,-8.538926118e-05,3.675866655e-04,4.238464362e-05,4.099713091e-04,1.061435934e-04,2.552880798e-05,1.316724014e-04,1.640133080e-04,1.537800103e-04,3.177933183e-04
-4,5.773448566e-04,-2.215163690e-05,5.551932197e-04,2.843983363e-04,-8.525747594e-05,1.991408604e-04,-1.584258510e-05,-3.156459709e-05,-4.740718219e-05,9.368120722e-06,4.877606494e-06,1.424572722e-05,1.222415417e-04,-7.602823929e-05,4.621330245e-05,4.916293578e-04,-9.617595501e-05,3.954534027e-04,3.773997048e-04,-1.144204529e-05,3.659576595e-04,5.269897429e-04,-1.854972700e-05,5.084400159e-04,2.382262251e-04,8.592438684e-06,2.468186638e-04,4.259714755e-04,-3.666865369e-06,4.223046101e-04,2.258206632e-04,-3.470713412e-06,2.223499498e-04,1.938337790e-04,-2.978535031e-05,1.640484287e-04,2.515567315e-04,-8.977515546e-05,1.617815761e-04,1.149662573e-04,-5.210938145e-05,6.285687585e-05,-2.271256914e-05,2.520048500e-06,-2.019252064e-05,4.700940589e-04,-2.575504483e-05,4.443390141e-04,7.580294015e-04,-3.886478886e-05,7.191646127e-04,1.349954024e-05,-9.783549924e-05,-8.433595901e-05,5.208834328e-05,5.712606000e-05,1.092144033e-04,5.674459461e-04,-4.448522573e-05,5.229607204e-04,3.027523291e-04,3.546309605e-06,3.062986387e-04,2.356688486e-04,2.726538312e-06,2.383953869e-04,-1.273387820e-04,2.939990753e-06,-1.243987912e-04,1.703520903e-05,2.009397406e-05,3.712918308e-05,2.390721596e-04,-4.709391317e-05,1.919782465e-04,-2.607606100e-05,1.840936323e-05,-7.666697771e-06,2.334458217e-04,-6.022562960e-05,1.732201921e-04,-1.265834208e-04,1.168948748e-04,-9.688546025e-06,-7.784290743e-05,4.710835077e-05,-3.073455666e-05,5.128119565e-04,-3.862332990e-05,4.741886266e-04,-2.325255210e-04,1.317091880e-04,-1.008163330e-04,3.284500920e-04,-7.432390159e-06,3.210177019e-04,-7.499934819e-05,6.560607748e-05,-9.393270711e-06,4.570862520e-04,3.795369814e-05,4.950399501e-04,1.683808055e-04,2.929353813e-05,1.976743436e-04,2.750761194e-04,1.397489380e-04,4.148250574e-04
-3.9,5.609634435e-04,-2.148108136e-05,5.394823621e-04,2.915453450e-04,-8.732584687e-05,2.042194981e-04,-2.019212710e-07,-3.331747588e-05,-3.351939715e-05,4.233710918e-05,4.404089192e-06,4.674119838e-05,1.526858086e-04,-7.899419534e-05,7.369161325e-05,5.281347655e-04,-1.026102115e-04,4.255245540e-04,4.132235018e-04,-1.547724435e-05,3.977462575e-04,5.717606369e-04,-2.598213293e-05,5.457785039e-04,2.698755025e-04,7.764051195e-06,2.776395537e-04,4.587290742e-04,-9.155751280e-06,4.495733229e-04,2.472084197e-04,-7.435940271e-06,2.397724794e-04,2.607867116e-04,-3.219081770e-05,2.285958939e-04,3.431536088e-04,-1.155569301e-04,2.275966788e-04,1.619115562e-04,-5.260252434e-05,1.093090318e-04,2.736759419e-05,3.488779827e-06,3.085637402e-05,5.445465020e-04,-2.797992880e-05,5.165665732e-04,8.339910151e-04,-4.329801737e-05,7.906929978e-04,4.956950422e-05,-9.701331467e-05,-4.744381045e-05,1.200956455e-04,5.831313751e-05,1.784087830e-04,6.082312759e-04,-5.521072337e-05,5.530205525e-04,3.200973945e-04,-2.445170361e-06,3.176522241e-04,2.686414974e-04,-3.504644106e-07,2.682910330e-04,-1.292006792e-04,-1.252346632e-06,-1.304530259e-04,1.980138005e-05,2.068317845e-05,4.048455849e-05,2.870046124e-04,-4.834739223e-05,2.386572202e-04,1.202616175e-05,1.978868095e-05,3.181484270e-05,3.041558250e-04,-6.753677667e-05,2.366190483e-04,-7.821947298e-05,1.092110346e-04,3.099156162e-05,-1.427029121e-05,4.348849070e-05,2.921819949e-05,5.835281374e-04,-4.035435291e-05,5.431737845e-04,-1.510900560e-04,1.245263102e-04,-2.656374581e-05,4.031496192e-04,-1.062723953e-05,3.925223797e-04,-8.921550682e-07,6.874240040e-05,6.785024533e-05,5.464541712e-04,3.342031083e-05,5.798744820e-04,2.311972053e-04,3.312646767e-05,2.643236730e-04,3.860672781e-04,1.256850652e-04,5.117523433e-04
-3.8,5.418400124e-04,-2.078372085e-05,5.210562915e-04,2.972201753e-04,-8.907484275e-05,2.081453325e-04,1.586241269e-05,-3.492862678e-05,-1.906621409e-05,7.535869779e-05,3.919606946e-06,7.927830474e-05,1.834588692e-04,-8.162351427e-05,1.018353550e-04,5.638711863e-04,-1.089200971e-04,4.549510892e-04,4.480451151e-04,-1.954276665e-05,4.285023484e-04,6.156674202e-04,-3.342966886e-05,5.822377513e-04,3.013348988e-04,6.897114769e-06,3.082320136e-04,4.902408767e-04,-1.468881284e-05,4.755520639e-04,2.681745694e-04,-1.136711425e-05,2.568074552e-04,3.289041129e-04,-3.449819913e-05,2.944059138e-04,4.354301627e-04,-1.412684132e-04,2.941617495e-04,2.094024315e-04,-5.303519062e-05,1.563672408e-04,7.857706754e-05,4.339384707e-06,8.291645225e-05,6.188123559e-04,-3.009948959e-05,5.887128663e-04,9.092513233e-04,-4.815790398e-05,8.610934193e-04,8.688597725e-05,-9.568053935e-05,-8.794562091e-06,1.901309751e-04,5.868538091e-05,2.488163560e-04,6.473823761e-04,-6.583899756e-05,5.815433785e-04,3.365548661e-04,-8.511694631e-06,3.280431715e-04,3.011740213e-04,-3.455614851e-06,2.977184065e-04,-1.301451695e-04,-5.381009484e-06,-1.355261790e-04,2.310671107e-05,2.140623188e-05,4.451294295e-05,3.356552880e-04,-4.963541973e-05,2.860198683e-04,5.160630408e-05,2.075893071e-05,7.236523479e-05,3.746287820e-04,-7.413062621e-05,3.004981558e-04,-2.763920057e-05,1.002348333e-04,7.259563277e-05,5.038152740e-05,3.977463111e-05,9.015615850e-05,6.535558806e-04,-4.202033821e-05,6.115355424e-04,-6.728457432e-05,1.166239463e-04,4.933937194e-05,4.783648560e-04,-1.359872277e-05,4.647661332e-04,7.530583456e-05,7.082314809e-05,1.461289826e-04,6.353964804e-04,2.877119190e-05,6.641676723e-04,2.944999939e-04,3.694301913e-05,3.314430131e-04,4.967229125e-04,1.116423384e-04,6.083652510e-04
-3.7,5.199794880e-04,-2.007541737e-05,4.999040706e-04,3.013995357e-04,-9.049826139e-05,2.109012743e-04,3.229351217e-05,-3.639959046e-05,-4.106078285e-06,1.082773509e-04,3.410112836e-06,1.116874638e-04,2.144997283e-04,-8.390113110e-05,1.305985972e-04,5.987365324e-04,-1.150885164e-04,4.836480159e-04,4.817256896e-04,-2.363573815e-05,4.580899514e-04,6.585342380e-04,-4.087473722e-05,6.176595008e-04,3.325525088e-04,5.992182071e-06,3.385446908e-04,5.204039405e-04,-2.024992238e-05,5.001540181e-04,2.886918994e-04,-1.524605565e-05,2.734458438e-04,3.979711431e-04,-3.668917096e-05,3.612819721e-04,5.278621983e-04,-1.666153192e-04,3.612468790e-04,2.573116059e-04,-5.340659943e-05,2.039050065e-04,1.308449985e-04,5.068007195e-06,1.359130057e-04,6.926542208e-04,-3.210501241e-05,6.605492084e-04,9.835652734e-04,-5.347511458e-05,9.300901588e-04,1.254671469e-04,-9.387537984e-05,3.159176704e-05,2.620096493e-04,5.824718751e-05,3.202568368e-04,6.847340893e-04,-7.632384295e-05,6.084102463e-04,3.520987420e-04,-1.463425032e-05,3.374644917e-04,3.331988891e-04,-6.576060315e-06,3.266228288e-04,-1.301284470e-04,-9.423046928e-06,-1.395514939e-04,2.698585835e-05,2.228327005e-05,4.926912840e-05,3.849308826e-04,-5.095450104e-05,3.339763816e-04,9.255963482e-05,2.128494349e-05,1.138445783e-04,4.447983680e-04,-8.008649553e-05,3.647118725e-04,2.504994004e-05,9.000378159e-05,1.150537216e-04,1.159854202e-04,3.597694818e-05,1.519623684e-04,7.227367030e-04,-4.363217813e-05,6.791045248e-04,1.867994676e-05,1.081540909e-04,1.268340376e-04,5.538753627e-04,-1.632644580e-05,5.375489169e-04,1.534248807e-04,7.180402096e-05,2.252289016e-04,7.236231272e-04,2.398943667e-05,7.476125639e-04,3.582029778e-04,4.065283107e-05,3.988558089e-04,6.067874754e-04,9.767190146e-05,7.044593769e-04
-3.6,4.954000618e-04,-1.937106733e-05,4.760289945e-04,3.040713980e-04,-9.159251921e-05,2.124788788e-04,4.903074780e-05,-3.773332954e-05,1.129741826e-05,1.409448268e-04,2.861162211e-06,1.438059890e-04,2.457457181e-04,-8.581519696e-05,1.599305212e-04,6.326296102e-04,-1.210957005e-04,5.115339097e-04,5.141356035e-04,-2.775349530e-05,4.863821082e-04,7.001847070e-04,-4.830066002e-05,6.518840469e-04,3.634763888e-04,5.049163022e-06,3.685255518e-04,5.491241994e-04,-2.582309444e-05,5.233011049e-04,3.087359828e-04,-1.905586782e-05,2.896801150e-04,4.677622837e-04,-3.874744753e-05,4.290148361e-04,6.199160307e-04,-1.912989812e-04,4.286170495e-04,3.055092788e-04,-5.371367210e-05,2.517956067e-04,1.841025225e-04,5.670514145e-06,1.897730366e-04,7.658393680e-04,-3.399397989e-05,7.318453882e-04,1.056679218e-03,-5.926912233e-05,9.974100955e-04,1.653205279e-04,-9.163579318e-05,7.368473477e-05,3.355229482e-04,5.701322743e-05,3.925361757e-04,7.201303167e-04,-8.662064096e-05,6.335096758e-04,3.667076481e-04,-2.079311361e-05,3.459145345e-04,3.646515323e-04,-9.699289465e-06,3.549522428e-04,-1.291165908e-04,-1.335761442e-05,-1.424742052e-04,3.147139734e-05,2.333292069e-05,5.480431803e-05,4.347281119e-04,-5.229893266e-05,3.824291793e-04,1.347692869e-04,2.133547570e-05,1.561047626e-04,5.146113223e-04,-8.549556328e-05,4.291157590e-04,7.971527237e-05,7.857378016e-05,1.582890525e-04,1.824232143e-04,3.209829870e-05,2.145215130e-04,7.909220529e-04,-4.520037632e-05,7.457216766e-04,1.065973662e-04,9.925941661e-05,2.058567828e-04,6.294575495e-04,-1.879434802e-05,6.106632015e-04,2.332761975e-04,7.166288594e-05,3.049390835e-04,8.108511819e-04,1.905526173e-05,8.299064436e-04,4.222259027e-04,4.416341767e-05,4.663893204e-04,7.160194111e-04,8.381693379e-05,7.998363449e-04
-3.5,4.681347104e-04,-1.868430828e-05,4.494504021e-04,3.052355195e-04,-9.235703957e-05,2.128784799e-04,6.601067638e-05,-3.893429252e-05,2.707638385e-05,1.732225141e-04,2.258126778e-06,1.754806409e-04,2.771333153e-04,-8.735729494e-05,1.897760204e-04,6.654520476e-04,-1.269200488e-04,5.385319988e-04,5.451568137e-04,-3.189348950e-05,5.132633242e-04,7.404439731e-04,-5.569187997e-05,6.847520931e-04,3.940551751e-04,4.067261384e-06,3.981224364e-04,5.763178987e-04,-3.139258524e-05,5.449253135e-04,3.282857822e-04,-2.278114149e-05,3.055046407e-04,5.380440149e-04,-4.066035566e-05,4.973836593e-04,7.110626376e-04,-2.150257147e-04,4.960369229e-04,3.538644502e-04,-5.395144122e-05,2.999130089e-04,2.382828265e-04,6.142759635e-06,2.444255861e-04,8.381433957e-04,-3.577102417e-05,8.023723716e-04,1.128334039e-03,-6.554680928e-05,1.062787230e-03,2.064447180e-04,-8.899932101e-05,1.174453970e-04,4.104403801e-04,5.500804186e-05,4.654484220e-04,7.534262142e-04,-9.668690918e-05,6.567393050e-04,3.803653339e-04,-2.696793592e-05,3.533973979e-04,3.954709081e-04,-1.281335064e-05,3.826575575e-04,-1.270855862e-04,-1.716608099e-05,-1.442516671e-04,3.659412774e-05,2.457196660e-05,6.116609434e-05,4.849352776e-04,-5.366038435e-05,4.312748932e-04,1.781087337e-04,2.088373872e-05,1.989924724e-04,5.840224761e-04,-9.045480761e-05,4.935676685e-04,1.362009909e-04,6.601851498e-05,2.022195058e-04,2.495861746e-04,2.813535430e-05,2.777215289e-04,8.579751029e-04,-4.673493204e-05,8.112401709e-04,1.962680510e-04,9.007127967e-05,2.863393307e-04,7.048863929e-04,-2.098850226e-05,6.838978906e-04,3.146570522e-04,7.039913548e-05,3.850561877e-04,8.968085102e-04,1.394662730e-05,9.107551375e-04,4.864929313e-04,4.738417281e-05,5.338771041e-04,8.241962985e-04,7.010837950e-05,8.943046780e-04
