Time,S1D1HbO,S1D1HbR,S1D1HbT,S2D2HbO,S2D2HbR,S2D2HbT,S3D3HbO,S3D3HbR,S3D3HbT,S4D4HbO,S4D4HbR,S4D4HbT,S5D5HbO,S5D5HbR,S5D5HbT,S6D6HbO,S6D6HbR,S6D6HbT,S7D7HbO,S7D7HbR,S7D7HbT,S8D8HbO,S8D8HbR,S8D8HbT,S9D9HbO,S9D9HbR,S9D9HbT,S10D10HbO,S10D10HbR,S10D10HbT,S11D11HbO,S11D11HbR,S11D11HbT,S12D12HbO,S12D12HbR,S12D12HbT,S13D13HbO,S13D13HbR,S13D13HbT,S14D14HbO,S14D14HbR,S14D14HbT,S15D15HbO,S15D15HbR,S15D15HbT,S16D16HbO,S16D16HbR,S16D16HbT,S17D17HbO,S17D17HbR,S17D17HbT,S18D18HbO,S18D18HbR,S18D18HbT,S19D19HbO,S19D19HbR,S19D19HbT,S20D20HbO,S20D20HbR,S20D20HbT,S21D21HbO,S21D21HbR,S21D21HbT,S22D22HbO,S22D22HbR,S22D22HbT,S23D23HbO,S23D23HbR,S23D23HbT,S24D24HbO,S24D24HbR,S24D24HbT,S25D25HbO,S25D25HbR,S25D25HbT,S26D26HbO,S26D26HbR,S26D26HbT,S27D27HbO,S27D27HbR,S27D27HbT,S28D28HbO,S28D28HbR,S28D28HbT,S29D29HbO,S29D29HbR,S29D29HbT,S30D30HbO,S30D30HbR,S30D30HbT,S31D31HbO,S31D31HbR,S31D31HbT,S32D32HbO,S32D32HbR,S32D32HbT,S33D33HbO,S33D33HbR,S33D33HbT,S34D34HbO,S34D34HbR,S34D34HbT,S35D35HbO,S35D35HbR,S35D35HbT,S36D36HbO,S36D36HbR,S36D36HbT
0.0,-0.000468203999,9.396379607e-05,-0.0003742402029,-0.0006461701252,-0.0003846762073,-0.001030846333,0.00392330018,0.0003215963482,0.004244896528,0.002777769881,0.0003130326944,0.003090802575,0.0009218053034,-4.809987753e-05,0.0008737054259,0.0003677770569,-2.492297718e-05,0.0003428540797,0.0003324758116,-9.39360023e-05,0.0002385398093,0.0004930034444,-0.0002885235524,0.0002044798921,0.001671211764,-0.0001945633588,0.001476648405,0.001032487728,-0.0002403738241,0.0007921139037,0.0009105647031,-0.0003423023965,0.0005682623066,0.002855436929,0.0005515517376,0.003406988667,0.002394105252,0.000287844922,0.002681950174,0.002973439908,0.0003265442349,0.003299984143,0.00175200308,0.0001274277131,0.001879430793,0.001468468741,-0.000109583653,0.001358885087,0.001596245767,-0.0001017045938,0.001494541174,0.002649444281,-0.0002614187354,0.002388025546,0.001056883476,-4.017139346e-05,0.001016712082,0.001308422751,-4.783899681e-05,0.001260583755,0.002008287114,8.16247495e-05,0.002089911863,0.00361530612,0.0004153544379,0.004030660558,0.0008570390431,3.687433023e-05,0.0008939133733,0.003518514441,0.0006312819536,0.004149796394,0.0008686762111,4.5442903e-06,0.0008732205014,0.002389386667,0.0001408446052,0.002530231273,0.002221362565,0.0002553854926,0.002476748058,0.002977717241,0.000291797515,0.003269514756,0.001215099089,3.792301898e-05,0.001253022108,0.001505945519,-0.0001856045902,0.001320340929,0.001357761278,1.917953685e-05,0.001376940815,0.00136194661,-0.0001120228739,0.001249923736,0.0002606986314,0.000163649339,0.0004243479705,0.001329309266,4.851487403e-05,0.00137782414,0.001236026193,-0.000199228786,0.001036797407,0.0009623229817,7.29882522e-05,0.001035311234
0.1,-0.0004352473519,0.000112994785,-0.0003222525669,-0.0006452230687,-0.0003972079477,-0.001042431016,0.004005438117,0.0003268051115,0.004332243229,0.00281495592,0.0003109017303,0.00312585765,0.0009339873562,-5.16151298e-05,0.0008823722264,0.0003868900606,-2.732032304e-05,0.0003595697375,0.0003115773445,-9.683302586e-05,0.0002147443187,0.0004239084812,-0.0002926696309,0.0001312388503,0.001615520506,-0.0001958320258,0.00141968848,0.0009479681698,-0.0002386517123,0.0007093164575,0.0008967154772,-0.0003411340678,0.0005555814093,0.002890289025,0.0005567446636,0.003447033689,0.002432140237,0.0002716653566,0.002703805594,0.003026202186,0.0003353839855,0.003361586171,0.001765752115,0.0001305484059,0.001896300521,0.001515121037,-0.0001125010975,0.00140261994,0.001658225276,-0.0001021408603,0.001556084416,0.002725528139,-0.0002668701606,0.002458657978,0.001127369539,-4.025295882e-05,0.00108711658,0.001261730943,-5.171240108e-05,0.001210018542,0.002010006613,7.815145079e-05,0.002088158064,0.003643124499,0.0004126812431,0.004055805742,0.0008502281422,3.311191539e-05,0.0008833400576,0.003521809586,0.0006262092141,0.0041480188,0.0008555697981,8.015176837e-06,0.0008635849749,0.002398753302,0.0001419579789,0.002540711281,0.002239127202,0.0002614032772,0.002500530479,0.003009121713,0.0002895214115,0.003298643125,0.001237989749,3.322592343e-05,0.001271215672,0.001527157045,-0.000194835373,0.001332321672,0.001369023257,2.049271381e-05,0.001389515971,0.001377541651,-0.0001131881003,0.001264353551,0.0002686786949,0.0001712988485,0.0004399775434,0.001399022993,2.936892437e-05,0.001428391917,0.001241481055,-0.0001992475926,0.001042233462,0.00101720999,6.746461366e-05,0.001084674604
0.2,-0.0004009726353,0.0001323566489,-0.0002686159864,-0.0006367020981,-0.00040886554,-0.001045567638,0.004082775774,0.0003316532413,0.004414429015,0.002852673883,0.0003089010714,0.003161574955,0.0009476669595,-5.510910844e-05,0.0008925578511,0.000411045253,-2.928600407e-05,0.0003817592489,0.0002961306294,-9.957246706e-05,0.0001965581623,0.000360658142,-0.0002964514781,6.42066639e-05,0.001564569816,-0.0001968777285,0.001367692087,0.0008699857518,-0.000236607013,0.0006333787388,0.0008910133131,-0.0003396211806,0.0005513921325,0.002922902459,0.0005616109795,0.003484513438,0.002471642754,0.0002536233642,0.002725266119,0.003078458969,0.0003440025357,0.003422461504,0.001781375207,0.0001339851185,0.001915360325,0.001560998257,-0.0001153054144,0.001445692843,0.001719891038,-0.0001025622983,0.00161732874,0.002799547283,-0.0002728697647,0.002526677518,0.001197751134,-4.057624729e-05,0.001157174887,0.001217242481,-5.552891456e-05,0.001161713567,0.002014839063,7.475274446e-05,0.002089591808,0.003673039759,0.0004105260487,0.004083565808,0.0008476751938,2.940221103e-05,0.0008770774048,0.003525681557,0.000620470284,0.004146151841,0.0008434064346,1.156931243e-05,0.000854975747,0.002407626556,0.0001428912113,0.002550517767,0.002257564647,0.0002679706098,0.002525535257,0.003040507687,0.0002871417872,0.003327649474,0.001261153961,2.838135445e-05,0.001289535315,0.001547656307,-0.0002036476911,0.001344008616,0.001380859342,2.172406511e-05,0.001402583407,0.001393498161,-0.0001146732688,0.001278824892,0.0002790845541,0.0001785451503,0.0004576297044,0.001469562573,9.882923588e-06,0.001479445497,0.001248765477,-0.0001988243471,0.001049941129,0.001072901691,6.03290236e-05,0.001133230715
0.3,-0.0003656609107,0.0001520204673,-0.0002136404435,-0.0006207281137,-0.0004195908261,-0.00104031894,0.0041551436,0.00033615777,0.00449130137,0.002890923494,0.0003070769514,0.003198000446,0.0009627883038,-5.85668841e-05,0.0009042214197,0.000440203157,-3.081022471e-05,0.0004093929323,0.0002862293754,-0.0001021492614,0.000184080114,0.0003036489136,-0.0002998700192,3.778894374e-06,0.001518675453,-0.000197702939,0.001320972514,0.000799044918,-0.0002342559392,0.0005647889788,0.0008934313538,-0.0003377906839,0.0005556406699,0.002953225193,0.000566196109,0.003519421302,0.002512348597,0.0002339430925,0.00274629169,0.003130078807,0.000352422725,0.003482501532,0.001798936704,0.0001377251094,0.001936661814,0.001605956808,-0.0001179424228,0.001488014385,0.001780993291,-0.0001029477046,0.001678045586,0.002871304519,-0.0002794573701,0.002591847149,0.001267682557,-4.115888888e-05,0.001226523668,0.001175282168,-5.926701269e-05,0.001116015156,0.002022766836,7.143958044e-05,0.002094206416,0.003705041065,0.0004089410906,0.004113982155,0.0008493824772,2.576175763e-05,0.0008751442349,0.003530123707,0.0006141412237,0.004144264931,0.0008323363729,1.517175573e-05,0.0008475081286,0.002416045574,0.0001436574092,0.002559702984,0.002276756282,0.0002749832294,0.002551739512,0.003071782671,0.0002846525504,0.003356435222,0.001284505002,2.341116792e-05,0.001307916169,0.001567409239,-0.0002119919485,0.001355417291,0.00139323428,2.28550285e-05,0.001416089308,0.00140972918,-0.0001164758641,0.001293253316,0.0002919126758,0.0001853511902,0.000477263866,0.001540624443,-9.780953138e-06,0.00153084349,0.001257907784,-0.0001979276009,0.001059980184,0.001129101055,5.162695828e-05,0.001180728013
0.4,-0.0003296041469,0.0001719545308,-0.0001576496161,-0.0005974711698,-0.0004293306095,-0.001026801779,0.004222400772,0.0003403348696,0.004562735642,0.002929695084,0.0003054732824,0.003235168366,0.0009792915286,-6.197418647e-05,0.0009173173422,0.0004742958098,-3.188888365e-05,0.0004424069262,0.0002819342784,-0.0001045601349,0.0001773741435,0.0002532320295,-0.000302927179,-4.96951495e-05,0.001478116083,-0.0001983109258,0.001279805157,0.0007355996357,-0.0002316173861,0.0005039822496,0.0009038722361,-0.0003356713482,0.0005682008879,0.002981225771,0.0005705417459,0.003551767517,0.002553934037,0.0002129099217,0.002766843959,0.003180942714,0.0003606711031,0.003541613817,0.001818495557,0.0001417569524,0.00196025251,0.001649870154,-0.0001203572625,0.001529512892,0.001841293695,-0.0001032727043,0.001738020991,0.002940622162,-0.0002866680485,0.002653954114,0.001336828038,-4.201477408e-05,0.001294813264,0.00113616659,-6.290481214e-05,0.001073261778,0.002033749388,6.822132923e-05,0.002101970717,0.003739101213,0.0004079737564,0.00414707497,0.0008553134078,2.220665464e-05,0.0008775200624,0.003535108342,0.0006073032299,0.004142411572,0.000822511092,1.87843811e-05,0.0008412954731,0.002424052958,0.0001442731429,0.002568326101,0.002296790456,0.0002823311727,0.002579121629,0.003102838863,0.0002820529419,0.003384891805,0.001307962586,1.83355405e-05,0.001326298126,0.001586403697,-0.000219825159,0.001366578538,0.001406110661,2.387244328e-05,0.001429983104,0.001426135971,-0.0001185802578,0.001307555714,0.0003071445982,0.0001916881251,0.0004988327233,0.001611895722,-2.945612256e-05,0.0015824396,0.00126891333,-0.0001965138237,0.001072399507,0.001185497489,4.143068513e-05,0.001226928174
0.5,-0.0002931031243,0.0001921242242,-0.0001009789001,-0.00056715056,-0.0004380370528,-0.001005187613,0.004284434535,0.0003441997674,0.004628634302,0.002968967214,0.0003041311816,0.003273098395,0.0009971113164,-6.531760424e-05,0.0009317937121,0.000513223848,-3.252345115e-05,0.0004807003969,0.0002832700013,-0.00010680383,0.0001764661713,0.0002097093152,-0.0003056253606,-9.591604543e-05,0.001443128737,-0.0001987056282,0.001244423109,0.0006800476404,-0.00022871264,0.0004513350005,0.0009221681138,-0.0003332935831,0.0005888745307,0.003006890542,0.0005746843464,0.003581574888,0.002596016324,0.0001908699554,0.002786886279,0.003230937188,0.0003687757468,0.003599712935,0.001840097423,0.0001460710059,0.001986168429,0.001692625593,-0.0001224956509,0.001570129942,0.001900564277,-0.0001035113342,0.001797052943,0.003007339538,-0.0002945301427,0.002712809395,0.001404863772,-4.315387198e-05,0.0013617099,0.001100198303,-6.642098821e-05,0.001033777315,0.002047719607,6.51055132e-05,0.002112825121,0.003775173964,0.0004076654839,0.004182839448,0.0008653903218,1.875227515e-05,0.0008841425969,0.003540583705,0.0006000418102,0.004140625515,0.0008140773278,2.236686933e-05,0.0008364441971,0.002431688979,0.0001447575965,0.002576446575,0.002317760543,0.0002898989327,0.002607659475,0.003133553926,0.0002793472531,0.003412901179,0.001331449234,1.317285035e-05,0.001344622084,0.00160464456,-0.0002271118727,0.001377532687,0.001419448025,2.476682396e-05,0.001444214849,0.001442607814,-0.0001209584537,0.001321649361,0.0003247440514,0.0001975352015,0.0005222792529,0.001683048699,-4.897273753e-05,0.001634075961,0.001281760515,-0.0001945300362,0.001087230479,0.001241767906,2.98356024e-05,0.001271603509
0.6,-0.0002564666383,0.0002124920799,-4.397455837e-05,-0.0005300358267,-0.0004456678313,-0.0009757036581,0.004341157202,0.0003477666872,0.00468892389,0.003008702488,0.0003030885064,0.003311790995,0.001016173313,-6.858479262e-05,0.0009475885202,0.0005568521886,-3.272087245e-05,0.0005241313161,0.0002902201912,-0.0001088813442,0.000181338847,0.0001733280377,-0.0003079670982,-0.0001346390605,0.001413902837,-0.0001988914856,0.001215011351,0.0006327233763,-0.0002255650432,0.0004071583331,0.0009480794046,-0.0003306892499,0.0006173901547,0.003030218116,0.0005786535614,0.003608871678,0.002638154406,0.0001682243319,0.002806378738,0.003279944336,0.0003767639898,0.003656708325,0.001863764841,0.0001506590355,0.002014423876,0.001734118256,-0.0001243056699,0.001609812586,0.001958582861,-0.0001036374011,0.00185494546,0.003071307593,-0.0003030628307,0.002768244762,0.001471477347,-4.458210265e-05,0.001426895244,0.001067658051,-6.979549135e-05,0.0009978625601,0.002064577947,6.209761244e-05,0.00212667556,0.003813189038,0.0004080506144,0.004221239652,0.0008794910114,1.541295328e-05,0.0008949039646,0.003546469885,0.0005924456758,0.004138915561,0.0008071682568,2.587769417e-05,0.0008330459509,0.002438982363,0.0001451314872,0.00258411385,0.002339761214,0.0002975653009,0.002637326515,0.003163789271,0.0002765446683,0.003440333939,0.001354885089,7.939761117e-06,0.00136282485,0.00162214704,-0.0002338250561,0.001388321983,0.001433200434,2.553044887e-05,0.001458730882,0.001459021161,-0.0001235716794,0.001335449482,0.0003446518886,0.000202879285,0.0005475311736,0.001753733994,-6.816026358e-05,0.00168557373,0.001296395845,-0.0001919177578,0.001104478087,0.001297577349,1.695527455e-05,0.001314532624
0.7,-0.0002200113299,0.0002330181008,1.300677097e-05,-0.0004864481459,-0.0004521861684,-0.0009386343142,0.004392502058,0.0003510488531,0.004743550911,0.003048842731,0.0003023794014,0.003351222132,0.001036389545,-7.176468905e-05,0.000964624856,0.0006050054185,-3.24934371e-05,0.0005725119814,0.0003027218828,-0.0001107960671,0.0001919258156,0.0001442755207,-0.0003099548959,-0.0001656793751,0.001390573923,-0.0001988732213,0.001191700702,0.0005938906024,-0.0002221996031,0.0003716909993,0.0009812931356,-0.0003278914308,0.0006534017047,0.003051212683,0.0005824710792,0.003633683763,0.002679851663,0.0001454192404,0.002825270903,0.003327831927,0.0003846604334,0.00371249236,0.001889487815,0.0001555132452,0.00204500106,0.001774244143,-0.0001257398949,0.001648504248,0.002015126742,-0.0001036255112,0.001911501231,0.003132382348,-0.0003122738632,0.002820108485,0.00153636525,-4.630119268e-05,0.001490064057,0.001038796509,-7.300997015e-05,0.0009657865385,0.002084186103,5.920097481e-05,0.002143387078,0.003853046184,0.0004091555077,0.004262201692,0.0008974452485,1.220166711e-05,0.0009096469156,0.003552655109,0.0005846054526,0.004137260562,0.0008018939509,2.927501268e-05,0.0008311689636,0.00244594053,0.0001454158957,0.002591356426,0.002362883781,0.0003052033954,0.002668087177,0.003193387528,0.0002736592931,0.003467046821,0.001378183031,2.651350595e-06,0.001380834382,0.001638930163,-0.0002399468695,0.001398983293,0.001447313312,2.61558214e-05,0.001473469133,0.001475238864,-0.0001263724391,0.001348866425,0.0003667799136,0.0002077145408,0.0005744944543,0.001823574839,-8.685083936e-05,0.001736723999,0.001312729194,-0.0001886177557,0.001124111439,0.00135257975,2.915989734e-06,0.00135549574
0.8,-0.0001840612022,0.0002536603568,6.959915464e-05,-0.0004367613071,-0.000457560849,-0.0008943221561,0.004438419657,0.0003540585973,0.004792478254,0.00308930497,0.0003020338946,0.003391338864,0.001057654347,-7.484768938e-05,0.0009828066577,0.0006574640635,-3.185850579e-05,0.0006256055577,0.0003206609135,-0.0001125537087,0.0002081072048,0.0001226744929,-0.0003115911095,-0.0001889166166,0.001373218503,-0.0001986556278,0.001174562875,0.0005637359125,-0.0002186425675,0.0003450933449,0.00102142214,-0.0003249341685,0.0006964879716,0.003069878471,0.0005861501543,0.003656028625,0.002720562849,0.0001229336407,0.00284349649,0.00337444654,0.0003924854939,0.003766932034,0.001917217265,0.0001606250887,0.002077842354,0.001812894259,-0.0001267574339,0.001686136825,0.002069967027,-0.0001034518512,0.001966515176,0.003190419389,-0.0003221581252,0.002868261264,0.001599229687,-4.830847614e-05,0.001550921211,0.001013827507,-7.604803563e-05,0.0009377794711,0.002106362382,5.64167447e-05,0.002162779126,0.003894610207,0.0004109980926,0.0043056083,0.0009190328056,9.129745262e-06,0.0009281625509,0.003558994013,0.0005766123104,0.004135606323,0.000798333543,3.251752663e-05,0.0008308510696,0.002452542534,0.0001456311045,0.002598173638,0.002387211847,0.0003126811782,0.002699893025,0.003222171071,0.000270710183,0.003492881254,0.001401245912,-2.678831711e-06,0.00139856708,0.001655012321,-0.0002454692148,0.001409543107,0.001461720871,2.663465007e-05,0.001488355521,0.001491110472,-0.0001293066747,0.001361803798,0.0003910052361,0.0002120426326,0.0006030478687,0.001892164717,-0.0001048822423,0.001787282475,0.001330630769,-0.000184574795,0.001146055974,0.001406420047,-1.214852052e-05,0.001394271526
0.9,-0.0001489458741,0.0002743758136,0.0001254299395,-0.0003814014206,-0.0004617662426,-0.0008431676632,0.004478876042,0.0003568076157,0.004835683658,0.003129979594,0.0003020775982,0.003432057192,0.001079842326,-7.782572967e-05,0.001002016596,0.0007139629429,-3.083804418e-05,0.0006831248987,0.0003438700557,-0.0001141620241,0.0002297080316,0.0001085804328,-0.0003128778147,-0.0002042973818,0.001361851473,-0.0001982434414,0.001163608032,0.0005423645495,-0.0002149210778,0.0003274434718,0.001068006533,-0.000321852234,0.000746154299,0.003086217832,0.0005896957648,0.003675913597,0.002759707232,0.0001012665267,0.002860973759,0.0034196127,0.000400254639,0.003819867339,0.001946863437,0.0001659842958,0.002112847733,0.001849952346,-0.0001273256468,0.001722626699,0.00212286615,-0.0001030947422,0.002019771408,0.00324527108,-0.000332696992,0.002912574088,0.00165977625,-5.059662814e-05,0.001609179622,0.0009929244587,-7.889545759e-05,0.0009140290011,0.002130880787,5.374378665e-05,0.002184624573,0.003937708966,0.000413587883,0.004351296849,0.0009439843147,6.206657994e-06,0.0009501909727,0.003565309229,0.0005685566117,0.00413386584,0.0007965313974,3.556563004e-05,0.0008320970275,0.002458737799,0.0001457956696,0.002604533469,0.002412818735,0.0003198624954,0.00273268123,0.003249943403,0.00026772123,0.003517664633,0.001423967202,-8.03871842e-06,0.001415928483,0.001670410269,-0.000250393857,0.001420016412,0.001476345547,2.695732342e-05,0.00150330287,0.001506475068,-0.0001323160357,0.001374159032,0.0004171672612,0.0002158733218,0.000633040583,0.001959070205,-0.0001220996037,0.001836970601,0.001349931542,-0.0001797417434,0.001170189798,0.001458738685,-2.810177143e-05,0.001430636914
1.0,-0.0001149969822,0.0002951213206,0.0001801243384,-0.0003208446821,-0.0004647823893,-0.0007856270714,0.004513853726,0.0003593073813,0.004873161107,0.003170731407,0.0003025315298,0.003473262937,0.001102809318,-8.069228003e-05,0.001022117038,0.0007741924338,-2.945801312e-05,0.0007447344207,0.000372130946,-0.0001156304434,0.0002565005026,0.0001019818242,-0.0003138166748,-0.0002118348506,0.001356426931,-0.000197641349,0.001158785582,0.0005297994356,-0.0002110629817,0.000318736454,0.001120518443,-0.0003186809511,0.0008018374919,0.003100233965,0.000593105267,0.003693339232,0.002796689082,8.092399422e-05,0.002877613076,0.003463138887,0.0004079783078,0.003871117194,0.001978299715,0.0001715784598,0.002149878175,0.00188529799,-0.0001274217044,0.001757876286,0.002173580006,-0.0001025348807,0.002071045126,0.003296786997,-0.0003438579909,0.002952929006,0.001717713746,-5.315336232e-05,0.001664560384,0.0009762205579,-8.154027973e-05,0.0008946802782,0.002157474632,5.117871362e-05,0.002208653345,0.003982135336,0.0004169263462,0.004399061682,0.0009719853852,3.43993857e-06,0.0009754253238,0.003571396459,0.0005605267072,0.004131923166,0.0007964984229,3.838308445e-05,0.0008348815074,0.00246445198,0.0001459259885,0.002610377968,0.002439767548,0.0003266086108,0.002766376159,0.003276494412,0.0002647210334,0.003541215445,0.001446234992,-1.341763326e-05,0.001432817359,0.001685141707,-0.0002547321502,0.001430409557,0.001491100043,2.711297505e-05,0.001518213018,0.001521167446,-0.0001353403791,0.001385827067,0.000445068947,0.0002192249085,0.0006642938555,0.002023839358,-0.0001383556472,0.001885483711,0.001370428081,-0.0001740828674,0.001196345214,0.001509178413,-4.480812219e-05,0.001464370291
1.1,-8.254291593e-05,0.0003158546255,0.0002333117095,-0.000255613164,-0.0004665952671,-0.0007222084311,0.004543355084,0.0003615696793,0.004904924764,0.003211403082,0.0003034119921,0.003514815074,0.001126395988,-8.344231777e-05,0.00104295367,0.0008378023064,-2.774770126e-05,0.0008100546051,0.0004051792851,-0.0001169697058,0.0002882095792,0.0001028029612,-0.0003144088266,-0.0002116058655,0.001356841771,-0.0001968540791,0.001159987692,0.000525983139,-0.0002070967597,0.0003188863793,0.00117836977,-0.000315456032,0.0008629137379,0.003111936447,0.0005963694719,0.003708305919,0.002830924436,6.240483542e-05,0.002893329272,0.003504827738,0.0004156622412,0.003920489979,0.002011369661,0.0001773931555,0.002188762816,0.00191881403,-0.0001270341376,0.001791779892,0.002221863835,-0.0001017552351,0.0021201086,0.003344816699,-0.0003555944881,0.002989222211,0.00177275654,-5.596115443e-05,0.001716795385,0.0009638116163,-8.397284782e-05,0.0008798387685,0.002185843427,4.871608949e-05,0.002234559516,0.004027652113,0.0004210074096,0.004448659523,0.001002683025,8.351938132e-07,0.001003518219,0.003577031572,0.0005526079476,0.004129639519,0.0007982172913,4.093905003e-05,0.0008391563413,0.00246959777,0.0001460364152,0.002615634186,0.002468113151,0.0003327801712,0.002800893323,0.003301608708,0.0002617428698,0.003563351578,0.00146793763,-1.880623724e-05,0.001449131392,0.001699229707,-0.0002585046556,0.001440725051,0.001505891004,2.70902175e-05,0.001532981222,0.00153502641,-0.000138320341,0.001396706069,0.0004744820225,0.0002221239477,0.0006966059702,0.002086013523,-0.0001535098913,0.001932503631,0.001391890517,-0.0001675763888,0.001224314129,0.001557391773,-6.21347542e-05,0.001495257019
1.2,-5.19029032e-05,0.0003365352828,0.0002846323796,-0.0001862693833,-0.0004671973037,-0.000653466687,0.004567406549,0.0003636071905,0.00493101374,0.003251819435,0.0003047304329,0.003556549868,0.001150432434,-8.607232763e-05,0.001064360106,0.0009044065917,-2.573903898e-05,0.0008786675527,0.0004427112306,-0.0001181915142,0.0003245197164,0.000110907729,-0.0003146548286,-0.0002037470996,0.001362940311,-0.0001958864785,0.001167053833,0.0005307813582,-0.0002030514346,0.0003277299235,0.001240921501,-0.0003122133552,0.0009287081458,0.003121346044,0.000599473957,0.003720820001,0.002861869773,4.618398951e-05,0.002908053762,0.003544485413,0.00042330778,0.003967793193,0.002045893554,0.0001834122168,0.002229305771,0.00195039441,-0.0001261641898,0.00182423022,0.002267479135,-0.0001007407246,0.002166738411,0.003389213006,-0.0003678455023,0.003021367504,0.001824628491,-5.899711275e-05,0.001765631378,0.0009557593388,-8.618585957e-05,0.0008695734792,0.002215660348,4.634868471e-05,0.002262009032,0.004073997309,0.0004258178668,0.004499815175,0.00103569253,-1.603895399e-06,0.001034088635,0.00358197741,0.0005448818286,0.004126859239,0.000801648452,4.320989189e-05,0.0008448583439,0.002474085811,0.0001461396249,0.002620225436,0.00249790368,0.0003382393772,0.002836143057,0.003325074779,0.0002588245472,0.003583899327,0.00148896851,-2.419662163e-05,0.001464771889,0.001712706164,-0.0002617408645,0.0014509653,0.001520622383,2.687829142e-05,0.001547500674,0.001547902324,-0.0001411995492,0.001406702775,0.0005051539219,0.0002246039905,0.0007297579124,0.00214513859,-0.0001674275853,0.001977711005,0.001414070678,-0.0001602163549,0.001253854323,0.001603046938,-7.995194303e-05,0.001523094995
1.3,-2.338174422e-05,0.0003571254577,0.0003337437135,-0.0001134107502,-0.0004665880258,-0.0005799987759,0.004586061662,0.0003654340543,0.004951495716,0.003291790805,0.0003064932637,0.003598284068,0.001174741893,-8.85803095e-05,0.001086161584,0.0009735877759,-2.346588826e-05,0.0009501218876,0.0004843887245,-0.0001193081888,0.0003650805357,0.0001261026454,-0.0003145546931,-0.0001884520477,0.001374518141,-0.0001947435186,0.001179774623,0.0005439863181,-0.0001989563997,0.0003450299184,0.001307492808,-0.0003089886722,0.0009985041358,0.003128496072,0.0006024003446,0.003730896417,0.00288904686,3.269511753e-05,0.002921741978,0.003581926302,0.0004309118144,0.004012838116,0.002081671767,0.0001896177924,0.002271289559,0.001979948709,-0.0001248266477,0.001855122061,0.00231019878,-9.947790571e-05,0.002210720874,0.003429833964,-0.0003805358386,0.003049298125,0.00187306692,-6.22331385e-05,0.001810833781,0.0009520931849,-8.817463104e-05,0.0008639185539,0.00224657792,4.406760927e-05,0.002290645529,0.004120887526,0.0004313375263,0.004552225053,0.001070603227,-3.875635934e-06,0.001066727592,0.003585988606,0.0005374251149,0.004123413721,0.0008067340496,4.518016795e-05,0.0008519142175,0.002477831407,0.0001462467684,0.002624078176,0.002529178975,0.0003428520826,0.002872031057,0.003346692583,0.0002560076933,0.003602700277,0.001509228294,-2.958254938e-05,0.001479645744,0.001725612102,-0.000264478872,0.00146113323,0.00153519707,2.64680737e-05,0.001561665144,0.001559661519,-0.0001439261511,0.001415735368,0.0005368138843,0.0002267035063,0.0007635173906,0.002200771932,-0.0001799787772,0.002020793155,0.001436707884,-0.0001520140274,0.001284693857,0.001645830038,-9.813214812e-05,0.00154769789
1.4,2.733947913e-06,0.0003775907394,0.0003803246873,-3.766471189e-05,-0.0004647746331,-0.000502439345,0.004599401771,0.0003670663644,0.004966468135,0.00333111465,0.0003087016737,0.003639816324,0.001199142372,-9.096575493e-05,0.001108176617,0.001044899392,-2.096333117e-05,0.00102393606,0.0005298425076,-0.0001203323398,0.0004095101678,0.0001481382185,-0.0003141079192,-0.0001659697007,0.001391324332,-0.0001934302421,0.00119789409,0.0005653191201,-0.0001948411899,0.0003704779303,0.001377368751,-0.0003058173005,0.00107155145,0.00313342957,0.0006051274516,0.003738557022,0.002912059876,2.231426499e-05,0.002934374141,0.003616972195,0.0004384663371,0.004055438532,0.002118484442,0.0001959899422,0.002314474385,0.002007401757,-0.0001230499898,0.001884351768,0.002349808756,-9.795481706e-05,0.002251853939,0.003466542583,-0.0003935765858,0.003072965997,0.001917825211,-6.563640865e-05,0.001852188803,0.0009528100696,-8.993762712e-05,0.0008628724424,0.002278230932,4.186231328e-05,0.002320093245,0.004168018571,0.0004375391023,0.004605557674,0.001106982351,-5.980416413e-06,0.001101001935,0.003588813924,0.0005303089086,0.004119122832,0.0008133983893,4.684263897e-05,0.0008602410283,0.002480755516,0.0001463671481,0.002627122664,0.002561964793,0.0003464897211,0.002908454514,0.003366277991,0.0002533362352,0.003619614226,0.001528624193,-3.495975686e-05,0.001493664436,0.001737994203,-0.0002667646838,0.00147122952,0.001549516491,2.585252885e-05,0.00157536902,0.001570186984,-0.0001464537429,0.001423733241,0.0005691766183,0.0002284634426,0.0007976400609,0.00225248353,-0.0001910377792,0.002061445751,0.001459531554,-0.0001429990376,0.001316532516,0.001685443524,-0.0001165487062,0.001568894818
1.5,2.61778931e-05,0.0003979009964,0.0004240788895,4.031517762e-05,-0.0004617723361,-0.0004214571585,0.004607534225,0.0003685225506,0.004976056775,0.003369575386,0.0003113514718,0.003680926857,0.001223446026,-9.322959746e-05,0.001130216428,0.001117867021,-1.826701683e-05,0.001099600004,0.0005786727838,-0.0001212766065,0.0004573961773,0.0001767086698,-0.0003133134438,-0.000136604774,0.001413062009,-0.0001919516694,0.00122111034,0.0005944308815,-0.0001907352218,0.0004036956597,0.001449806243,-0.0003027338392,0.001147072404,0.003136193123,0.0006076324646,0.003743825588,0.002930604146,1.53458195e-05,0.002945949965,0.003649447345,0.0004459577476,0.004095405093,0.002156088588,0.0002025056366,0.002358594225,0.002032688979,-0.0001208758742,0.001911813104,0.002386106404,-9.616099643e-05,0.002289945408,0.003499204442,-0.000406865871,0.003092338571,0.001958673432,-6.91700927e-05,0.001889503339,0.0009578720906,-9.147699752e-05,0.000866395093,0.002310236841,3.97206003e-05,0.002349957442,0.004215063741,0.0004443880143,0.004659451756,0.001144377257,-7.920786475e-06,0.001136456471,0.0035901966,0.0005235977755,0.004113794375,0.0008215451294,4.819758768e-05,0.000869742717,0.002482780922,0.0001465074344,0.002629288356,0.002596263316,0.0003490312029,0.002945294519,0.003383663495,0.0002508542801,0.003634517775,0.001547067039,-4.032623119e-05,0.001506740808,0.001749898468,-0.0002686510996,0.001481247369,0.001563478508,2.502662627e-05,0.001588505134,0.001579376266,-0.0001487420881,0.001430634178,0.0006019431897,0.0002299249289,0.0008318681186,0.002299852946,-0.0002004838203,0.002099369125,0.001482261091,-0.0001332201474,0.001349040944,0.001721601522,-0.0001350746957,0.001586526826
1.6,4.670513459e-05,0.0004180311271,0.0004647362617,0.000119852498,-0.0004576044139,-0.000337751916,0.004610588697,0.000369823598,0.004980412295,0.00340694316,0.0003144329702,0.00372137613,0.001247456964,-9.537416441e-05,0.001152082799,0.00119198839,-1.54125909e-05,0.001176575799,0.0006304483875,-0.0001221534665,0.000508294921,0.0002114508871,-0.0003121696152,-0.0001007187281,0.001439387963,-0.0001903126708,0.001249075292,0.000630903122,-0.0001866674883,0.0004442356337,0.001524038639,-0.0002997718833,0.001224266756,0.003136829199,0.0006098922083,0.003746721407,0.002944468599,1.201113722e-05,0.002956479736,0.003679171935,0.000453366141,0.004132538076,0.002194214332,0.0002091372088,0.002403351541,0.002055749375,-0.0001183581049,0.00193739127,0.00241889622,-9.408762757e-05,0.002324808593,0.003527683699,-0.00042028978,0.00310739392,0.001995397198,-7.27942383e-05,0.00192260296,0.000967203119,-9.279877323e-05,0.0008744043458,0.002342194788,3.762875773e-05,0.002379823546,0.00426167099,0.0004518423347,0.004713513325,0.001182316828,-9.701508479e-06,0.00117261532,0.003589873743,0.0005173490502,0.004107222793,0.0008310525281,4.925182356e-05,0.0008803043517,0.002483825896,0.0001466705957,0.002630496491,0.002632041675,0.0003503649393,0.002982406614,0.003398695871,0.0002486037953,0.003647299667,0.00156446739,-4.568240272e-05,0.001518784988,0.001761362829,-0.0002701963862,0.001491166443,0.001576974279,2.398696076e-05,0.00160096124,0.001587137963,-0.0001507579679,0.001436379995,0.0006347999408,0.0002311274541,0.000865927395,0.002342465103,-0.0002082033485,0.002134261754,0.001504604311,-0.0001227451305,0.00138185918,0.00175402375,-0.0001535820603,0.00160044169
1.7,6.409251901e-05,0.0004379615555,0.0005020540745,0.0002002510282,-0.0004523020221,-0.000252050994,0.004608712771,0.0003709930827,0.004979705853,0.003442972677,0.0003179309428,0.00376090362,0.001270968657,-9.740311695e-05,0.00117356554,0.001266733606,-1.243519739e-05,0.001254298409,0.0006847058416,-0.0001229750661,0.0005617307755,0.0002519438747,-0.0003106744075,-5.873053285e-05,0.001469912395,-0.000188517823,0.001281394572,0.0006742483226,-0.0001826662158,0.0004915821068,0.001599279817,-0.0002969637104,0.001302316107,0.003135369483,0.0006118842193,0.003747253702,0.002953534914,1.244003367e-05,0.002965974948,0.00370595685,0.0004606648463,0.004166621696,0.002232562234,0.0002158506904,0.002448412924,0.002076518735,-0.0001155612726,0.001960957462,0.00244798506,-9.172777671e-05,0.002356257283,0.003551838532,-0.0004337234074,0.003118115124,0.002027795663,-7.646682808e-05,0.001951328835,0.0009806855348,-9.391260199e-05,0.0008867729328,0.002373684951,3.557177096e-05,0.002409256722,0.004307460593,0.0004598530158,0.004767313608,0.001220313285,-1.13295729e-05,0.001208983712,0.003587576264,0.0005116123377,0.004099188601,0.0008417687061,5.001764319e-05,0.0008917863493,0.002483798079,0.0001468547886,0.002630652867,0.002669220822,0.000350391017,0.003019611839,0.003411232344,0.0002466224248,0.003657854769,0.00158073216,-5.103113816e-05,0.001529701022,0.001772410793,-0.0002714628668,0.001500947926,0.001589885198,2.273121044e-05,0.001612616408,0.001593388233,-0.0001524762362,0.001440911997,0.00066741699,0.0002321076779,0.0008995246679,0.002379906858,-0.0002140931461,0.002165813712,0.001526256045,-0.000111659575,0.00141459647,0.001782429822,-0.0001719408838,0.001610488938
1.8,7.813926201e-05,0.0004576785052,0.0005358177672,0.0002807983256,-0.0004459038112,-0.0001651054856,0.004602068159,0.0003720570653,0.004974125224,0.003477403258,0.0003218247257,0.003799227984,0.001293762361,-9.932132267e-05,0.001194441038,0.001341546736,-9.369088638e-06,0.001332177647,0.0007409499404,-0.0001237530515,0.000617196889,0.0002977098639,-0.000308825922,-1.111605807e-05,0.001504200111,-0.0001865713216,0.001317628789,0.0007239118733,-0.0001787585556,0.0005451533177,0.001674729003,-0.0002943399666,0.001380389036,0.003131831661,0.000613587263,0.003745418924,0.00295777548,1.666559273e-05,0.002974441072,0.003729602522,0.000467820494,0.004197423016,0.002270803426,0.0002226047187,0.002493408145,0.002094925681,-0.0001125591966,0.001982366484,0.002473178882,-8.907660514e-05,0.002384102277,0.00357151746,-0.0004470318942,0.003124485566,0.002055679778,-8.014497095e-05,0.001975534807,0.0009981585482,-9.48310953e-05,0.0009033274529,0.002404270146,3.353355678e-05,0.002437803703,0.004352025113,0.0004683644355,0.004820389549,0.001257865734,-1.281413418e-05,0.0012450516,0.00358303081,0.0005064291709,0.004089459981,0.0008535090984,5.051196194e-05,0.0009040210603,0.002482591341,0.0001470525141,0.002629643856,0.002707666764,0.0003490237859,0.00305669055,0.00342113691,0.0002449417818,0.003666078692,0.001595763192,-5.637738297e-05,0.001539385809,0.001783047893,-0.000272515458,0.001510532435,0.001602081386,2.125751858e-05,0.001623338905,0.001598048686,-0.000153880863,0.001444167823,0.0006994481422,0.0002328989141,0.0009323470563,0.002411765574,-0.0002180631934,0.002193702381,0.001546898572,-0.0001000648649,0.001446833707,0.001806535845,-0.0001900190004,0.001616516844
1.9,8.866807192e-05,0.0004771741898,0.0005658422617,0.0003607704886,-0.0004384554396,-7.768495099e-05,0.004590828752,0.0003730439176,0.00496387267,0.003509961141,0.0003260884875,0.003836049629,0.001315607808,-0.0001011346374,0.00121447317,0.001415849751,-6.247416309e-06,0.001409602335,0.0007986572726,-0.0001244984227,0.00067415885,0.0003482178269,-0.0003066230332,4.159479372e-05,0.001541774326,-0.0001844770193,0.001357297307,0.000779276544,-0.0001749703882,0.0006043061559,0.001749577572,-0.0002919294124,0.00145764816,0.003126220967,0.0006149813483,0.003741202315,0.002957251518,2.462271304e-05,0.002981874231,0.003749903513,0.0004747938192,0.004224697332,0.002308583974,0.0002293505141,0.002537934488,0.002110892398,-0.0001094331555,0.002001459242,0.002494282692,-8.613133742e-05,0.002408151355,0.00358655825,-0.0004600713181,0.003126486932,0.002078871958,-8.378608532e-05,0.001995085872,0.001019419134,-9.556883698e-05,0.0009238502969,0.002433501023,3.149725139e-05,0.002464998275,0.004394932944,0.0004773153202,0.004872248264,0.001294466296,-1.416632325e-05,0.001280299972,0.003575964498,0.0005018328204,0.004077797318,0.0008660580315,5.075572251e-05,0.000916813754,0.002480087798,0.0001472503187,0.002627338117,0.00274718526,0.000346195352,0.003093380612,0.003428278194,0.0002435865136,0.003671864708,0.00160945855,-6.172746712e-05,0.001547731083,0.001793261803,-0.0002734203424,0.00151984146,0.001613422798,1.956402833e-05,0.001632986827,0.001601046592,-0.00015496564,0.001446080952,0.0007305338152,0.0002335311141,0.0009640649293,0.002437631635,-0.0002200393651,0.00221759227,0.001566204846,-8.807548411e-05,0.001478129362,0.001826054702,-0.0002076821666,0.001618372536
2.0,9.552696472e-05,0.0004964469318,0.0005919738965,0.0004394383585,-0.0004300090946,9.42926389e-06,0.00457518079,0.0003739841077,0.004949164897,0.003540364192,0.0003306916025,0.003871055795,0.001336266586,-0.000102849652,0.001233416934,0.001489049014,-3.102220363e-06,0.001485946794,0.0008572829725,-0.0001252214327,0.0007320615399,0.0004028894189,-0.0003040660814,9.88233375e-05,0.001582123264,-0.0001822385998,0.001399884665,0.0008396698174,-0.0001713262398,0.0006683435776,0.001823018276,-0.000289758735,0.001533259541,0.003118535591,0.000616047683,0.003734583274,0.002952111778,3.615032981e-05,0.002988262108,0.003766657908,0.0004815411536,0.004248199061,0.002345533197,0.0002360329186,0.002581566115,0.002124339802,-0.0001062698519,0.00201806995,0.002511103889,-8.289084736e-05,0.002428213042,0.003596790421,-0.0004726897439,0.003124100677,0.002097207805,-8.734891427e-05,0.002009858891,0.001044225445,-9.614112453e-05,0.0009480843206,0.002460924558,2.944563743e-05,0.002490370195,0.004435735191,0.000486640031,0.004922375222,0.001329608465,-1.539895784e-05,0.001314209507,0.003566111769,0.0004978482734,0.004063960043,0.0008791747911,5.077341825e-05,0.0009299482093,0.002476164915,0.000147429155,0.00262359407,0.002787520238,0.000341859823,0.003129380061,0.003432529525,0.0002425740934,0.003675103618,0.00162171605,-6.708835785e-05,0.001554627692,0.0018030252,-0.0002742439539,0.001528781246,0.001623762657,1.764881604e-05,0.001641411473,0.0016023172,-0.0001557343629,0.001446582837,0.0007603073956,0.0002340309222,0.0009943383178,0.002457105917,-0.0002199665621,0.002237139354,0.001583844154,-7.581547234e-05,0.001508028682,0.001840699631,-0.0002247943947,0.001615905236
2.1,9.859130989e-05,0.0005155010403,0.0006140923502,0.0005160747147,-0.000420623117,9.545159767e-05,0.004555324079,0.000374909909,0.004930233988,0.003568327901,0.0003355990208,0.003903926922,0.001355497226,-0.0001044734798,0.001251023746,0.001560543205,3.547679361e-08,0.001560578681,0.0009162693004,-0.0001259314974,0.0007903378029,0.0004611064674,-0.0003011576066,0.0001599488609,0.001624708425,-0.0001798598188,0.001444848606,0.000904373177,-0.0001678492255,0.0007365239515,0.001894256044,-0.0002878523739,0.00160640367,0.003108772838,0.0006167690071,0.003725541845,0.002942590498,5.099680394e-05,0.002993587302,0.003779677587,0.0004880162322,0.004267693819,0.002381273209,0.0002425921177,0.002623865327,0.002135194345,-0.0001031591666,0.002032035178,0.002523457405,-7.935499629e-05,0.002444102408,0.003602041085,-0.0004847292486,0.003117311836,0.002110539469,-9.079428569e-05,0.002019745184,0.001072301308,-9.656271968e-05,0.000975738588,0.002486093822,2.736167734e-05,0.0025134555,0.004473974195,0.000496269928,0.004970244123,0.001362796235,-1.652623605e-05,0.001346269999,0.003553221558,0.0004944923069,0.004047713865,0.0008926019437,5.059242835e-05,0.0009431943721,0.002470704423,0.0001475653056,0.002618269729,0.002828355243,0.0003359972729,0.003164352516,0.00343377058,0.0002419149294,0.00367568551,0.001632437329,-7.246718494e-05,0.001559970144,0.001812298936,-0.0002750521256,0.001537246811,0.001632951679,1.551018397e-05,0.001648461863,0.001601806393,-0.0001562004501,0.001445605943,0.000788403545,0.0002344214276,0.001022824973,0.00246981009,-0.0002178121007,0.002251997989,0.001599488594,-6.341415448e-05,0.001536074439,0.001850188989,-0.0002412176241,0.001608971365
2.2,9.776525611e-05,0.0005343462744,0.0006321115305,0.0005899615272,-0.0004103617319,0.0001795997953,0.004531472542,0.0003758549703,0.004907327513,0.003593570931,0.0003407715901,0.003934342521,0.001373060212,-0.0001060136027,0.001267046609,0.001629730886,3.135637415e-06,0.001632866524,0.0009750537754,-0.0001266370603,0.000848416715,0.000522218616,-0.0002979031008,0.0002243155151,0.001668972657,-0.0001773447295,0.001491627927,0.0009726316776,-0.0001645609236,0.0008080707539,0.001962518647,-0.0002862323181,0.001676286329,0.003096932633,0.0006171305104,0.003714063143,0.002929002318,6.882778951e-05,0.002997830107,0.00378879496,0.0004941718737,0.004282966834,0.002415426071,0.0002489656661,0.002664391738,0.002143392808,-0.000100191826,0.002043200982,0.002531170298,-7.552401138e-05,0.002455646287,0.003602142692,-0.0004960296373,0.003106113055,0.002118739191,-9.408556209e-05,0.002024653628,0.00110333998,-9.684693578e-05,0.001006493044,0.002508576538,2.522896829e-05,0.002533805507,0.004509191593,0.0005061343798,0.005015325972,0.001393552218,-1.756348082e-05,0.001375988737,0.003537062838,0.0004917735519,0.00402883639,0.0009060723527,5.024207822e-05,0.0009563144309,0.00246359849,0.0001476316372,0.002611230128,0.002869316532,0.0003286163253,0.003197932857,0.003431888888,0.0002416124257,0.003673501314,0.001641530469,-7.78710944e-05,0.001563659374,0.001821033039,-0.0002759090295,0.001545124009,0.001640841228,1.314705832e-05,0.001653988287,0.001599471471,-0.0001563859937,0.001443085477,0.0008144659399,0.0002347216589,0.001049187599,0.002475396144,-0.0002135687849,0.002261827359,0.0016128186,-5.100180034e-05,0.0015618168,0.001854250273,-0.0002568105486,0.001597439724
2.3,9.298184518e-05,0.0005529968851,0.0006459787303,0.0006603963939,-0.0003992947963,0.0002611015976,0.004503852792,0.0003768537147,0.004880706507,0.003615818935,0.0003461663683,0.003961985303,0.001388721427,-0.0001074777349,0.001281243692,0.001696016355,6.169344911e-06,0.0017021857,0.001033075179,-0.0001273454195,0.0009057297591,0.0005855499339,-0.0002943116688,0.0002912382652,0.00171434665,-0.0001746978507,0.001539648799,0.001043662384,-0.0001614811605,0.0008821812234,0.002027065705,-0.0002849178914,0.001742147813,0.003083016733,0.0006171212876,0.003700138021,0.002911732114,8.923618673e-05,0.003000968301,0.003793864143,0.0004999612713,0.004293825415,0.002447616698,0.0002550905086,0.002702707207,0.002148882882,-9.745710153e-05,0.00205142578,0.00253408422,-7.13981189e-05,0.002462686101,0.003596940766,-0.0005064337573,0.003090507009,0.002121701461,-9.718873512e-05,0.002024512726,0.001137006018,-9.700514855e-05,0.00104000087,0.002527960896,2.30319725e-05,0.002550992869,0.004540934581,0.0005161611937,0.005057095774,0.001421423625,-1.852692382e-05,0.001402896701,0.003517427586,0.0004896925501,0.004007120136,0.0009193124904,4.975264438e-05,0.0009690651348,0.002454750366,0.0001475990231,0.00260234939,0.00290997682,0.0003197548261,0.003229731646,0.00342677964,0.0002416628661,0.003668442506,0.001648909995,-8.330721607e-05,0.001565602779,0.001829164433,-0.0002768756204,0.001552288812,0.001647284161,1.055938747e-05,0.001657843548,0.001595278987,-0.0001563203408,0.001438958646,0.0008381525884,0.000234946096,0.001073098684,0.002473553383,-0.0002072577404,0.002266295643,0.001623526393,-3.870576646e-05,0.001584820627,0.001852622925,-0.0002714274513,0.001581195474
2.4,8.420161617e-05,0.0005714703696,0.0006556719858,0.0007266976745,-0.0003874974767,0.0003392001978,0.004472700406,0.0003779405776,0.004850640983,0.003634806342,0.0003517369757,0.003986543318,0.001402253499,-0.0001088736911,0.001293379808,0.001758813381,9.109069803e-06,0.001767922451,0.00108977698,-0.0001280626072,0.0009617143732,0.0006504038643,-0.0002903964168,0.0003600074475,0.001760253424,-0.0001719242819,0.001588329142,0.001116661103,-0.0001586277468,0.0009580333566,0.002087195331,-0.000283925575,0.001803269756,0.003067024229,0.0006167360076,0.003683760236,0.002891218496,0.0001117543727,0.003002972868,0.003794757443,0.0005053388078,0.00430009625,0.002477472142,0.0002609046919,0.002738376834,0.002151619448,-9.504068386e-05,0.002056578764,0.002532055454,-6.697754985e-05,0.002465077904,0.003586299872,-0.000515793467,0.003070506405,0.002119343051,-0.0001000722052,0.002019270846,0.001172935251,-9.704665131e-05,0.0010758886,0.002543858461,2.07560919e-05,0.002564614553,0.004568760113,0.0005262766184,0.005095036731,0.001445985923,-1.943347369e-05,0.001426552449,0.003494131367,0.0004882418365,0.003982373204,0.000932041809,4.915454012e-05,0.0009811963491,0.002444069559,0.00014743786,0.002591507419,0.002949859405,0.0003094787281,0.003259338133,0.003418343617,0.0002420549981,0.003660398615,0.001654494404,-8.878255017e-05,0.001565711854,0.001836611734,-0.0002780074997,0.001558604235,0.001652133192,7.748645945e-06,0.001659881837,0.001589200198,-0.0001560383633,0.001433161835,0.0008591382146,0.0002351043412,0.001094242556,0.002464012943,-0.0001989312407,0.002265081702,0.001631316883,-2.664710606e-05,0.001604669777,0.001845060542,-0.0002849180771,0.001560142465
2.5,7.140999378e-05,0.0005897860789,0.0006611960727,0.0007882082767,-0.000375049843,0.0004131584338,0.004438254374,0.0003791491129,0.004817403487,0.0036502766,0.0003574340053,0.004007710606,0.001413435373,-0.000110209284,0.001303226089,0.001817547366,1.192898113e-05,0.001829476347,0.001144608772,-0.0001287933941,0.001015815378,0.0007160666339,-0.00028617445,0.0004298921839,0.001806111188,-0.0001690297624,0.001637081425,0.001190807638,-0.0001560162079,0.00103479143,0.002142248523,-0.0002832688717,0.001858979651,0.003048945271,0.0006159763427,0.003664921614,0.002867931114,0.0001358690666,0.003003800181,0.003791359552,0.0005102604403,0.004301619992,0.002504619206,0.0002663485652,0.002770967771,0.002151558147,-9.302290452e-05,0.002058535243,0.002524953219,-6.226298113e-05,0.002462690237,0.003570107008,-0.0005239752258,0.003046131783,0.00211160123,-0.0001027063926,0.002008894838,0.001210733882,-9.697882504e-05,0.001113755057,0.00255590495,1.838777364e-05,0.002574292724,0.004592237692,0.0005364052764,0.005128642969,0.001466844799,-2.030045096e-05,0.001446544348,0.003467012737,0.0004874059945,0.003954418731,0.0009439695184,4.847768401e-05,0.0009924472024,0.002431463646,0.000147119523,0.002578583169,0.002988442471,0.0002978798794,0.003286322351,0.003406484224,0.0002427693426,0.003649253567,0.001658202497,-9.430377355e-05,0.001563898724,0.001843268734,-0.00027935236,0.001563916374,0.001655237721,4.718520179e-06,0.001659956241,0.001581205536,-0.0001555784585,0.001425627077,0.0008771140985,0.0002352010933,0.001112315192,0.002446550066,-0.000188674913,0.002257875153,0.001635906295,-1.493730963e-05,0.001620968985,0.001831333202,-0.0002971287719,0.00153420443
2.6,5.461409705e-05,0.0006079637639,0.0006625778609,0.0008442984858,-0.0003620364142,0.0004822620716,0.004400750778,0.0003805109979,0.004781261776,0.003661981821,0.0003632055056,0.004025187327,0.00142205114,-0.0001114922657,0.001310558874,0.001871656918,1.46053096e-05,0.001886262227,0.001197026926,-0.0001295413885,0.001067485537,0.0007818101048,-0.0002816665345,0.0005001435702,0.001851335535,-0.0001660206639,0.001685314871,0.001265270344,-0.0001536595157,0.001111610828,0.002191612046,-0.0002829581776,0.001908653869,0.003028755372,0.000614851845,0.003643607217,0.002842344042,0.0001610390634,0.003003383106,0.003783562282,0.000514683872,0.004298246154,0.002528682623,0.0002713655326,0.002800048155,0.002148648503,-9.147736281e-05,0.00205717114,0.002512657453,-5.72563497e-05,0.002455401103,0.00354827316,-0.00053086487,0.00301740829,0.00209843122,-0.0001050633881,0.001993367832,0.001249978302,-9.680757822e-05,0.001153170724,0.002563760395,1.591470846e-05,0.002579675103,0.004610952141,0.0005464702885,0.005157422429,0.001483637604,-2.114531779e-05,0.001462492286,0.003435933049,0.0004871616592,0.003923094708,0.0009547908924,4.775089745e-05,0.00100254179,0.002416829792,0.0001466175442,0.002563447336,0.003025163664,0.0002850735779,0.003310237242,0.003391104897,0.0002437777131,0.00363488261,0.001659950338,-9.987704938e-05,0.001560073288,0.001848999007,-0.0002809474397,0.001568051567,0.001656440732,1.475744104e-06,0.001657916476,0.001571259695,-0.0001549803681,0.001416279327,0.0008917864059,0.0002352367103,0.001127023116,0.002420984716,-0.0001766083372,0.002244376378,0.00163701984,-3.675166497e-06,0.001633344673,0.001811230657,-0.0003079044526,0.001503326205
2.7,3.383974016e-05,0.0006260221522,0.0006598618923,0.0008943686478,-0.000348545713,0.0005458229348,0.004360417037,0.0003820549899,0.004742472027,0.003669683051,0.000368997569,0.00403868062,0.001427889433,-0.0001127302667,0.001315159167,0.001920596114,1.711679586e-05,0.00193771291,0.00124649605,-0.0001303091433,0.001116186906,0.0008468955651,-0.0002768966304,0.0005699989347,0.001895342222,-0.0001629039382,0.001732438284,0.001339211168,-0.0001515678363,0.001187643332,0.002234721056,-0.0002830006484,0.001951720407,0.003006412324,0.0006133802075,0.003619792532,0.002814909189,0.00018671581,0.003001624999,0.00377126247,0.0005185688646,0.004289831334,0.002549285769,0.0002759026759,0.002825188444,0.002142829041,-9.046981813e-05,0.002052359223,0.002495057757,-5.196182273e-05,0.002443095935,0.003520734809,-0.0005363716086,0.002984363201,0.002079804314,-0.0001071168664,0.001972687448,0.001290217153,-9.653788246e-05,0.001193679271,0.002567110633,1.332602107e-05,0.002580436654,0.0046245081,0.0005563936561,0.005180901757,0.001496035691,-2.198540552e-05,0.001474050286,0.003400778091,0.0004874776024,0.003888255694,0.0009641855172,4.700124599e-05,0.001011186763,0.002400049061,0.000145908575,0.002545957636,0.003059426281,0.0002711963688,0.00333062265,0.003372108065,0.0002450434695,0.003617151534,0.001659650631,-0.0001055078452,0.001554142786,0.001853634296,-0.0002828175103,0.001570816786,0.001655577405,-1.968969643e-06,0.001653608436,0.001559319024,-0.0001542831408,0.001405035884,0.0009028748464,0.0002352083948,0.001138083241,0.002387181914,-0.000162883556,0.002224298358,0.001634390836,7.055619431e-06,0.001641446455,0.001784567385,-0.0003170910851,0.0014674763
2.8,9.129348862e-06,0.0006439777049,0.0006531070537,0.0009378527191,-0.0003346698901,0.000603182829,0.004317468154,0.0003838059362,0.00470127409,0.003673152365,0.0003747550343,0.0040479074,0.001430744799,-0.0001139306694,0.00131681413,0.001963838692,1.94451645e-05,0.001983283856,0.001292492848,-0.000131098235,0.001161394613,0.0009105798516,-0.0002718915343,0.0006386883173,0.001937551861,-0.000159687092,0.001777864769,0.001411792454,-0.0001497483417,0.001262044112,0.002271062812,-0.0002834000966,0.001987662715,0.002981857307,0.0006115870285,0.003593444336,0.002786034549,0.0002123657772,0.002998400326,0.003754364988,0.0005218779828,0.004276242971,0.002566055368,0.0002799116028,0.002845966971,0.002134026736,-9.005714874e-05,0.002043969587,0.002472055378,-4.638667534e-05,0.002425668703,0.00348745719,-0.000540431143,0.002947026047,0.002055708147,-0.0001088423692,0.001946865778,0.001330976763,-9.617421299e-05,0.00123480255,0.002565671797,1.061239008e-05,0.002576284187,0.004632537625,0.0005660968639,0.005198634489,0.001503748772,-2.28375908e-05,0.001480911182,0.00336146226,0.0004883150969,0.003849777356,0.0009718198536,4.625337843e-05,0.001018073232,0.002380986175,0.0001449735253,0.0025259597,0.00309060933,0.0002564039377,0.003347013268,0.003349397002,0.0002465225147,0.003595919516,0.001657215615,-0.000111200659,0.001546014956,0.00185697836,-0.0002849737358,0.001572004624,0.001652476651,-5.599978828e-06,0.001646876672,0.001545332434,-0.0001535235523,0.001391808882,0.0009101138389,0.000235111575,0.001145225414,0.002345053777,-0.0001476815022,0.002197372274,0.001627763505,1.71874271e-05,0.001644950932,0.00175119047,-0.0003245387868,0.001426651683
2.9,-1.945875922e-05,0.0006618436943,0.000642384935,0.0009742233758,-0.0003205044455,0.0006537189303,0.004272105865,0.000385783968,0.004657889833,0.003672177457,0.0003804222449,0.004052599702,0.00143042185,-0.0001151004131,0.001315321437,0.002000884827,2.157552423e-05,0.002022460352,0.001334513238,-0.0001319093472,0.001202603891,0.0009721244104,-0.0002666808147,0.0007054435957,0.001977397146,-0.0001563782481,0.001821018898,0.001482186223,-0.0001482051291,0.001333981094,0.002300182361,-0.0002841569547,0.002016025406,0.002955020569,0.0006095052346,0.003564525804,0.00275607089,0.0002374922347,0.002993563125,0.00373279078,0.00052457778,0.00425736856,0.002578630344,0.0002833496202,0.002861979964,0.002122162149,-9.02863297e-05,0.00203187582,0.00244356943,-4.054194075e-05,0.002403027489,0.003448440005,-0.000543007473,0.002905432532,0.002026149966,-0.0001102178652,0.0019159321,0.001371769923,-9.572080043e-05,0.001276049123,0.002559198046,7.766173484e-06,0.002566964219,0.004634710711,0.0005755016545,0.005210212365,0.001506531408,-2.371788989e-05,0.001482813518,0.003317934706,0.0004896286744,0.00380756338,0.0009773553846,4.552897598e-05,0.001022884361,0.002359495893,0.0001437991863,0.002503295079,0.003118082852,0.0002408684639,0.003358951316,0.003322881622,0.0002481646,0.003571046222,0.001652562935,-0.0001169585684,0.001535604366,0.001858815899,-0.0002874134634,0.001571402435,0.001646965736,-9.395911206e-06,0.001637569825,0.001529245704,-0.0001527349868,0.001376510717,0.0009132573329,0.0002349409562,0.001148198289,0.002294564556,-0.0001312063824,0.002163358173,0.001616899957,2.666833596e-05,0.001643568293,0.001710990361,-0.0003301057143,0.001380884647
3.0,-5.184989258e-05,0.0006796296348,0.0006277797422,0.001002998485,-0.000306148011,0.0006968504738,0.004224520428,0.0003880039554,0.004612524383,0.003666568134,0.0003859437625,0.004052511896,0.001426741744,-0.000116245803,0.001310495941,0.002031269838,2.349666129e-05,0.002054766499,0.001372081923,-0.0001327423897,0.001239339534,0.001030806554,-0.0002612970482,0.0007695095057,0.00201433192,-0.000152986275,0.001861345645,0.001549585389,-0.0001469392234,0.001402646165,0.002321689788,-0.0002852682798,0.002036421508,0.002925830077,0.0006071742338,0.003533004311,0.00272530703,0.0002616533926,0.002986960423,0.003706487022,0.0005266400761,0.004233127098,0.002586672853,0.0002861810075,0.002872853861,0.00210715904,-9.119359626e-05,0.002015965443,0.00240954648,-3.444285548e-05,0.002375103624,0.003403724817,-0.0005440931012,0.002859631716,0.001991162377,-0.0001112243927,0.001879937984,0.001412106402,-9.518168153e-05,0.00131692472,0.002547490881,4.781606697e-06,0.002552272487,0.004630746716,0.0005845308971,0.005215277613,0.001504190372,-2.464102193e-05,0.00147954935,0.003270185504,0.0004913672227,0.003761552727,0.000980461021,4.484634187e-05,0.001025307363,0.002335434116,0.0001423801549,0.002477814271,0.003141227541,0.0002247747386,0.003366002279,0.003292487936,0.0002499143116,0.003542402247,0.001645622477,-0.0001227827174,0.001522839759,0.001858923967,-0.0002901208094,0.001568803157,0.001638876862,-1.332927519e-05,0.001625547587,0.001511007448,-0.0001519466257,0.001359060822,0.0009120863607,0.0002346909392,0.0011467773,0.002235737966,-0.0001136780978,0.002122059868,0.001601589717,3.546072978e-05,0.001637050447,0.00166391282,-0.0003336625777,0.001330250242
3.1,-8.79521059e-05,0.000697340986,0.0006093888801,0.001023747879,-0.0002917020955,0.000732045784,0.004174893515,0.000390475205,0.00456536872,0.003656162946,0.0003912649599,0.004047427906,0.00141954916,-0.0001173723907,0.001302176769,0.002054573031,2.520122384e-05,0.002079774255,0.001404762101,-0.0001335966278,0.001271165473,0.001085931008,-0.0002557761351,0.0008301548734,0.00204784022,-0.0001495209047,0.001898319315,0.001613215158,-0.0001459485786,0.00146726658,0.002335267465,-0.00028672775,0.002048539715,0.002894219885,0.000604638814,0.003498858699,0.002693970768,0.0002844743134,0.002978445082,0.003675434996,0.0005280428629,0.004203477859,0.002589878111,0.0002883780361,0.002878256147,0.002088954618,-9.280397617e-05,0.001996150641,0.00236997054,-2.810918445e-05,0.002341861355,0.003353402223,-0.0005437079113,0.002809694311,0.001950809749,-0.000111846617,0.001838963132,0.0014515028,-9.456066511e-05,0.001356942135,0.00253040736,1.654975885e-06,0.002532062336,0.004620423837,0.0005931094503,0.005213533287,0.001496590942,-2.562004149e-05,0.001470970901,0.003218249613,0.0004934752369,0.00371172485,0.0009808260967,4.422001048e-05,0.001025046107,0.002308669141,0.0001407204458,0.002449389586,0.003159455505,0.0002083148429,0.003367770348,0.003258169319,0.0002517111725,0.003509880492,0.001636341845,-0.0001286720166,0.001507669828,0.001857082594,-0.0002930678957,0.001564014698,0.001628053793,-1.736668878e-05,0.001610687104,0.001490574423,-0.0001511829157,0.001339391508,0.0009064167802,0.0002343554536,0.001140772234,0.002168663864,-9.532344616e-05,0.002073340418,0.001581658771,4.353941911e-05,0.00162519819,0.001609969163,-0.0003350974039,0.001274871759
3.2,-0.0001276558181,0.0007149790403,0.0005873232222,0.001036099265,-0.0002772706543,0.0007588286105,0.004123400466,0.0003932013444,0.00451660181,0.003640834113,0.0003963325016,0.004037166614,0.001408717721,-0.0001184849251,0.001290232796,0.002070424958,2.668574853e-05,0.002097110707,0.001432162842,-0.0001344707811,0.001297692061,0.001136839736,-0.0002501573779,0.0008866823578,0.002077443372,-0.0001459927716,0.0019314506,0.001672342635,-0.0001452280095,0.001527114626,0.002340675406,-0.0002885256422,0.002052149764,0.002860135374,0.0006019478072,0.003462083181,0.002662231658,0.0003056517791,0.002967883437,0.003639652446,0.0005287706165,0.004168423063,0.002587980303,0.0002899215009,0.002877901803,0.002067506508,-9.51312113e-05,0.001972375296,0.002324870289,-2.156545012e-05,0.002303304839,0.003297616656,-0.000541897131,0.002755719525,0.001905193158,-0.0001120731585,0.001793119999,0.00148948999,-9.386144912e-05,0.00139562854,0.002507865,-1.615409492e-06,0.002506249591,0.004603584639,0.0006011649183,0.005204749557,0.001483660539,-2.666611208e-05,0.001456994427,0.003162207347,0.0004958940227,0.00365810137,0.0009781702463,4.366027935e-05,0.001021830526,0.00227908885,0.0001388342014,0.002417923052,0.003172228505,0.0001916819839,0.003363910489,0.003219916829,0.0002534888911,0.00347340572,0.001624688985,-0.0001346232088,0.001490065776,0.001853082343,-0.0002962166723,0.001556865671,0.001614356826,-2.146964632e-05,0.00159288718,0.001467914542,-0.0001504633733,0.001317451169,0.0008961045752,0.0002339275537,0.001130032129,0.002093501808,-7.636787791e-05,0.00201713393,0.001556975457,5.089005195e-05,0.001607865509,0.001549242384,-0.0003343201777,0.001214922206
3.3,-0.0001708343515,0.0007325409637,0.0005617066122,0.001039742583,-0.0002629593614,0.0007767832211,0.004070210903,0.000396180382,0.004466391285,0.003620489854,0.000401094763,0.004021584617,0.001394152631,-0.0001195873324,0.001274565299,0.002078512177,2.795045186e-05,0.002106462629,0.001453942884,-0.0001353631129,0.001318579771,0.001182918853,-0.0002444831697,0.0009384356831,0.00210270404,-0.000142413354,0.001960290686,0.001726283419,-0.0001447690576,0.001581514361,0.002337753472,-0.0002906488387,0.002047104633,0.002823534323,0.0005991524996,0.003422686823,0.002630202724,0.0003249535333,0.002955156258,0.003599189794,0.0005288141104,0.004128003905,0.002580753901,0.0002908007006,0.002871554602,0.002042794681,-9.81780241e-05,0.001944616657,0.00227432192,-1.484110574e-05,0.002259480814,0.003236567156,-0.0005387283862,0.00269783877,0.001854452533,-0.0001118965818,0.001742555952,0.001525617414,-9.308799032e-05,0.001432529424,0.002479842365,-5.029480498e-06,0.002474812884,0.004580137054,0.0006086282757,0.00518876533,0.001465389005,-2.778842302e-05,0.001437600582,0.003102181283,0.0004985627487,0.003600744031,0.0009722482201,4.317276304e-05,0.001015420983,0.002246602134,0.0001367453476,0.002383347481,0.003179071206,0.0001750644141,0.00335413562,0.003177765729,0.0002551745434,0.003432940273,0.001610651512,-0.0001406311807,0.001470020332,0.001846728007,-0.0002995211745,0.001547206832,0.001597665076,-2.559542014e-05,0.001572069656,0.001443007104,-0.0001498027205,0.001293204384,0.0008810472544,0.0002333991295,0.001114446384,0.002010481658,-5.702981472e-05,0.001953451844,0.001527452359,5.750822847e-05,0.001584960588,0.001481888405,-0.0003312670324,0.001150621373
3.4,-0.0002173453062,0.0007500199764,0.0005326746703,0.001034432727,-0.0002488745741,0.0007855581525,0.004015487669,0.0003994049505,0.004414892619,0.003595074216,0.0004055022102,0.004000576427,0.001375790387,-0.0001206827117,0.001255107675,0.00207857954,2.899874069e-05,0.002107578281,0.001469810871,-0.0001362715639,0.001333539307,0.001223602492,-0.0002387983433,0.0009848041488,0.002123227187,-0.0001387948335,0.001984432353,0.001774404953,-0.0001445598485,0.001629845104,0.002326420091,-0.0002930808972,0.002033339194,0.002784384525,0.0005963047901,0.003380689315,0.002597940434,0.000342214157,0.002940154591,0.003554121679,0.0005281699524,0.004082291631,0.002568011266,0.000291013023,0.002859024289,0.002014818711,-0.0001019367155,0.001912881996,0.002218447776,-7.970775886e-06,0.002210477,0.003170503601,-0.00053428776,0.002636215841,0.0017987657,-0.0001113130604,0.001687452639,0.001559454347,-9.224497733e-05,0.00146720937,0.002446375577,-8.585747389e-06,0.002437789829,0.004550051377,0.0006154344745,0.005165485851,0.001441825712,-2.899420678e-05,0.001412831505,0.003038330401,0.0005014193039,0.003539749705,0.0009628496215,4.275808224e-05,0.001005607704,0.002211135021,0.0001344864717,0.002345621493,0.003179578812,0.0001586400316,0.003338218844,0.003131796574,0.0002566885621,0.003388485136,0.001594233267,-0.0001466893649,0.001447543902,0.001837838932,-0.0003029299462,0.001534908986,0.00157787595,-2.969775142e-05,0.001548178198,0.001415840749,-0.0001492113642,0.001266629385,0.0008611814883,0.000232760828,0.001093942316,0.001919902815,-3.751839722e-05,0.001882384417,0.001493045097,6.339893695e-05,0.001556444034,0.001408133207,-0.0003259038208,0.001082229386
3.5,-0.0002670324354,0.0007674056512,0.0005003732158,0.00101999085,-0.000235122127,0.0007848687234,0.003959384703,0.0004028627169,0.00436224742,0.003564565108,0.0004095077365,0.003974072845,0.001353596232,-0.0001217733651,0.001231822867,0.00207043064,2.983646611e-05,0.002100267106,0.00147952302,-0.0001371939271,0.001342329093,0.001258374153,-0.0002331492626,0.00102522489,0.002138658654,-0.0001351498848,0.002003508769,0.001816127239,-0.0001445849987,0.00167154224,0.002306667977,-0.0002958021645,0.002010865813,0.002742659602,0.00059345529,0.003336114892,0.002565444103,0.0003573291803,0.002922773283,0.003504536461,0.0005268400376,0.004031376499,0.002549598015,0.0002905635527,0.002840161567,0.001983591786,-0.0001063900005,0.001877201785,0.002157411864,-9.945241292e-07,0.00215641734,0.003099719436,-0.0005286752465,0.00257104419,0.001738344858,-0.0001103219163,0.001628022941,0.001590588977,-9.13382588e-05,0.001499250718,0.002407551914,-1.228154022e-05,0.002395270374,0.004513354472,0.0006215231575,0.00513487763,0.001413074309,-3.02888197e-05,0.00138278549,0.002970842817,0.0005044009145,0.003475243732,0.0009497950032,4.241162428e-05,0.0009922066275,0.002172623522,0.000132097235,0.002304720757,0.003173419717,0.000142572029,0.003315991746,0.003082131226,0.0002579458022,0.003340077029,0.001575449465,-0.000152790218,0.001422659247,0.001826247328,-0.0003063884036,0.001519858924,0.001554902615,-3.37273804e-05,0.001521175235,0.001386410229,-0.0001486962679,0.001237713962,0.0008364784205,0.0002320021186,0.001068480539,0.001822131961,-1.803351624e-05,0.001804098445,0.001453749432,6.857571902e-05,0.001522325151,0.001328267226,-0.0003182290895,0.001010038136
3.6,-0.0003197275829,0.0007846843213,0.0004649567384,0.0009963047322,-0.0002218061461,0.0007744985861,0.003902044842,0.0004065369278,0.00430858177,0.003528971591,0.0004130669752,0.003942038566,0.001327560601,-0.0001228608558,0.001204699745,0.002053927366,3.047102298e-05,0.002084398389,0.00148287966,-0.0001381279829,0.001344751677,0.001286766577,-0.0002275827002,0.001059183877,0.002148682615,-0.0001314914202,0.002017191195,0.001850922032,-0.000144825597,0.001706096435,0.002278557916,-0.000298789902,0.001979768014,0.002698335219,0.0005906516266,0.003288986845,0.002532656533,0.0003702481824,0.002902904715,0.003450526815,0.0005248310363,0.003975357852,0.002525388147,0.0002894651148,0.002814853262,0.001949133661,-0.0001115118621,0.001837621799,0.002091413565,6.042223593e-06,0.002097455788,0.003024542891,-0.0005220003804,0.002502542511,0.00167343171,-0.0001089253487,0.001564506361,0.001618626904,-9.037523956e-05,0.001528251664,0.002363502328,-1.611313897e-05,0.002347389189,0.004470122916,0.0006268394715,0.005096962388,0.001379286438,-3.167586037e-05,0.001347610578,0.002899928744,0.0005074444817,0.003407373225,0.0009329305828,4.212332879e-05,0.0009750539116,0.002131006258,0.0001296224307,0.002260628688,0.003160334492,0.000127005948,0.00328734044,0.003028925922,0.0002588574452,0.003287783367,0.001554322264,-0.0001589257937,0.00139539647,0.00181179627,-0.0003098409521,0.001501955318,0.001528670971,-3.76326398e-05,0.001491038331,0.00135471313,-0.0001482620809,0.00120645105,0.0008069386028,0.0002311115797,0.001038050183,0.001717597395,1.234516439e-06,0.001718831911,0.001409597966,7.305944864e-05,0.001482657415,0.001242638253,-0.0003082764142,0.0009343618386
3.7,-0.0003752521438,0.0008018396416,0.0004265874978,0.0009633288218,-0.0002090279723,0.0007543008495,0.003843598717,0.0004104070849,0.004254005801,0.003488331669,0.0004161386334,0.003904470302,0.001297696017,-0.0001239460349,0.001173749982,0.002028989632,3.091044243e-05,0.002059900074,0.001479722432,-0.0001390715238,0.001340650909,0.001308361527,-0.0002221446195,0.001086216908,0.002153019425,-0.0001278323459,0.002025187079,0.001878312048,-0.0001452593032,0.001733052744,0.002242212165,-0.0003020184575,0.001940193707,0.002651387915,0.0005879370378,0.003239324953,0.002499467995,0.0003809672776,0.002880435273,0.003392184585,0.0005221540009,0.003914338586,0.002495281426,0.0002877387861,0.002783020212,0.001911465423,-0.0001172682113,0.001794197212,0.002020681263,1.308949877e-05,0.002033770762,0.002945328639,-0.0005143785328,0.002430950106,0.001604292585,-0.0001071285305,0.001497164054,0.001643190916,-8.936521324e-05,0.001553825703,0.002314395106,-2.007586981e-05,0.002294319236,0.004420477143,0.000631334877,0.00505181202,0.00134065602,-3.315727836e-05,0.001307498742,0.002825815371,0.0005104867378,0.003336302109,0.0009121240813,4.187775314e-05,0.0009540018344,0.002086220263,0.0001271097956,0.002213330059,0.003140133237,0.0001120682426,0.00325220148,0.00297236392,0.0002593334711,0.003231697391,0.001530878583,-0.0001650882874,0.001365790295,0.001794339478,-0.0003132326941,0.001481106784,0.001499117851,-4.136014031e-05,0.001457757711,0.001320747567,-0.0001479121422,0.001172835425,0.0007725883691,0.0002300776831,0.001002666052,0.001606779441,2.010753714e-05,0.001626886978,0.001360657616,7.687709712e-05,0.001437534713,0.001151643914,-0.0002961158387,0.0008555280748
3.8,-0.0004334174395,0.0008188533615,0.000385435922,0.0009210846239,-0.0001968851222,0.0007241995017,0.003784165812,0.0004144497676,0.00419861558,0.003442711758,0.0004186848686,0.003861396627,0.001264035959,-0.0001250289924,0.001139006967,0.001995596345,3.116261966e-05,0.002026758964,0.001469933905,-0.0001400222821,0.001329911623,0.0013227909,-0.0002168790642,0.001105911836,0.002151425479,-0.0001241854053,0.002027240074,0.001897871798,-0.0001458606499,0.001752011148,0.002197809192,-0.0003054595478,0.001892349645,0.002601798118,0.0005853493482,0.003187147466,0.002465725279,0.0003895217077,0.002855246987,0.003329602434,0.0005188242539,0.003848426687,0.002459205526,0.000285414537,0.002744620063,0.001870608961,-0.0001236173109,0.00174699165,0.00194546813,2.009436217e-05,0.001965562492,0.002862451363,-0.0005059277048,0.002356523658,0.001531214747,-0.0001049399039,0.001426274843,0.001663923584,-8.831938349e-05,0.0015756042,0.002260432799,-2.41641489e-05,0.002236268651,0.00436457859,0.0006349678903,0.00499954648,0.00129741568,-3.473340466e-05,0.001262682275,0.002748744911,0.0005134645247,0.003262209436,0.0008872640787,4.165486034e-05,0.000928918939,0.002038202815,0.000124607954,0.002162810769,0.003112693705,9.786617205e-05,0.003210559877,0.00291264975,0.0002592857044,0.003171935454,0.001505151617,-0.0001712703524,0.001333881264,0.001773745121,-0.0003165107722,0.001457234349,0.001466192133,-4.4855454e-05,0.001421336679,0.001284512155,-0.0001476490614,0.001136863094,0.0007334791226,0.0002288902282,0.0009623693508,0.001490200289,3.842366009e-05,0.001528623949,0.001307028876,8.006099438e-05,0.00138708987,0.001055725168,-0.0002818541405,0.0007738710272
3.9,-0.0004940235339,0.0008357062943,0.0003416827604,0.0008696618702,-0.0001854701956,0.0006841916746,0.003723858293,0.0004186395965,0.00414249789,0.003392208534,0.000420671682,0.003812880216,0.001226636601,-0.0001261089617,0.00110052764,0.001953788212,3.123475858e-05,0.001985022971,0.00145344061,-0.0001409778134,0.001312462797,0.001329740058,-0.0002118272714,0.001117912786,0.002143695968,-0.0001205631419,0.002023132826,0.001909231117,-0.0001466015712,0.001762629546,0.002145580954,-0.0003090826706,0.001836498283,0.002549557188,0.0005829206454,0.003132477834,0.002431245382,0.0003959797887,0.00282722517,0.00326288236,0.0005148617476,0.003777744107,0.002417123737,0.000282531589,0.002699655326,0.001826592706,-0.0001305101976,0.001696082509,0.00186605202,2.700278182e-05,0.001893054801,0.002776302302,-0.0004967654677,0.002279536835,0.001454504734,-0.0001023713175,0.001352133417,0.001680493139,-8.725033657e-05,0.001593242802,0.002201853278,-2.837135567e-05,0.002173481922,0.004302630745,0.00063770473,0.004940335475,0.00124983597,-3.640287483e-05,0.001213433095,0.002668975897,0.0005163155058,0.003185291402,0.0008582643443,4.143173088e-05,0.0008996960752,0.001986900359,0.000122164971,0.00210906533,0.003077961974,8.448881206e-05,0.003162450786,0.002850005852,0.0002586316314,0.003108637484,0.001477186184,-0.0001774650947,0.001299721089,0.001749904461,-0.0003196255426,0.001430278918,0.001429859447,-4.806383643e-05,0.00138179561,0.001246009327,-0.0001474749866,0.00109853434,0.000689690223,0.000227542153,0.0009172323761,0.001368417845,5.604087183e-05,0.001424458717,0.001248847372,8.264875472e-05,0.001331496127,0.0009553621879,-0.0002656337051,0.0006897284828
4.0,-0.0005568565608,0.0008523793369,0.0002955227761,0.0008092203768,-0.000174869765,0.0006343506118,0.003662787131,0.0004229502863,0.004085737417,0.003336952719,0.0004220692747,0.003759021993,0.001185581122,-0.0001271842614,0.001058396861,0.001903671979,3.113301909e-05,0.001934804998,0.001430218819,-0.0001419353629,0.001288283456,0.001328953055,-0.0002070269589,0.001121926096,0.002129669955,-0.0001169779397,0.002012692015,0.001912080997,-0.0001474520563,0.00176462894,0.002085812632,-0.0003128555841,0.001772957048,0.002494676414,0.0005806778765,0.003075354291,0.00239583109,0.000400439261,0.002796270351,0.003192147801,0.0005102917949,0.003702439596,0.002369045982,0.0002791381649,0.002648184147,0.001779462402,-0.000137891441,0.001641570961,0.001782739597,3.376124605e-05,0.001816500843,0.002687289034,-0.0004870060543,0.00220028298,0.001374488901,-9.943783797e-05,0.001275051063,0.001692601549,-8.617106978e-05,0.001606430479,0.002138933642,-3.268951482e-05,0.002106244127,0.004234882994,0.0006395197784,0.004874402773,0.001198226532,-3.816250455e-05,0.001160064028,0.002586786215,0.0005189793192,0.003105765534,0.0008250722975,4.118493963e-05,0.0008662572372,0.00193228267,0.0001198276088,0.002052110279,0.003035955932,7.200886988e-05,0.003107964802,0.002784670914,0.0002572989868,0.003041969901,0.001447046078,-0.0001836658232,0.001263380255,0.001722743268,-0.0003225316716,0.001400211597,0.00139010949,-5.093119061e-05,0.001339178299,0.001205251574,-0.0001473919139,0.00105785966,0.0006413346102,0.0002260312008,0.0008673658109,0.001242025261,7.283879668e-05,0.001314864057,0.001186287349,8.468334062e-05,0.001270970689,0.000851072983,-0.0002476301286,0.0006034428544
4.1,-0.0006216854256,0.0008688543437,0.000247168918,0.000739991857,-0.0001651633663,0.0005748284907,0.003601068949,0.0004273556846,0.004028424633,0.003277113304,0.0004228523297,0.003699965634,0.001140984927,-0.0001282523241,0.001012732603,0.001845424642,3.086231128e-05,0.001876286953,0.001400300879,-0.0001428917167,0.001257409163,0.001320238336,-0.0002025116593,0.001117726677,0.002109236003,-0.0001134420633,0.001995793939,0.001906180096,-0.0001483807867,0.001757799309,0.002018843517,-0.0003167447795,0.001702098737,0.002437195066,0.0005786440298,0.003015839096,0.00235928529,0.0004030258774,0.002762311167,0.003117554435,0.0005051456973,0.003622700133,0.002315039084,0.000275290367,0.002590329451,0.001729293028,-0.0001457003373,0.001583592691,0.001695872337,4.031785242e-05,0.001736190189,0.002595837197,-0.0004767579001,0.002119079297,0.001291515331,-9.615733911e-05,0.001195357992,0.001699992535,-8.509396294e-05,0.001614898572,0.002071994294,-3.71089735e-05,0.002034885321,0.004161634714,0.0006403957033,0.004802030418,0.001142937311,-4.000722369e-05,0.001102930087,0.002502475501,0.000521398881,0.003023874382,0.0007876783398,4.089305383e-05,0.0008285713936,0.001874357675,0.0001176408531,0.001991998528,0.002986770316,6.048469176e-05,0.003047255008,0.002716898326,0.0002552306948,0.002972129021,0.00141482058,-0.0001898657066,0.001224954873,0.001692232122,-0.0003251890031,0.001367043119,0.001346963694,-5.340547823e-05,0.001293558216,0.001162268604,-0.0001474022056,0.001014866399,0.0005885649372,0.0002243611167,0.0008129260539,0.001111653729,8.871866163e-05,0.001200372391,0.001119565813,8.621240222e-05,0.001205778215,0.0007434138153,-0.0002280492443,0.000515364571
4.2,-0.0006882591738,0.0008851147934,0.0001968556196,0.000662280742,-0.0001564226437,0.0005058580983,0.003538831619,0.0004318306812,0.0039706623,0.003212900451,0.0004230002209,0.003635900672,0.001092999716,-0.0001293097961,0.00096368992,0.001779296018,3.042623721e-05,0.001809722255,0.001363779711,-0.0001438430563,0.001219936655,0.001303473161,-0.000198310012,0.001105163149,0.002082336451,-0.0001099676487,0.001972368803,0.001891360022,-0.0001493557055,0.001742004316,0.001945067292,-0.0003207159265,0.001624351366,0.00237718536,0.000576839246,0.002954024606,0.002321421855,0.0004038926657,0.002725314521,0.00303929624,0.0004994608226,0.003538757062,0.002255233159,0.0002710500859,0.002526283245,0.001676197634,-0.0001538722853,0.001522325349,0.001605830923,4.662304492e-05,0.001652453968,0.002502391796,-0.0004661219011,0.002036269895,0.001205955515,-9.254993426e-05,0.001113405581,0.001702457457,-8.403001852e-05,0.001618427438,0.002001400773,-4.16183015e-05,0.001959782471,0.00408323723,0.0006403231726,0.004723560403,0.001084358133,-4.193013045e-05,0.001042428003,0.002416365174,0.000523521537,0.002939886711,0.0007461224456,4.053868142e-05,0.000786661127,0.001813182207,0.0001156472128,0.00192882942,0.002930581439,4.996163949e-05,0.002980543078,0.002646953664,0.0002523893528,0.002899343017,0.001380627962,-0.0001960573612,0.001184570601,0.001658392384,-0.0003275628944,0.00133082949,0.001300481135,-5.543855512e-05,0.00124504258,0.001117113188,-0.0001475090965,0.0009696040911,0.0005315778889,0.0002225423564,0.0007541202452,0.0009779744076,0.0001036022398,0.001081576647,0.001048945699,8.72865863e-05,0.001136232285,0.0006329794737,-0.0002071242344,0.0004258552393
4.3,-0.000756305984,0.0009011463453,0.0001448403613,0.0005764633744,-0.0001487105969,0.0004277527775,0.003476217274,0.0004363518928,0.003912569167,0.003144566035,0.0004224971624,0.003567063198,0.001041815007,-0.0001303526839,0.0009114623235,0.001705608699,2.982722208e-05,0.001735435921,0.001320810091,-0.0001447848835,0.001176025207,0.001278605589,-0.000194445033,0.001084160556,0.002048969263,-0.0001065666437,0.001942402619,0.0018675281,-0.0001503445227,0.001717183577,0.001864930494,-0.0003247343123,0.001540196182,0.002314753458,0.0005752814799,0.002890034938,0.002282071725,0.0004032182394,0.002685289964,0.002957605979,0.0004932800469,0.003450886026,0.002189822943,0.0002664822919,0.002456305235,0.001620330761,-0.0001623400696,0.001457990691,0.00151303557,5.263031268e-05,0.001565665883,0.002407416316,-0.0004551905231,0.001952225793,0.001118204486,-8.863720796e-05,0.001029567278,0.00169983802,-8.298842262e-05,0.001616849597,0.00192756221,-4.620444692e-05,0.001881357763,0.004000092435,0.0006393003044,0.004639392739,0.001022915885,-4.39226551e-05,0.0009789932298,0.00232879574,0.0005252999218,0.002854095662,0.0007004961314,4.010968799e-05,0.0007406058194,0.001748866171,0.0001138856582,0.001862751829,0.002867649782,4.047223205e-05,0.002908122014,0.002575111187,0.0002487602054,0.002823871392,0.001344615263,-0.000202232232,0.001142383031,0.001621296958,-0.0003296240008,0.001291672957,0.001250761439,-5.698810027e-05,0.001193773339,0.001069864367,-0.0001477168036,0.0009221475633,0.0004706153691,0.0002205923168,0.0006912076859,0.0008416961241,0.0001174307291,0.0009591268531,0.0009747365027,8.795749835e-05,0.001062694001,0.0005204012147,-0.0001851125992,0.0003352886155
4.4,-0.0008255339996,0.000916937375,9.140337535e-05,0.000482985419,-0.0001420808879,0.0003409045312,0.003413382388,0.0004408980594,0.003854280448,0.003072401737,0.0004213322942,0.003493734031,0.0009876567853,-0.0001313765514,0.000856280234,0.001624755295,2.906682802e-05,0.001653822123,0.001271606569,-0.0001457120636,0.001125894506,0.001245653808,-0.0001909335381,0.00105472027,0.002009187231,-0.0001032506999,0.001905936531,0.001834667224,-0.0001513151305,0.001683352094,0.00177892862,-0.0003287652738,0.001450163346,0.002250036568,0.0005739868502,0.002824023418,0.002241083125,0.0004012040725,0.002642287198,0.002872751245,0.000486650752,0.003359401997,0.002119064365,0.0002616524718,0.002380716837,0.001561886625,-0.0001710350696,0.001390851556,0.001417941826,5.829700234e-05,0.001476238828,0.002311389655,-0.0004440478788,0.001867341776,0.001028679027,-8.444134625e-05,0.0009442376807,0.001692025749,-8.197625788e-05,0.001610049491,0.001850926451,-5.085299477e-05,0.001800073456,0.003912648178,0.0006373320673,0.004549980245,0.0009590693386,-4.597480089e-05,0.0009130945377,0.002240122029,0.0005266924688,0.002766814498,0.0006509398825,3.959957141e-05,0.0006905394539,0.001681570218,0.000112390329,0.001793960547,0.00279831907,3.203516839e-05,0.002830354239,0.002501649833,0.0002443520296,0.002746001863,0.001306954853,-0.0002083796758,0.001098575177,0.001581067073,-0.0003313480459,0.001249719027,0.001197944581,-5.801927728e-05,0.001139925304,0.001020627867,-0.0001480301294,0.0008725977373,0.0004059625089,0.0002185350232,0.0006244975322,0.0007035578128,0.0001301640781,0.0008337218909,0.0008972913663,8.827643023e-05,0.0009855677965,0.0004063411076,-0.0001622920516,0.000244049056
4.5,-0.0008956336091,0.0009324794624,3.684585328e-05,0.0003823576976,-0.000136577234,0.0002457804636,0.003350495406,0.0004454501254,0.003795945532,0.002996735289,0.0004194996955,0.003416234985,0.0009307838402,-0.0001323767703,0.00079840707,0.001537193548,2.814618038e-05,0.001565339729,0.001216438808,-0.0001466189614,0.001069819846,0.001204703472,-0.0001877859628,0.001016917509,0.00196309506,-0.0001000310002,0.00186306406,0.001792833151,-0.0001522358838,0.001640597268,0.001687600154,-0.0003327745949,0.001354825559,0.00218319704,0.000572970055,0.002756167095,0.002198316741,0.0003980716523,0.002596388393,0.00278502822,0.0004796236258,0.003264651846,0.002043267768,0.0002566248217,0.00229989259,0.001501093913,-0.0001798886133,0.001321205299,0.00132103307,6.358520551e-05,0.001384618276,0.002214802132,-0.0004327708074,0.001782031324,0.0009378144355,-7.998447719e-05,0.0008578299583,0.001678959057,-8.099819795e-05,0.001597960859,0.001771972794,-5.55484117e-05,0.001716424382,0.003821391425,0.0006344297201,0.004455821145,0.0008933023072,-4.807544085e-05,0.0008452268663,0.00215070751,0.0005276635622,0.002678371072,0.0005976372144,3.900734578e-05,0.0006366445602,0.001611498829,0.000111189162,0.001722687991,0.002723011503,2.465398966e-05,0.002747665492,0.002426848716,0.0002391964868,0.002666045202,0.001267839171,-0.0002144858603,0.00105335331,0.001537867218,-0.0003327161312,0.001205151087,0.001142208502,-5.850604972e-05,0.001083702452,0.0009695347279,-0.0001484539386,0.0008210807893,0.0003379432971,0.0002164004372,0.0005543437344,0.000564316762,0.0001417807332,0.0007060974952,0.0008170006902,8.829434135e-05,0.0009052950315,0.0002914831587,-0.0001389546613,0.0001525284974
4.6,-0.0009662804952,0.0009477677409,-1.851275431e-05,0.0002751509255,-0.0001322329234,0.0001429180022,0.003287733002,0.0004499910568,0.003737724058,0.002917925865,0.0004169983439,0.003334924209,0.0008714828729,-0.0001333487732,0.0007381340997,0.001443440278,2.706640473e-05,0.001470506683,0.001155625628,-0.0001474995854,0.001008126043,0.00115590409,-0.0001850066644,0.0009708974251,0.001910845326,-9.691803537e-05,0.001813927291,0.001742150246,-0.0001530757685,0.001589074478,0.001591519321,-0.0003367288541,0.001254790467,0.002114415252,0.0005722451185,0.00268666037,0.002153639969,0.0003940593663,0.002547699335,0.002694755715,0.000472251487,0.003167007202,0.001962790174,0.0002514612165,0.00221425139,0.001438209659,-0.0001888335484,0.001249376111,0.00122281174,6.84626162e-05,0.001291274356,0.002118151689,-0.0004214306415,0.001696721048,0.0008460606407,-7.528842345e-05,0.0007707722172,0.001660619442,-8.005617906e-05,0.001580563263,0.001691203934,-6.027430386e-05,0.00163092963,0.003726840713,0.0006306102949,0.004357451008,0.0008261161999,-5.021263277e-05,0.0007759035672,0.002060918881,0.0005281834586,0.002589102339,0.0005408070426,3.833739286e-05,0.0005791444354,0.001538891581,0.000110302606,0.001649194187,0.00264222,1.831617501e-05,0.002660536175,0.002350982179,0.000233346974,0.002584329153,0.001227475328,-0.0002205326968,0.001006942631,0.001491900006,-0.0003337154149,0.001158184591,0.001083766185,-5.843232224e-05,0.001025333863,0.0009167398554,-0.0001489930513,0.0007677468042,0.0002669149943,0.000214223884,0.0004811388783,0.0004247346477,0.0001522778133,0.0005770124611,0.0007342836782,8.806256804e-05,0.0008223462462,0.0001765230441,-0.0001153995802,6.112346397e-05
4.7,-0.001037138705,0.0009628010675,-7.433763761e-05,0.0001619900125,-0.0001290704335,3.2919579e-05,0.003225276298,0.0004545055042,0.003679781802,0.002836359709,0.0004138320647,0.003250191774,0.0008100636996,-0.0001342882331,0.0006757754665,0.001344065259,2.582898347e-05,0.001369894243,0.001089529333,-0.0001483476924,0.0009411816404,0.001099465409,-0.0001825945517,0.0009168708573,0.00185263467,-9.392140406e-05,0.001758713266,0.001682807089,-0.0001538045836,0.001529002506,0.001491288817,-0.0003405957671,0.00115069305,0.002043883688,0.0005718264567,0.002615710144,0.002106925795,0.0003894176571,0.002496343453,0.00260227198,0.0004645883453,0.003066860325,0.001878029432,0.0002462206416,0.002124250074,0.001373514506,-0.0001978056922,0.001175708814,0.00112379139,7.2903293e-05,0.001196694683,0.002021940829,-0.0004100949718,0.001611845858,0.0007538784281,-7.037470401e-05,0.0006835037241,0.001637028795,-7.914915326e-05,0.001557879642,0.00160913902,-6.501373155e-05,0.001544125288,0.003629539561,0.0006258962226,0.004255435784,0.0007580233238,-5.237387557e-05,0.0007056494482,0.001971122077,0.00052822821,0.002499350287,0.0004806965534,3.759953844e-05,0.0005182960919,0.00146401563,0.000109742729,0.001573758359,0.002556498916,1.299332906e-05,0.002569492245,0.00227431564,0.0002268772985,0.002501192938,0.001186081391,-0.0002264969704,0.0009595844206,0.001443402282,-0.0003343394183,0.001109062864,0.001022863917,-5.779302012e-05,0.0009650708971,0.0008624220325,-0.0001496527157,0.0007127693168,0.0001932628422,0.0002120458779,0.0004053087201,0.0002855637,0.000161671802,0.000447235502,0.0006495800414,8.763344341e-05,0.0007372134848,6.215899097e-05,-9.192545222e-05,-2.976646125e-05
4.8,-0.001107863059,0.0009775820608,-0.000130280998,4.354863896e-05,-0.0001271011272,-8.355248821e-05,0.003163308404,0.0004589794209,0.003622287824,0.002752447055,0.0004100094958,0.00316245655,0.0007468559298,-0.0001351911403,0.0006116647896,0.001239686069,2.443601227e-05,0.001264122082,0.001018551884,-0.0001491568787,0.0008693950058,0.001035654727,-0.0001805437809,0.0008551109464,0.001788701565,-9.104972252e-05,0.001697651843,0.001615053425,-0.0001543932802,0.001460660145,0.001387533866,-0.00034434457,0.001043189296,0.001971804556,0.0005717300194,0.002543534575,0.002058059691,0.00038440168,0.002442461371,0.002507936207,0.0004566888651,0.002964625072,0.001789422569,0.0002409589332,0.002030381502,0.001307311154,-0.0002067445481,0.001100566606,0.001024491557,7.688831425e-05,0.001101379871,0.001926674709,-0.0003988286363,0.001527846073,0.0006617365853,-6.526444891e-05,0.0005964721364,0.001608249446,-7.827298696e-05,0.001529976459,0.001526309402,-6.974949783e-05,0.001456559904,0.003530052265,0.0006203152805,0.004150367545,0.0006895421356,-5.45462367e-05,0.0006349958989,0.001881680672,0.0005277797312,0.002409460404,0.0004175772176,3.680933407e-05,0.0004543865516,0.001387162271,0.0001095130981,0.001496675369,0.002466454795,8.643132976e-06,0.002475097928,0.002197104608,0.0002198797176,0.002416984325,0.001143885699,-0.0002323497252,0.0009115359737,0.00139264364,-0.0003345874727,0.001058056167,0.0009597817876,-5.659488751e-05,0.0009031869001,0.0008067862515,-0.0001504393416,0.0006563469098,0.0001173969183,0.0002099120015,0.0003273089197,0.0001475357679,0.0001699993206,0.0003175350884,0.0005633440788,8.70605029e-05,0.0006504045817,-5.09142977e-05,-6.882338238e-05,-0.0001197376801
4.9,-0.001178100483,0.0009921170473,-0.0001859834357,-7.945534786e-05,-0.0001263250783,-0.0002057804261,0.003102014178,0.0004633997021,0.00356541388,0.002666620975,0.0004055440517,0.003072165027,0.0006822080236,-0.0001360538241,0.0005461541995,0.001130964558,2.289038287e-05,0.00115385494,0.0009431338586,-0.0001499206836,0.000793213175,0.0009647958284,-0.0001788443579,0.0007859514704,0.001719326273,-8.831064591e-05,0.001631015627,0.001539199279,-0.0001548144909,0.001384384788,0.001280898414,-0.0003479464345,0.0009329519791,0.001898392232,0.0005719741819,0.002470366414,0.002006953786,0.0003792626229,0.002386216409,0.002412134722,0.0004486082544,0.002860742977,0.001697448717,0.0002357288643,0.001933177581,0.001239927094,-0.0002155930041,0.00102433409,0.0009254366066,8.040629444e-05,0.001005842901,0.001832860875,-0.0003876935237,0.001445167352,0.0005701107352,-5.997811939e-05,0.0005101326159,0.001574387209,-7.742049283e-05,0.001496966717,0.001443257406,-7.446427262e-05,0.001368793134,0.003428962385,0.000613900911,0.004042863296,0.0006211947697,-5.671635701e-05,0.0005644784127,0.00179295682,0.0005268259559,0.002319782776,0.0003517457925,3.598836377e-05,0.0003877341563,0.00130864932,0.0001096095416,0.001418258861,0.002372738718,5.213187527e-06,0.002377951905,0.002119598606,0.0002124619116,0.002332060518,0.001101129222,-0.0002380559903,0.0008630732318,0.001339927553,-0.0003344634817,0.001005464072,0.0008948360607,-5.48566033e-05,0.0008399794574,0.0007500682024,-0.0001513611232,0.0005987070792,3.975242816e-05,0.0002078722827,0.0002476247108,1.135629531e-05,0.0001773171644,0.0001886734598,0.0004760423233,8.639835623e-05,0.0005624406795,-0.0001620086184,-4.637060944e-05,-0.0002083792278
5.0,-0.001247490479,0.001006415896,-0.0002410745828,-0.0002062637313,-0.000126731124,-0.0003329948553,0.003041582087,0.0004677538992,0.003509335987,0.002579337816,0.0004004538462,0.002979791662,0.000616488409,-0.0001368729883,0.0004796154207,0.001018604663,2.119589013e-05,0.001039800553,0.0008637554841,-0.000150632671,0.0007131228131,0.0008872693379,-0.0001774825703,0.0007097867675,0.001644832243,-8.571092512e-05,0.001559121318,0.001455615749,-0.0001550431329,0.001300572616,0.001172043154,-0.0003513748503,0.0008206683039,0.001823879519,0.0005725801172,0.002396459636,0.001953563935,0.0003742395665,0.002327803502,0.002315289086,0.0004404023263,0.002755691412,0.001602634233,0.0002305804805,0.001833214713,0.001171720732,-0.0002242963984,0.0009474243331,0.0008271578452,8.345369642e-05,0.0009106115416,0.001741010581,-0.0003767475502,0.001364263031,0.0004794839365,-5.453524904e-05,0.0004249486874,0.00153559584,-7.658159665e-05,0.001459014243,0.001360536709,-7.914056069e-05,0.001281396148,0.003326872587,0.0006066927099,0.003933565297,0.0005535058264,-5.887041533e-05,0.0004946354111,0.001705313483,0.0005253609196,0.002230674402,0.0002835294933,3.516430311e-05,0.0003186937964,0.001228827995,0.0001100213918,0.001338849386,0.002276040614,2.645841274e-06,0.002278686456,0.002042049192,0.0002047429028,0.002246792095,0.001058069251,-0.0002435750503,0.0008144942006,0.001285593644,-0.0003339744784,0.0009516191659,0.0008283817172,-5.260809995e-05,0.0007757736173,0.0006925395747,-0.0001524284577,0.000540111117,-3.920715036e-05,0.0002059798734,0.000166772723,-0.0001222971819,0.0001837013375,6.140415566e-05,0.0003881540706,8.57023108e-05,0.0004738563814,-0.0002704436559,-2.482481965e-05,-0.0002952684756
5.1,-0.00131566559,0.001020491722,-0.0002951738678,-0.0003360816419,-0.0001282971491,-0.0004643787911,0.002982206738,0.000472030037,0.003454236775,0.002491077709,0.0003947615338,0.002885839243,0.0005500869947,-0.0001376457874,0.0004124412073,0.0009033502848,1.935724873e-05,0.0009227075335,0.0007809375892,-0.0001512864386,0.0006296511506,0.0008035130679,-0.0001764411266,0.0006270719413,0.001565587185,-8.325643016e-05,0.001482330755,0.001364735851,-0.0001550569336,0.001209678918,0.001061644033,-0.0003546059342,0.0007070380989,0.001748524584,0.0005735715482,0.002322096133,0.001897904142,0.0003695528383,0.00226745698,0.00221786184,0.0004321272806,0.002649989121,0.001505556009,0.0002255613724,0.001731117382,0.001103087457,-0.0002328015221,0.0008702859349,0.0007301961648,8.603490995e-05,0.0008162310747,0.001651640446,-0.0003660435773,0.001285596869,0.0003903480283,-4.895446869e-05,0.0003413935596,0.001492080431,-7.574373457e-05,0.001416336696,0.001278711977,-8.376071305e-05,0.001194951264,0.003224403541,0.0005987367725,0.003823140314,0.0004870006939,-6.099413958e-05,0.0004260065543,0.001619115867,0.0005233846215,0.002142500489,0.0002132917494,3.437047646e-05,0.0002476622259,0.00114808974,0.0001107325753,0.001258822315,0.002177083934,8.82854289e-07,0.002177966789,0.00196471886,0.0001968482916,0.002161567152,0.001014982033,-0.0002488614275,0.0007661206055,0.00123001838,-0.0003331291942,0.0008968891862,0.0007608132171,-4.98893485e-05,0.0007109238686,0.0006345118867,-0.0001536541496,0.0004808577371,-0.0001189866382,0.0002042892497,8.530261146e-05,-0.0002527745477,0.0001892454942,-6.352905343e-05,0.0003001726083,8.502776039e-05,0.0003852003687,-0.0003755485634,-4.419311294e-06,-0.0003799678747
5.2,-0.001382252887,0.001034360521,-0.0003478923662,-0.0004680821503,-0.0001309904971,-0.0005990726474,0.002924090259,0.0004762165194,0.003400306778,0.002402343448,0.000388494057,0.002790837505,0.0004834150687,-0.0001383699181,0.0003450451506,0.0007859816247,1.738003197e-05,0.0008033616567,0.0006952401718,-0.0001518755955,0.0005433645762,0.0007140206606,-0.0001756989949,0.0005383216656,0.001482002129,-8.095213112e-05,0.001401049998,0.001267053603,-0.0001548368133,0.00111221679,0.0009503896622,-0.0003576186785,0.0005927709837,0.001672615229,0.0005749739428,0.002247589171,0.001840054519,0.0003653988321,0.002205453351,0.002120356736,0.0004238388787,0.002544195614,0.001406839859,0.0002207165701,0.001627556429,0.001034461659,-0.0002410557553,0.0007934059039,0.0006351022926,8.816206111e-05,0.0007232643537,0.001565272295,-0.000355628581,0.001209643714,0.0003032041726,-4.325385142e-05,0.0002599503212,0.001444097825,-7.489260748e-05,0.001369205218,0.001198355871,-8.830717317e-05,0.001110048698,0.003122189979,0.0005900856934,0.003712275672,0.0004222020025,-6.307290566e-05,0.0003591290969,0.001534730513,0.0005209025872,0.0020556331,0.0001414346101,3.364490157e-05,0.0001750795116,0.001066868138,0.0001117221949,0.001178590333,0.002076618459,-1.305895976e-07,0.00207648787,0.001887887351,0.000188905308,0.002076792659,0.0009721626118,-0.000253866496,0.0007182961158,0.001173611938,-0.0003319365768,0.0008416753608,0.0006925622098,-4.674888228e-05,0.0006458133275,0.0005763365855,-0.0001550531862,0.0004212833993,-0.0001990582926,0.0002028542269,3.795934255e-06,-0.0003794533079,0.0001940589938,-0.0001853943141,0.0002126049541,8.442932255e-05,0.0002970342766,-0.0004766648802,1.464064508e-05,-0.0004620242352
5.3,-0.001446877063,0.00104804081,-0.0003988362523,-0.0006014123263,-0.0001347683827,-0.000736180709,0.002867441368,0.0004803020546,0.003347743422,0.002313656789,0.0003816823008,0.00269533909,0.000416902366,-0.000139043706,0.0002778586601,0.0006673090996,1.527055543e-05,0.000682579655,0.0006072574822,-0.0001523938211,0.0004548636611,0.0006193376487,-0.0001752312439,0.0004441064048,0.001394527673,-7.880204966e-05,0.001315725624,0.001163120272,-0.0001543671261,0.001008753146,0.0008389766243,-0.0003603951687,0.0004785814556,0.001596468892,0.0005768132562,0.002173282148,0.001780161544,0.0003619460085,0.002142107553,0.002023312701,0.0004155910341,0.002438903735,0.001307153063,0.0002160879525,0.001523241016,0.0009663127012,-0.0002490062991,0.0007173064021,0.0005424331499,8.985446042e-05,0.0006322876103,0.001482429343,-0.0003455428378,0.001136886505,0.0002185612859,-3.745136542e-05,0.0001811099205,0.001391953283,-7.401330566e-05,0.001317939977,0.001120042555,-9.276294512e-05,0.00102727961,0.003020873287,0.0005807981868,0.003601671474,0.0003596236208,-6.509192456e-05,0.0002945316963,0.001452521559,0.0005179251393,0.001970446698,6.839574751e-05,3.302905278e-05,0.0001014248003,0.0009856336447,0.0001129646931,0.001098598338,0.001975410373,-4.425638145e-07,0.001974967809,0.001811853698,0.0001810380314,0.001992891729,0.0009299212346,-0.0002585404793,0.0006713807553,0.001116810397,-0.000330404352,0.0007864060448,0.0006240918098,-4.324212801e-05,0.0005808496818,0.0005184003723,-0.0001566418392,0.000361758533,-0.0002788648977,0.0002017259236,-7.713897412e-05,-0.0005017406242,0.0001982642391,-0.0003034763851,0.000125968927,8.39597394e-05,0.0002099286664,-0.0005731512409,3.218007718e-05,-0.0005409711637
5.4,-0.001509165175,0.001061553314,-0.0004476118604,-0.0007352008203,-0.0001395782932,-0.0008747791135,0.002812471941,0.0004842755307,0.003296747471,0.002225552209,0.0003743606666,0.002599912876,0.0003509911936,-0.0001396662047,0.0002113249889,0.0005481648204,1.303575614e-05,0.0005612005766,0.0005176097989,-0.000152835072,0.0003647747269,0.0005200549643,-0.0001750092016,0.0003450457627,0.001303647484,-7.680916687e-05,0.001226838318,0.001053537628,-0.0001536357469,0.0008999018808,0.0007281023957,-0.0003629207468,0.0003651816489,0.001520428677,0.0005791143327,0.002099543009,0.001718431269,0.0003593319317,0.002077763201,0.00192729282,0.000407434121,0.002334726941,0.001207192035,0.000211713271,0.001418905306,0.0008991354651,-0.0002565996034,0.0006425358617,0.0004527443773,9.113767104e-05,0.0005438820483,0.001403628112,-0.0003358188894,0.001067809222,0.0001369317317,-3.156521347e-05,0.0001053665182,0.001335993745,-7.309165837e-05,0.001262902087,0.001044337947,-9.711212308e-05,0.0009472258243,0.002921091168,0.0005709384001,0.003492029568,0.0002997623408,-6.703650311e-05,0.0002327258376,0.001372844622,0.0005144664508,0.001887311072,-5.359831202e-06,3.256652618e-05,2.720669498e-05,0.0009048816641,0.0001144298864,0.001019311551,0.001874230162,-9.191107038e-08,0.001874138251,0.001736934272,0.0001733629869,0.001910297259,0.0008885767527,-0.0002628345949,0.0006257421578,0.001060064094,-0.000328537967,0.0007315261269,0.0005558878219,-3.942951627e-05,0.0005164583057,0.000461116264,-0.0001584361126,0.0003026801514,-0.000357826651,0.0002009508034,-0.0001568758475,-0.0006190765857,0.0002019930855,-0.0004170835002,4.078754733e-05,8.366860422e-05,0.0001244561515,-0.0006643898523,4.80552861e-05,-0.0006163345662
5.5,-0.00156875265,0.001074920682,-0.0004938319673,-0.0008685665888,-0.0001453585158,-0.001013925105,0.002759391687,0.0004881258388,0.003247517526,0.002138568817,0.0003665665924,0.00250513541,0.0002861283389,-0.0001402373165,0.0001458910224,0.0004293922593,1.06831664e-05,0.0004400754257,0.000426932875,-0.0001531938912,0.0002737389838,0.0004168004278,-0.0001750008647,0.0002417995631,0.001209869798,-7.49752686e-05,0.00113489453,0.0009389488053,-0.0001526339994,0.0007863148059,0.0006184562701,-0.0003651840805,0.0002532721896,0.001444856717,0.000581899191,0.002026755908,0.001655117444,0.0003576615473,0.002012778991,0.00183287065,0.0003994133979,0.002232284047,0.001107667018,0.0002076249991,0.001315292018,0.0008334374542,-0.0002637811816,0.0005696562726,0.0003665801145,9.20423355e-05,0.00045862245,0.001329366792,-0.0003264801762,0.001002886616,5.882455793e-05,-2.561407581e-05,3.321048212e-05,0.001276598772,-7.211557779e-05,0.001204483194,0.0009717877523,-0.000101340376,0.0008704473763,0.002823465632,0.0005605750213,0.003384040653,0.0002430879815,-6.889236629e-05,0.0001741956152,0.00129603921,0.0005105434778,0.001806582688,-7.935179557e-05,3.230158406e-05,-4.705021152e-05,0.0008251162375,0.0001160830677,0.0009411993052,0.001773839587,8.930438295e-07,0.001774732631,0.001663457607,0.0001659855516,0.001829443159,0.0008484482264,-0.0002667031461,0.0005817450803,0.001003824062,-0.0003263401224,0.0006774839401,0.0004884479125,-3.537438002e-05,0.0004530735324,0.0004049118092,-0.0001604497904,0.0002444620188,-0.0004353510239,0.0002005691161,-0.0002347819078,-0.0007309374237,0.0002053826886,-0.0005255547351,-4.241826728e-05,8.360093035e-05,4.118266307e-05,-0.0007497943695,6.215383011e-05,-0.0006876405394
5.6,-0.001625289807,0.001088167219,-0.0005371225888,-0.001000628146,-0.0001520389069,-0.001152667053,0.002708401973,0.0004918417039,0.003200243677,0.002053241462,0.0003583400749,0.002411581537,0.0002227559633,-0.0001407578907,8.199807258e-05,0.0003118350702,8.221057872e-06,0.000320056128,0.0003358664358,-0.0001534657087,0.000182400727,0.0003102290631,-0.0001751712728,0.0001350577904,0.001113718029,-7.33007529e-05,0.001040417276,0.0008200279144,-0.0001513565085,0.0006686714059,0.0005107091669,-0.0003671771429,0.000143532024,0.001370126638,0.0005851854689,0.001955312107,0.001590507154,0.0003570071104,0.001947514265,0.001740616525,0.0003915678978,0.002132184423,0.001009286204,0.000203849317,0.001213135521,0.0007697248047,-0.0002704958673,0.0004992289374,0.0002844617827,9.26029219e-05,0.0003770647046,0.001260111509,-0.000317539179,0.0009425723302,-1.526269825e-05,-1.961740922e-05,-3.488010747e-05,0.001214170714,-7.107618017e-05,0.001143094534,0.0009029049073,-0.0001054353863,0.000797469521,0.002728590882,0.0005497802995,0.003278371182,0.0001900330877,-7.064602201e-05,0.0001193870657,0.001222420814,0.000506174931,0.001728595744,-0.0001530978643,3.227751997e-05,-0.0001208203443,0.0007468324785,0.0001178852575,0.000864717736,0.001674979182,2.494117215e-06,0.001677473299,0.001591756617,0.0001589977707,0.001750754388,0.0008098463635,-0.0002701053508,0.0005397410126,0.0009485290406,-0.0003238108976,0.000624718143,0.0004222701237,-3.11407395e-05,0.0003911293842,0.0003502162121,-0.0001626924089,0.0001875238032,-0.0005108444148,0.0002006140939,-0.000310230321,-0.0008368375795,0.0002085712964,-0.0006282662831,-0.0001231375413,8.379576263e-05,-3.934177864e-05,-0.0008288184344,7.439390794e-05,-0.0007544245264
5.7,-0.001678448064,0.001101318611,-0.0005771294528,-0.001130512736,-0.0001595418053,-0.001290054541,0.002659689991,0.0004954115922,0.003155101583,0.001970092208,0.0003497232147,0.002319815423,0.0001613028996,-0.0001412297411,2.007315843e-05,0.0001963262859,5.658703291e-06,0.0002019849891,0.0002450433645,-0.0001536470545,9.139630999e-05,0.0002010134127,-0.000175482762,2.553065068e-05,0.001015721931,-7.17844684e-05,0.000943937463,0.0006974698509,-0.0001498011113,0.0005476687395,0.0004055036117,-0.000368895156,3.660845572e-05,0.001296616933,0.0005889851761,0.001885602109,0.001524906737,0.0003574098962,0.001882316633,0.001651086643,0.0003839300368,0.00203501668,0.0009127419135,0.0002004056629,0.001113147576,0.0007084896376,-0.0002766884158,0.0004318012218,0.0002068779211,9.285646381e-05,0.0002997343849,0.001196282213,-0.0003089950631,0.00088728715,-8.485245254e-05,-1.359580176e-05,-9.84482543e-05,0.00114912604,-6.996852286e-05,0.001079157517,0.0008381584278,-0.0001093872099,0.0007287712178,0.002637022861,0.000538629174,0.003175652035,0.0001409837273,-7.228512125e-05,6.869860602e-05,0.001152273926,0.0005013804933,0.001653654419,-0.0002261259249,3.253501157e-05,-0.0001935909133,0.0006705010692,0.0001197937481,0.0007902948173,0.001578357569,4.701007683e-06,0.001583058576,0.00152215944,0.0001524777462,0.001674637186,0.0007730666364,-0.000273006716,0.0005000599203,0.0008945955779,-0.0003209484396,0.0005736471384,0.0003578424137,-2.679116708e-05,0.0003310512466,0.0002974484464,-0.0001651674761,0.0001322809703,-0.0005837237217,0.0002011119832,-0.0003826117385,-0.0009363298459,0.0002116941062,-0.0007246357397,-0.0002008768746,8.428541463e-05,-0.00011659146,-0.0009009636875,8.472337024e-05,-0.0008162403173
5.8,-0.001727925022,0.001114401666,-0.0006135233561,-0.001257364864,-0.0001677828778,-0.001425147742,0.002613424489,0.0004988237348,0.003112248224,0.001889623418,0.0003407597561,0.002230383174,0.0001021778511,-0.0001416555806,-3.947772946e-05,8.367922683e-05,3.00659635e-06,8.668582318e-05,0.0001550813645,-0.0001537356673,1.345697245e-06,8.983527188e-05,-0.0001758952691,-8.605999726e-05,0.0009164108742,-7.04236381e-05,0.0008459872361,0.0005719818321,-0.0001479688897,0.0004240129424,0.000303445379,-0.0003703365363,-6.689115723e-05,0.001224707039,0.0005933037454,0.001818010784,0.001458631087,0.0003588835009,0.001817514587,0.001564817472,0.0003765261009,0.001941343573,0.0008187015759,0.0001973072396,0.001016008815,0.000650201281,-0.0002823042978,0.0003678969832,0.0001342771195,9.284134933e-05,0.0002271184688,0.001138240158,-0.0003008313322,0.0008374088258,-0.0001494946685,-7.571209472e-06,-0.000157065878,0.00108188965,-6.879183438e-05,0.001013097816,0.0007779656787,-0.0001131884314,0.0006647772473,0.002549272275,0.0005271987178,0.003076470993,9.627295991e-05,-7.37987464e-05,2.24742135e-05,0.001085847512,0.0004961804008,0.001582027913,-0.0002979823055,3.311083105e-05,-0.0002648714744,0.000596558093,0.0001217631732,0.0007183212661,0.001484643685,7.507579282e-06,0.001492151264,0.00145498123,0.0001464901374,0.001601471367,0.0007383858942,-0.0002753798757,0.0004630060185,0.0008424131768,-0.0003177500422,0.0005246631346,0.0002956349788,-2.238491058e-05,0.0002732500682,0.0002470084994,-0.0001678711544,7.913734509e-05,-0.0006534253686,0.0002020827129,-0.0004513426557,-0.001029003106,0.0002148793537,-0.000814123752,-0.0002751669249,8.509565079e-05,-0.0001900712741,-0.0009657857149,9.311847633e-05,-0.0008726672385
5.9,-0.001773447867,0.00112744407,-0.0006460037973,-0.00138035362,-0.0001766718416,-0.001557025461,0.002569754083,0.0005020663069,0.00307182039,0.001812313495,0.0003314945944,0.00214380809,4.576574445e-05,-0.0001420389219,-9.627317742e-05,-2.531890604e-05,2.765221787e-07,-2.504238386e-05,6.657843636e-05,-0.000153730497,-8.715206065e-05,-2.261997521e-05,-0.0001763668669,-0.0001989868421,0.0008163102333,-6.921387015e-05,0.0007470963632,0.0004442777402,-0.0001458642679,0.0002984134723,0.0002050979719,-0.0003715028283,-0.0001664048564,0.001154777293,0.0005981393444,0.001752916637,0.001391999389,0.0003614183619,0.001753417751,0.001482326641,0.0003693776038,0.001851704245,0.000727805027,0.0001945625634,0.0009223675905,0.0005953033942,-0.0002872905196,0.0003080128746,6.70656989e-05,9.259626259e-05,0.0001596619615,0.001086279099,-0.0002930143172,0.000793264782,-0.0002087725173,-1.566946088e-06,-0.0002103394634,0.001012893184,-6.754920941e-05,0.0009453439746,0.0007226893281,-0.0001168340407,0.0006058552875,0.002465802148,0.000515567895,0.002981370043,5.617791489e-05,-7.517759582e-05,-1.899968093e-05,0.001023353912,0.0004905953391,0.001513949251,-0.0003682340638,3.403713534e-05,-0.0003341969285,0.0005254028739,0.0001237472151,0.000649150089,0.001394462629,1.09078458e-05,0.001405370475,0.001390519528,0.0001410871821,0.00153160671,0.0007060632877,-0.0002772049676,0.0004288583201,0.0007923448681,-0.0003142132651,0.0004781316031,0.0002360964303,-1.79763447e-05,0.0002181200856,0.0001992729771,-0.0001707914197,2.84815574e-05,-0.0007194099338,0.0002035410158,-0.000515868918,-0.001114477773,0.0002182454491,-0.0008962323236,-0.0003455662458,8.624634537e-05,-0.0002593199004,-0.001022896525,9.958255275e-05,-0.0009233139719
6.0,-0.001814774878,0.00114047416,-0.0006743007184,-0.001498678428,-0.0001861132017,-0.001684791629,0.002528808533,0.0005051278107,0.003033936344,0.001738615493,0.0003219732768,0.00206058877,-7.572519985e-06,-0.0001423839898,-0.0001499565098,-0.0001299108552,-2.518467057e-06,-0.0001324293223,-1.988795243e-05,-0.0001536315983,-0.0001735195507,-0.0001356662875,-0.0001768545154,-0.0003125208029,0.000715940608,-6.814922869e-05,0.0006477913793,0.0003150752108,-0.000143495069,0.0001715801417,0.0001109800881,-0.0003723986019,-0.0002614185138,0.001087212311,0.0006034825028,0.001690694813,0.00132533786,0.0003649868412,0.001690324701,0.001404118293,0.0003625032037,0.001766621497,0.0006406668957,0.0001921776186,0.0008328445142,0.0005442170188,-0.0002915963726,0.0002526206462,5.610454741e-06,9.215936345e-05,9.776981819e-05,0.00104062164,-0.0002854930389,0.0007551286008,-0.0002623053635,4.392573917e-06,-0.0002579127895,0.0009425765553,-6.624699961e-05,0.0008763295557,0.0006726383934,-0.0001203211604,0.000552317233,0.002387029128,0.0005038173303,0.002890846458,2.09200208e-05,-7.641410298e-05,-5.549408219e-05,0.0009649705479,0.0004846465765,0.001449617124,-0.0004364650608,3.53411991e-05,-0.0004011238617,0.0004574039293,0.0001257007711,0.0005831047004,0.001308394811,1.489301708e-05,0.001323287828,0.001329054032,0.0001363100769,0.001465364109,0.0006763443054,-0.000278469778,0.0003978745274,0.0007447315598,-0.000310336888,0.0004343946718,0.0001796533255,-1.361381533e-05,0.0001660395102,0.0001545946035,-0.0001739076758,-1.931307228e-05,-0.0007811625358,0.0002054978217,-0.0005756647141,-0.001192399771,0.0002218999146,-0.0009704998568,-0.0004116618517,8.775209242e-05,-0.0003239097593,-0.00107196331,0.0001041446691,-0.0009678186412
6.1,-0.001851695571,0.001153520658,-0.0006981749131,-0.001611573581,-0.0001960071457,-0.001807580727,0.00249070214,0.0005079976617,0.002998699801,0.001668957459,0.0003122415569,0.001981199016,-5.749822974e-05,-0.0001426956418,-0.0002001938715,-0.0002293719232,-5.364030085e-06,-0.0002347359533,-0.0001037599104,-0.0001534399502,-0.0002571998607,-0.0002486183824,-0.0001773148634,-0.0004259332458,0.0006158182031,-6.722235634e-05,0.0005485958468,0.0001850941373,-0.0001408724505,4.422168681e-05,2.15650304e-05,-0.0003730313307,-0.0003514663003,0.001022405097,0.0006093162358,0.001631721332,0.001258985891,0.0003695482296,0.00162853412,0.00133068826,0.000355920644,0.001686608904,0.0005578803733,0.0001901578231,0.0007480381964,0.0004973466918,-0.0002951742015,0.0002021724903,-4.97555559e-05,9.15677305e-05,4.181217459e-05,0.00100142043,-0.0002782003992,0.0007232200311,-0.0003097494644,1.028231508e-05,-0.0002994671494,0.0008713904108,-6.489434699e-05,0.0008064960639,0.000628071046,-0.0001236488541,0.0005044221919,0.002313326035,0.0004920287471,0.002805354782,-9.333297293e-06,-7.750255143e-05,-8.683584872e-05,0.000910842248,0.0004783562911,0.001389198539,-0.0005022687273,3.704532064e-05,-0.0004652234067,0.000392909107,0.0001275821411,0.0005204912481,0.001226976935,1.945034098e-05,0.001246427276,0.001270848885,0.0001321909209,0.001403039806,0.000649465211,-0.0002791699057,0.0003702953053,0.0006998970755,-0.0003061217803,0.0003937752952,0.0001267111007,-9.338989277e-06,0.0001173721114,0.000113303814,-0.0001771909651,-6.388715112e-05,-0.0008381911146,0.000207961487,-0.0006302296276,-0.001262434346,0.0002259395161,-0.001036494829,-0.0004730679413,8.962296843e-05,-0.0003834449729,-0.001112705217,0.000106858465,-0.001005846752
6.2,-0.001884030517,0.001166612345,-0.0007174181721,-0.001718312469,-0.0002062505853,-0.001924563055,0.00245553738,0.0005106668864,0.002966204266,0.001603742566,0.0003023450201,0.001906087586,-0.0001036931782,-0.0001429792873,-0.0002466724655,-0.0003230131961,-8.24441784e-06,-0.0003312576139,-0.0001844989599,-0.0001531572937,-0.0003376562536,-0.0003607934327,-0.0001777050016,-0.0005384984343,0.0005164544396,-6.642465121e-05,0.0004500297884,5.505479546e-05,-0.0001380106842,-8.29558887e-05,-6.271952663e-05,-0.0003734112804,-0.000436130807,0.0009607584677,0.000615616748,0.001576375216,0.001193300313,0.0003750533635,0.001568353676,0.001262524752,0.0003496482306,0.001612172983,0.0004800185132,0.0001885092334,0.0006685277466,0.0004550853124,-0.0002979803991,0.0001571049133,-9.872778797e-05,9.085707869e-05,-7.870709277e-06,0.0009687622486,-0.0002710553607,0.0006977068879,-0.0003507979142,1.607731856e-05,-0.0003347205956,0.0007997968749,-6.35031193e-05,0.0007362937556,0.0005891965454,-0.000126818111,0.0004623784344,0.002245022985,0.0004802840028,0.002725306988,-3.446728016e-05,-7.843920055e-05,-0.0001129064807,0.0008610820248,0.0004717480159,0.001332830041,-0.0005652422892,3.916679558e-05,-0.0005260754936,0.0003322539485,0.0001293547362,0.0004616086847,0.001150702935,2.456358481e-05,0.00117526652,0.001216154584,0.0001287551109,0.001344909694,0.00062565541,-0.0002793090188,0.0003463463913,0.0006581510076,-0.000301571833,0.0003565791747,7.765419774e-05,-5.186692579e-06,7.246750516e-05,7.571037339e-05,-0.000180604952,-0.0001048945786,-0.0008900253694,0.000210938379,-0.0006790869905,-0.001324261192,0.0002304499256,-0.001093811267,-0.0005294253741,9.186598574e-05,-0.0004375593884,-0.001144891086,0.0001078013419,-0.001037089744
6.3,-0.001911631713,0.00117977765,-0.000731854063,-0.001818212352,-0.0002167382288,-0.002034950581,0.002423407041,0.0005131288026,0.002936535843,0.001543347494,0.0002923287488,0.001835676243,-0.0001458599516,-0.000143240827,-0.0002891007787,-0.000410186501,-1.114233897e-05,-0.00042132884,-0.0002615884379,-0.0001527860737,-0.0004143745116,-0.0004715143234,-0.0001779832067,-0.0006494975302,0.0004183535619,-6.574646865e-05,0.0003526070932,-7.43257138e-05,-0.0001349267806,-0.0002092524944,-0.0001414927257,-0.0003735513833,-0.000515044109,0.0009026818224,0.0006223545159,0.001525036338,0.001128655075,0.0003814484866,0.001510103562,0.00120010289,0.0003437055674,0.001543808458,0.0004076309845,0.0001872389037,0.0005948698882,0.0004178145495,-0.0002999767198,0.0001178378298,-0.0001410284626,9.006173276e-05,-5.09667298e-05,0.000942672639,-0.0002639658792,0.0006787067598,-0.0003851814458,2.175354452e-05,-0.0003634279013,0.000728266819,-6.208806125e-05,0.0006661787578,0.0005561746625,-0.0001298319179,0.0004263427446,0.00218240553,0.0004686639409,0.002651069471,-5.441996228e-05,-7.922240276e-05,-0.000133642365,0.000815769394,0.0004648470298,0.001280616424,-0.0006249860699,4.171799037e-05,-0.0005832680795,0.0002757640542,0.0001309880499,0.0004067521041,0.001080023596,3.021454582e-05,0.001110238142,0.001165207841,0.0001260233895,0.001291231231,0.0006051365634,-0.0002788990737,0.0003262374897,0.0006197879101,-0.0002966950009,0.0003230929092,3.284402414e-05,-1.18504906e-06,3.165897508e-05,4.210348854e-05,-0.0001841076473,-0.0001420041588,-0.0009362184321,0.0002144327683,-0.0007217856638,-0.001377572726,0.0002355039349,-0.001142068791,-0.0005804037879,9.448730043e-05,-0.0004859164875,-0.001168340477,0.0001070739777,-0.0010612665
6.4,-0.001934383805,0.001193044162,-0.0007413396425,-0.001910639994,-0.0002273635585,-0.002138003552,0.002394394069,0.0005153795893,0.002909773658,0.001488118641,0.000282236981,0.001770355622,-0.0001837248081,-0.0001434866465,-0.0003272114546,-0.0004902912082,-1.403887422e-05,-0.0005043300824,-0.0003345388803,-0.0001523294923,-0.0004868683727,-0.0005801148004,-0.0001781097593,-0.0007582245597,0.0003220079777,-6.517728666e-05,0.000256830691,-0.0002023391591,-0.000131639986,-0.0003339791451,-0.0002144233173,-0.0003734670342,-0.0005878903515,0.0008485834054,0.0006294953785,0.001478078784,0.001065436573,0.0003886780224,0.001454114595,0.001143873956,0.0003381135113,0.001481987467,0.0003412363297,0.0001863545658,0.0005275908955,0.0003858998795,-0.0003011317968,8.476808269e-05,-0.0001764090751,8.921471944e-05,-8.719435562e-05,0.0009231197181,-0.0002568325048,0.0006662872133,-0.0004126708727,2.728871773e-05,-0.000385382155,0.0006572733233,-6.066681297e-05,0.0005966065104,0.0005291122487,-0.0001326953161,0.0003964169326,0.002125709761,0.0004572472637,0.002582957024,-6.918399351e-05,-7.985270802e-05,-0.0001490367015,0.0007749465214,0.0004576805,0.001232627021,-0.0006811087595,4.470653103e-05,-0.0006364022285,0.000223750447,0.0001324580033,0.0003562084503,0.001015344412,3.63850757e-05,0.001051729488,0.001118229258,0.000124012737,0.001242241995,0.0005881184871,-0.0002779603197,0.0003101581674,0.000585082824,-0.0002915043522,0.0002935784718,-7.385394278e-06,2.644186911e-06,-4.741207367e-06,1.27496219e-05,-0.0001876535969,-0.000174903975,-0.0009763520226,0.0002184463688,-0.0007579056538,-0.001422077192,0.0002411587269,-0.001180918465,-0.0006257064582,9.749454357e-05,-0.0005282119146,-0.001182928421,0.0001047997119,-0.001078128709
6.5,-0.00195220598,0.001206438144,-0.0007457678359,-0.001995018042,-0.0002380196192,-0.002233037661,0.002368569274,0.000517418717,0.002885987991,0.00143836658,0.0002721127786,0.001710479359,-0.0002170427422,-0.0001437236499,-0.0003607663921,-0.0005627823173,-1.691340829e-05,-0.0005796957256,-0.0004028957685,-0.0001517916036,-0.000554687372,-0.0006859461436,-0.0001780479165,-0.0008639940601,0.0002278918064,-6.470580151e-05,0.0001631860048,-0.0003282937453,-0.000128171205,-0.0004564649503,-0.0002812339983,-0.0003731757776,-0.0006544097759,0.0007988595374,0.000637001376,0.001435860913,0.001004035736,0.0003966863577,0.001400722093,0.001094251578,0.0003328935315,0.001427145109,0.0002813113133,0.0001858638373,0.0004671751506,0.0003596813689,-0.0003014227148,5.825865409e-05,-0.000204656119,8.83477743e-05,-0.0001163083447,0.0009100168544,-0.0002495524757,0.0006604643787,-0.0004330810395,3.266309832e-05,-0.0004004179412,0.0005872823708,-5.925967193e-05,0.0005280226989,0.0005080576793,-0.0001354154516,0.0003726422277,0.002075115417,0.0004461093975,0.002521224815,-7.88096508e-05,-8.033295949e-05,-0.0001591426103,0.0007386132488,0.0004502773357,0.001188890584,-0.0007332372873,4.813558249e-05,-0.0006851017048,0.0001764993868,0.0001337469319,0.0003102463186,0.0009570217377,4.305926109e-05,0.001000080999,0.001075419075,0.0001227361273,0.001198155203,0.0005747927646,-0.0002765209764,0.0002982717882,0.0005542842106,-0.0002860188848,0.0002682653258,-4.273320088e-05,6.285014279e-06,-3.64481866e-05,-1.211196128e-05,-0.0001911961749,-0.0002033081361,-0.001010044475,0.0002229778318,-0.0007870666433,-0.001457506663,0.0002474531381,-0.001210053524,-0.0006650765799,0.0001008984102,-0.0005641781697,-0.001188592799,0.0001011232414,-0.001087469558
6.6,-0.001965054119,0.00121998419,-0.0007450699293,-0.002070831767,-0.0002485995784,-0.002319431346,0.002345987601,0.0005192492448,0.002865236845,0.00139435966,0.0002619977781,0.001656357438,-0.0002456037434,-0.0001439592671,-0.0003895630104,-0.0006271789561,-1.974355645e-05,-0.0006469225126,-0.0004662484021,-0.0001511773843,-0.0006174257865,-0.0007883846474,-0.0001777651165,-0.000966149764,0.0001364536013,-6.431998438e-05,7.213361691e-05,-0.0004515227438,-0.000124542423,-0.0005760651668,-0.0003417066591,-0.0003726969285,-0.0007144035875,0.0007538827599,0.0006448313062,0.001398714066,0.0009448385056,0.0004054186035,0.001350257109,0.001051597592,0.0003280668359,0.001379664427,0.0002282796943,0.0001857732575,0.0004140529518,0.000339462534,-0.0003008365035,3.862603046e-05,-0.0002255982117,8.749117396e-05,-0.0001381070378,0.0009032246656,-0.0002420239844,0.0006612006812,-0.0004462756099,3.786020878e-05,-0.0004084154011,0.0005187426278,-5.788917409e-05,0.0004608534537,0.0004929946413,-0.0001380016625,0.0003549929789,0.00203073873,0.0004353212482,0.002466059978,-8.340799849e-05,-8.066835223e-05,-0.0001640763507,0.0007067222413,0.000442667944,0.001149390185,-0.0007810287805,5.200411499e-05,-0.0007290246655,0.0001342595828,0.0001348433755,0.0002691029583,0.0009053578522,5.022502141e-05,0.0009555828736,0.001036951246,0.0001222019039,0.00115915315,0.00056532561,-0.0002746165362,0.0002907090738,0.0005276060371,-0.000280263807,0.0002473422302,-7.293759393e-05,9.726236917e-06,-6.321135702e-05,-3.227484599e-05,-0.0001946897665,-0.0002269646125,-0.001036960058,0.0002280223111,-0.0008089377471,-0.001483627489,0.0002544052416,-0.001229222247,-0.000698303359,0.0001047130121,-0.0005935903469,-0.001185342421,9.620820395e-05,-0.001089134217
6.7,-0.001972922779,0.001233705179,-0.0007392176001,-0.002137635569,-0.0002589971228,-0.002396632692,0.002326683894,0.0005208779775,0.002847561872,0.001356317843,0.0002519320792,0.001608249922,-0.000269238958,-0.0001442013794,-0.0004134403374,-0.0006830722228,-2.250516095e-05,-0.0007055773837,-0.0005242382606,-0.0001504927788,-0.0006747310393,-0.000886838985,-0.0001772343755,-0.00106407336,4.810952783e-05,-6.400715892e-05,-1.589763109e-05,-0.0005713929892,-0.0001207762039,-0.0006921691931,-0.0003956874596,-0.0003720511968,-0.0007677386564,0.0007139910097,0.0006529410801,0.00136693209,0.0008882176205,0.000414819871,0.001303037491,0.001016210461,0.0003236536884,0.001339864149,0.0001825029081,0.0001860875641,0.0003685904723,0.0003255000188,-0.0002993713717,2.612864706e-05,-0.0002391126563,8.667345864e-05,-0.0001524391976,0.0009025532797,-0.0002341503149,0.0006684029648,-0.0004521718147,4.286754707e-05,-0.0004093042676,0.0004520763579,-5.657953285e-05,0.0003954968251,0.0004838371366,-0.0001404655345,0.000343371602,0.001992626814,0.000424947983,0.002417574797,-8.315282953e-05,-8.086639882e-05,-0.0001640192284,0.0006791754276,0.0004348841308,0.001114059558,-0.0008241817347,5.630701129e-05,-0.0007678747234,9.723049116e-05,0.0001357417184,0.0002329722096,0.000860596461,5.787401154e-05,0.0009184704726,0.001002966479,0.0001224134459,0.001125379925,0.0005598519016,-0.0002722887149,0.0002875631867,0.0005052210764,-0.0002742700047,0.0002309510717,-9.778043378e-05,1.296034734e-05,-8.482008644e-05,-4.757044959e-05,-0.0001980917813,-0.0002456622309,-0.001056817456,0.0002335710682,-0.0008232463879,-0.001500250403,0.000262010599,-0.001238239804,-0.0007252266714,0.0001089550797,-0.0006162715918,-0.001173263201,9.023339314e-05,-0.001083029808
6.8,-0.001975846492,0.001247622466,-0.0007282240254,-0.002195058417,-0.0002691068517,-0.002464165269,0.002310669176,0.0005223154279,0.002832984604,0.001324407995,0.000241954247,0.001566362242,-0.0002878253016,-0.0001444581778,-0.0004322834794,-0.0007301311486,-2.517247452e-05,-0.0007553036231,-0.0005765649846,-0.0001497447358,-0.0007263097204,-0.000980756382,-0.0001764356685,-0.00115719205,-3.676159175e-05,-6.375412999e-05,-0.0001005157217,-0.0006873118456,-0.0001168953212,-0.0008042071668,-0.0004430904133,-0.0003712603385,-0.0008143507518,0.0006794799459,0.0006612839661,0.001340763912,0.0008345293022,0.0004248329952,0.001259362297,0.0009883190782,0.0003196732804,0.001307992359,0.0001442750053,0.0001868095885,0.0003310845938,0.0003179967678,-0.000297037485,2.095928283e-05,-0.0002451294237,8.592114446e-05,-0.0001592082792,0.0009077660814,-0.0002258436801,0.0006819224013,-0.0004507441423,4.767720101e-05,-0.0004030669413,0.0003876733056,-5.535589261e-05,0.000332317413,0.000480427622,-0.0001428207698,0.0003376068522,0.001960755271,0.0004150482045,0.002375803476,-7.828001752e-05,-8.093677095e-05,-0.0001592167885,0.0006558228571,0.0004269592161,0.001082782073,-0.0008624436073,6.103505673e-05,-0.0008014085506,6.5555381e-05,0.0001364417319,0.0002019971129,0.0008229207682,6.599935574e-05,0.000888920124,0.0009735662451,0.0001233690971,0.001096935342,0.0005584721931,-0.0002695841435,0.0002888880497,0.0004872574406,-0.0002680726799,0.0002191847608,-0.0001170893325,1.59824882e-05,-0.0001011068443,-5.787052869e-05,-0.0002013643835,-0.0002592349121,-0.001069395232,0.0002396111326,-0.0008297840995,-0.001507238714,0.0002702421194,-0.001236996594,-0.0007457393197,0.0001136425748,-0.0006320967449,-0.001152519872,8.338780742e-05,-0.001069132064
6.9,-0.001973899856,0.001261756109,-0.0007121437469,-0.002242807454,-0.0002788248537,-0.002521632308,0.002297928321,0.0005235755298,0.002821503851,0.00129874162,0.0002321013777,0.001530842998,-0.0003012872669,-0.0001447380046,-0.0004460252714,-0.0007681057396,-2.77185853e-05,-0.0007958243249,-0.0006229884857,-0.0001489412099,-0.0007719296956,-0.001069626766,-0.0001753569554,-0.001244983722,-0.0001178203443,-6.354735479e-05,-0.0001813676991,-0.0007987315136,-0.0001129225391,-0.0009116540527,-0.000483898348,-0.000370346817,-0.000854245165,0.0006505998902,0.00066981086,0.00132041075,0.0007841167704,0.0004353955589,0.001219512329,0.0009680837101,0.0003161442367,0.001284227947,0.0001138232921,0.0001879408558,0.0003017641479,0.0003171006036,-0.0002938571871,2.324341659e-05,-0.0002436310066,8.525857887e-05,-0.0001583724278,0.0009185859198,-0.000217028629,0.0007015572909,-0.0004420257957,5.228618477e-05,-0.0003897396109,0.000325888579,-5.42434095e-05,0.0002716451695,0.0004825395281,-0.0001450827852,0.0003374567428,0.001935030008,0.0004056737547,0.002340703762,-6.908353141e-05,-8.089105725e-05,-0.0001499745887,0.0006364646948,0.0004189282743,0.001055392969,-0.0008956127963,6.617503644e-05,-0.0008294377598,3.932174008e-05,0.0001369481126,0.0001762698527,0.0007924559966,7.459172815e-05,0.0008670477247,0.0009488103683,0.0001250617641,0.001073872132,0.0005612534324,-0.0002665529822,0.0002947004503,0.0004737993785,-0.0002617095636,0.0002120898149,-0.0001307365686,1.878965658e-05,-0.0001119469121,-6.308636643e-05,-0.0002044757639,-0.0002675621303,-0.001074533034,0.0002461252777,-0.0008284077566,-0.001504513449,0.0002790519711,-0.001225461478,-0.0007597862159,0.0001187934121,-0.0006409928038,-0.001123352112,7.586542149e-05,-0.00104748669
