Time,S1D1HbO,S1D1HbR,S1D1HbT,S2D2HbO,S2D2HbR,S2D2HbT,S3D3HbO,S3D3HbR,S3D3HbT,S4D4HbO,S4D4HbR,S4D4HbT,S5D5HbO,S5D5HbR,S5D5HbT,S6D6HbO,S6D6HbR,S6D6HbT,S7D7HbO,S7D7HbR,S7D7HbT,S8D8HbO,S8D8HbR,S8D8HbT,S9D9HbO,S9D9HbR,S9D9HbT,S10D10HbO,S10D10HbR,S10D10HbT,S11D11HbO,S11D11HbR,S11D11HbT,S12D12HbO,S12D12HbR,S12D12HbT,S13D13HbO,S13D13HbR,S13D13HbT,S14D14HbO,S14D14HbR,S14D14HbT,S15D15HbO,S15D15HbR,S15D15HbT,S16D16HbO,S16D16HbR,S16D16HbT,S17D17HbO,S17D17HbR,S17D17HbT,S18D18HbO,S18D18HbR,S18D18HbT,S19D19HbO,S19D19HbR,S19D19HbT,S20D20HbO,S20D20HbR,S20D20HbT,S21D21HbO,S21D21HbR,S21D21HbT,S22D22HbO,S22D22HbR,S22D22HbT,S23D23HbO,S23D23HbR,S23D23HbT,S24D24HbO,S24D24HbR,S24D24HbT,S25D25HbO,S25D25HbR,S25D25HbT,S26D26HbO,S26D26HbR,S26D26HbT,S27D27HbO,S27D27HbR,S27D27HbT,S28D28HbO,S28D28HbR,S28D28HbT,S29D29HbO,S29D29HbR,S29D29HbT,S30D30HbO,S30D30HbR,S30D30HbT,S31D31HbO,S31D31HbR,S31D31HbT,S32D32HbO,S32D32HbR,S32D32HbT,S33D33HbO,S33D33HbR,S33D33HbT,S34D34HbO,S34D34HbR,S34D34HbT,S35D35HbO,S35D35HbR,S35D35HbT,S36D36HbO,S36D36HbR,S36D36HbT,
-10,-8.073462157e-04,2.964686150e-04,-5.108776007e-04,-9.197511552e-04,-2.025822106e-05,-9.400093762e-04,-1.546933470e-03,2.339479484e-04,-1.312985521e-03,-1.443225922e-03,-5.705499636e-06,-1.448931421e-03,-2.123159595e-03,3.920556059e-04,-1.731103989e-03,-1.254197176e-03,2.677982914e-04,-9.863988841e-04,-1.594069264e-03,1.177420071e-04,-1.476327257e-03,-1.762294200e-03,1.139772727e-04,-1.648316927e-03,-1.621857699e-03,2.728756255e-04,-1.348982074e-03,-1.680482458e-03,3.455722447e-04,-1.334910213e-03,-1.730036660e-03,4.185756535e-04,-1.311461006e-03,-3.421891071e-03,2.300452750e-04,-3.191845796e-03,-3.790553681e-03,1.764131971e-04,-3.614140483e-03,-1.513901931e-03,3.286100206e-04,-1.185291910e-03,-2.321677276e-03,1.855244934e-04,-2.136152783e-03,-3.027724002e-03,1.601805622e-05,-3.011705946e-03,-3.990013887e-03,-6.122195747e-05,-4.051235844e-03,-1.821496296e-03,-1.897162688e-05,-1.840467923e-03,-2.592687291e-03,-2.811129991e-04,-2.873800290e-03,-1.706291225e-03,5.626854654e-06,-1.700664370e-03,-2.312962157e-03,3.035510962e-06,-2.309926646e-03,-1.968675496e-03,-9.748584260e-05,-2.066161338e-03,-1.828962580e-03,3.360636975e-04,-1.492898883e-03,-1.348321200e-03,2.567083678e-04,-1.091612832e-03,-1.905490598e-03,2.533075536e-04,-1.652183044e-03,-1.751456036e-03,1.343679216e-04,-1.617088115e-03,-2.162664835e-03,2.115537162e-04,-1.951111119e-03,-2.099511695e-03,1.532007008e-04,-1.946310995e-03,-3.895151389e-03,-1.530948335e-04,-4.048246222e-03,-3.111459235e-03,-5.771888670e-05,-3.169178121e-03,-4.692873950e-03,-8.966073983e-04,-5.589481348e-03,-2.082467776e-03,-3.005514186e-03,-5.087981962e-03,-5.667973174e-03,-2.589187945e-04,-5.926891969e-03,-5.029625213e-03,5.639791892e-04,-4.465646023e-03,-6.227107943e-03,-3.889053136e-04,-6.616013257e-03,-2.349268575e-03,-6.333792801e-04,-2.982647855e-03
-9.9,-7.409858875e-04,2.887051605e-04,-4.522807269e-04,-8.448381110e-04,-2.163423613e-05,-8.664723471e-04,-1.510533545e-03,2.262480899e-04,-1.284285455e-03,-1.375474774e-03,-8.598859359e-06,-1.384073634e-03,-2.061466522e-03,3.821184740e-04,-1.679348048e-03,-1.229291407e-03,2.961906291e-04,-9.331007780e-04,-1.554625830e-03,1.102559949e-04,-1.444369836e-03,-1.755828030e-03,1.289225289e-04,-1.626905501e-03,-1.626465159e-03,2.666871806e-04,-1.359777978e-03,-1.695790265e-03,3.368004256e-04,-1.358989840e-03,-1.731319833e-03,4.023925115e-04,-1.328927322e-03,-3.356811817e-03,2.275275759e-04,-3.129284241e-03,-3.741759965e-03,1.803705539e-04,-3.561389411e-03,-1.473572948e-03,3.232255553e-04,-1.150347393e-03,-2.292012438e-03,1.764995650e-04,-2.115512873e-03,-2.960053671e-03,1.787609944e-05,-2.942177572e-03,-3.903918603e-03,-5.600093086e-05,-3.959919534e-03,-1.747151862e-03,-1.865279524e-05,-1.765804658e-03,-2.503337828e-03,-2.736594975e-04,-2.776997326e-03,-1.672446384e-03,9.492688781e-06,-1.662953695e-03,-2.257480992e-03,-1.690922798e-06,-2.259171915e-03,-1.906546008e-03,-9.924947536e-05,-2.005795484e-03,-1.767921537e-03,3.293887372e-04,-1.438532800e-03,-1.272626400e-03,2.533981217e-04,-1.019228278e-03,-1.874971031e-03,2.235469648e-04,-1.651424066e-03,-1.716423444e-03,1.344002770e-04,-1.582023167e-03,-2.118247131e-03,1.938552113e-04,-1.924391919e-03,-2.071873631e-03,1.423265563e-04,-1.929547074e-03,-3.859568671e-03,-1.443329109e-04,-4.003901582e-03,-3.040383060e-03,-5.319092631e-05,-3.093573986e-03,-4.547406583e-03,-9.487149147e-04,-5.496121498e-03,-2.023172415e-03,-2.947579917e-03,-4.970752331e-03,-5.561337918e-03,-2.659848451e-04,-5.827322763e-03,-4.915736001e-03,5.736365555e-04,-4.342099446e-03,-6.052675325e-03,-3.296179329e-04,-6.382293258e-03,-2.348346243e-03,-6.204790694e-04,-2.968825312e-03
-9.8,-6.727839699e-04,2.805213274e-04,-3.922626425e-04,-7.664763153e-04,-2.269812619e-05,-7.891744415e-04,-1.471012154e-03,2.180012204e-04,-1.253010934e-03,-1.304786870e-03,-1.120223201e-05,-1.315989102e-03,-1.997490047e-03,3.716915430e-04,-1.625798504e-03,-1.201698360e-03,3.218761147e-04,-8.798222449e-04,-1.512414249e-03,1.029535998e-04,-1.409460650e-03,-1.745186117e-03,1.427923388e-04,-1.602393778e-03,-1.629321306e-03,2.598177239e-04,-1.369503582e-03,-1.708698524e-03,3.271259409e-04,-1.381572583e-03,-1.729903459e-03,3.854361674e-04,-1.344467292e-03,-3.287890200e-03,2.251456726e-04,-3.062744527e-03,-3.688027879e-03,1.832964779e-04,-3.504731401e-03,-1.431567150e-03,3.176013180e-04,-1.113965831e-03,-2.259366560e-03,1.674453248e-04,-2.091921235e-03,-2.888675967e-03,1.914632463e-05,-2.869529642e-03,-3.813315488e-03,-5.120257195e-05,-3.864518060e-03,-1.669414193e-03,-1.791091330e-05,-1.687325106e-03,-2.409419846e-03,-2.657615703e-04,-2.675181416e-03,-1.636165017e-03,1.412918589e-05,-1.622035831e-03,-2.197994764e-03,-6.187295858e-06,-2.204182060e-03,-1.842331795e-03,-1.001399894e-04,-1.942471784e-03,-1.704553592e-03,3.223375535e-04,-1.382216038e-03,-1.194445597e-03,2.483375010e-04,-9.461080957e-04,-1.840668986e-03,1.928027011e-04,-1.647866285e-03,-1.679967240e-03,1.346436223e-04,-1.545323618e-03,-2.070727721e-03,1.757074899e-04,-1.895020231e-03,-2.041247411e-03,1.314084484e-04,-1.909838962e-03,-3.818411279e-03,-1.356816546e-04,-3.954092933e-03,-2.965937225e-03,-4.838700498e-05,-3.014324230e-03,-4.392203418e-03,-1.000431698e-03,-5.392635116e-03,-1.973015940e-03,-2.879667959e-03,-4.852683899e-03,-5.449715756e-03,-2.727046897e-04,-5.722420446e-03,-4.787786765e-03,5.832815907e-04,-4.204505174e-03,-5.872355721e-03,-2.830193749e-04,-6.155375096e-03,-2.333143598e-03,-6.205027721e-04,-2.953646370e-03
-9.7,-6.028222731e-04,2.719162052e-04,-3.309060679e-04,-6.847782006e-04,-2.350225314e-05,-7.082804538e-04,-1.428356098e-03,2.092302772e-04,-1.219125821e-03,-1.231302101e-03,-1.352895763e-05,-1.244831059e-03,-1.931248424e-03,3.607861057e-04,-1.570462319e-03,-1.171065845e-03,3.446187413e-04,-8.264471035e-04,-1.467464014e-03,9.587900250e-05,-1.371585011e-03,-1.730287157e-03,1.554594465e-04,-1.574827711e-03,-1.630322097e-03,2.522806120e-04,-1.378041485e-03,-1.719128869e-03,3.165580389e-04,-1.402570830e-03,-1.725730045e-03,3.677565717e-04,-1.357973474e-03,-3.215169893e-03,2.228852875e-04,-2.992284605e-03,-3.629497717e-03,1.851972658e-04,-3.444300452e-03,-1.387949563e-03,3.117473365e-04,-1.076202226e-03,-2.223787591e-03,1.583685134e-04,-2.065419077e-03,-2.813588031e-03,1.985532265e-05,-2.793732709e-03,-3.718417522e-03,-4.673828023e-05,-3.765155803e-03,-1.588308524e-03,-1.671864265e-05,-1.605027167e-03,-2.310949976e-03,-2.574355463e-04,-2.568385523e-03,-1.597416553e-03,1.951223951e-05,-1.577904314e-03,-2.134501033e-03,-1.043361073e-05,-2.144934644e-03,-1.776167881e-03,-1.000082474e-04,-1.876176129e-03,-1.638881608e-03,3.149054265e-04,-1.323976181e-03,-1.113814541e-03,2.414583745e-04,-8.723561663e-04,-1.802709591e-03,1.613750498e-04,-1.641334541e-03,-1.642115816e-03,1.350744484e-04,-1.507041367e-03,-2.020562970e-03,1.571959490e-04,-1.863367021e-03,-2.007786798e-03,1.206079476e-04,-1.887178851e-03,-3.771773105e-03,-1.271982678e-04,-3.898971373e-03,-2.888192702e-03,-4.333972710e-05,-2.931532429e-03,-4.228116432e-03,-1.051044210e-03,-5.279160642e-03,-1.932088814e-03,-2.802129341e-03,-4.734218155e-03,-5.333420527e-03,-2.788305664e-04,-5.612251093e-03,-4.646118964e-03,5.928981700e-04,-4.053220794e-03,-5.684960166e-03,-2.505529968e-04,-5.935513162e-03,-2.301996288e-03,-6.332482055e-04,-2.935244493e-03
-9.6,-5.311840584e-04,2.628880548e-04,-2.682960036e-04,-5.998831222e-04,-2.410909680e-05,-6.239922190e-04,-1.382577843e-03,1.999586301e-04,-1.182619212e-03,-1.155182646e-03,-1.559701358e-05,-1.170779660e-03,-1.862781545e-03,3.494131778e-04,-1.513368367e-03,-1.137073040e-03,3.642318705e-04,-7.728411698e-04,-1.419828357e-03,8.907114469e-05,-1.330757212e-03,-1.711092991e-03,1.668349794e-04,-1.544258012e-03,-1.629375733e-03,2.440926727e-04,-1.385283060e-03,-1.727009606e-03,3.051105755e-04,-1.421899031e-03,-1.718753819e-03,3.494054465e-04,-1.369348373e-03,-3.138716420e-03,2.207271583e-04,-2.917989262e-03,-3.566329537e-03,1.860904125e-04,-3.380239124e-03,-1.342797718e-03,3.056741113e-04,-1.037123607e-03,-2.185332288e-03,1.492749395e-04,-2.036057349e-03,-2.734804379e-03,2.003687280e-05,-2.714767506e-03,-3.619446178e-03,-4.250760150e-05,-3.661953780e-03,-1.503862787e-03,-1.505889132e-05,-1.518921679e-03,-2.207957722e-03,-2.487047232e-04,-2.456662446e-03,-1.556173159e-03,2.559153624e-05,-1.530581622e-03,-2.067021428e-03,-1.441269084e-05,-2.081434119e-03,-1.708190122e-03,-9.869853502e-05,-1.806888657e-03,-1.570950388e-03,3.070861384e-04,-1.263864250e-03,-1.030778913e-03,2.327101573e-04,-7.980687559e-04,-1.761239230e-03,1.295665839e-04,-1.631672646e-03,-1.602903910e-03,1.356663255e-04,-1.467237584e-03,-1.968205000e-03,1.383997724e-04,-1.829805227e-03,-1.971663813e-03,1.100831086e-04,-1.861580704e-03,-3.719781824e-03,-1.189256438e-04,-3.838707468e-03,-2.807235660e-03,-3.808902913e-05,-2.845324689e-03,-4.056196608e-03,-1.099754536e-03,-5.155951144e-03,-1.900344259e-03,-2.715399535e-03,-4.615743794e-03,-5.212753886e-03,-2.841326735e-04,-5.496886559e-03,-4.491247881e-03,6.024560002e-04,-3.888791881e-03,-5.489229718e-03,-2.334265025e-04,-5.722656220e-03,-2.253622082e-03,-6.580677659e-04,-2.911689848e-03
-9.5,-4.579585169e-04,2.534349601e-04,-2.045235569e-04,-5.119605170e-04,-2.459005742e-05,-5.365505744e-04,-1.333716805e-03,1.902103684e-04,-1.143506437e-03,-1.076614758e-03,-1.742862811e-05,-1.094043386e-03,-1.792153321e-03,3.375837918e-04,-1.454569529e-03,-1.099434235e-03,3.805769596e-04,-7.188572757e-04,-1.369586232e-03,8.256325055e-05,-1.287022982e-03,-1.687611797e-03,1.768696251e-04,-1.510742172e-03,-1.626403803e-03,2.352743409e-04,-1.391129462e-03,-1.732277443e-03,2.928022935e-04,-1.439475150e-03,-1.708941342e-03,3.304363891e-04,-1.378504953e-03,-3.058616732e-03,2.186466417e-04,-2.839970090e-03,-3.498701965e-03,1.860031272e-04,-3.312698838e-03,-1.296202021e-03,2.993925378e-04,-9.968094833e-04,-2.144066855e-03,1.401701883e-04,-2.003896667e-03,-2.652361091e-03,1.973142564e-05,-2.632629666e-03,-3.516631936e-03,-3.840072402e-05,-3.555032660e-03,-1.416111254e-03,-1.292525204e-05,-1.429036506e-03,-2.100490965e-03,-2.395990698e-04,-2.340090035e-03,-1.512414015e-03,3.229218128e-05,-1.480121833e-03,-1.995604549e-03,-1.811039633e-05,-2.013714946e-03,-1.638534910e-03,-9.605460660e-05,-1.734589517e-03,-1.500826443e-03,2.988729447e-04,-1.201953498e-03,-9.453957594e-04,2.220571622e-04,-7.233385972e-04,-1.716427217e-03,9.767831564e-05,-1.618748901e-03,-1.562372592e-03,1.363896325e-04,-1.425982960e-03,-1.914095185e-03,1.193906756e-04,-1.794704509e-03,-1.933068177e-03,9.998503203e-05,-1.833083145e-03,-3.662598427e-03,-1.108929596e-04,-3.773491387e-03,-2.723165526e-03,-3.268303100e-05,-2.755848557e-03,-3.877674265e-03,-1.145706947e-03,-5.023381212e-03,-1.877595792e-03,-2.620000733e-03,-4.497596525e-03,-5.088000495e-03,-2.884079980e-04,-5.376408493e-03,-4.323853843e-03,6.119163467e-04,-3.711937497e-03,-5.283918183e-03,-2.325673082e-04,-5.516485491e-03,-2.187147654e-03,-6.938747985e-04,-2.881022453e-03
-9.4,-3.832440517e-04,2.435555364e-04,-1.396885153e-04,-4.212110168e-04,-2.502323956e-05,-4.462342564e-04,-1.281838432e-03,1.800106506e-04,-1.101827782e-03,-9.958074872e-04,-1.904964493e-05,-1.014857132e-03,-1.719450301e-03,3.253094044e-04,-1.394140897e-03,-1.057899601e-03,3.935604350e-04,-6.643391661e-04,-1.316841036e-03,7.638256979e-05,-1.240458466e-03,-1.659897052e-03,1.855525577e-04,-1.474344494e-03,-1.621339232e-03,2.258497797e-04,-1.395489452e-03,-1.734876433e-03,2.796571761e-04,-1.455219257e-03,-1.696269818e-03,3.109050076e-04,-1.385364810e-03,-2.974976584e-03,2.166127281e-04,-2.758363856e-03,-3.426809999e-03,1.849702947e-04,-3.241839704e-03,-1.248264300e-03,2.929136999e-04,-9.553506000e-04,-2.100066102e-03,1.310605119e-04,-1.969005590e-03,-2.566318575e-03,1.898584130e-05,-2.547332734e-03,-3.410213255e-03,-3.430235429e-05,-3.444515609e-03,-1.325097212e-03,-1.032165275e-05,-1.335418864e-03,-1.988619674e-03,-2.301545202e-04,-2.218774194e-03,-1.466128280e-03,3.951831908e-05,-1.426609961e-03,-1.920326019e-03,-2.151582060e-05,-1.941841840e-03,-1.567337687e-03,-9.192558331e-05,-1.659263270e-03,-1.428595700e-03,2.902597208e-04,-1.138335979e-03,-8.577345529e-04,2.094768230e-04,-6.482577299e-04,-1.668463280e-03,6.600406707e-05,-1.602459213e-03,-1.520566876e-03,1.372110796e-04,-1.383355796e-03,-1.858657771e-03,1.002321173e-04,-1.758425654e-03,-1.892204032e-03,9.045410260e-05,-1.801749929e-03,-3.600414428e-03,-1.031157813e-04,-3.703530210e-03,-2.636091813e-03,-2.717745112e-05,-2.663269264e-03,-3.693930728e-03,-1.188012821e-03,-4.881943549e-03,-1.863504860e-03,-2.516547333e-03,-4.380052193e-03,-4.959424129e-03,-2.914842142e-04,-5.250908343e-03,-4.144764727e-03,6.212361503e-04,-3.523528576e-03,-5.067858519e-03,-2.485889114e-04,-5.316447430e-03,-2.102109556e-03,-7.391782105e-04,-2.841287767e-03
-9.3,-3.071506023e-04,2.332496375e-04,-7.390096480e-05,-3.278667880e-04,-2.549056991e-05,-3.533573580e-04,-1.227032589e-03,1.693859777e-04,-1.057646612e-03,-9.129905026e-04,-2.048866378e-05,-9.334791664e-04,-1.644778960e-03,3.126022757e-04,-1.332176684e-03,-1.012255276e-03,4.031291284e-04,-6.091261473e-04,-1.261717975e-03,7.055022601e-05,-1.191167749e-03,-1.628044053e-03,1.929083088e-04,-1.435135744e-03,-1.614123688e-03,2.158469372e-04,-1.398276751e-03,-1.734756463e-03,2.657048604e-04,-1.469051602e-03,-1.680725241e-03,2.908689914e-04,-1.389856250e-03,-2.887917730e-03,2.145869734e-04,-2.673330756e-03,-3.350862013e-03,1.830320819e-04,-3.167829931e-03,-1.199096149e-03,2.862486086e-04,-9.128475404e-04,-2.053412720e-03,1.219539373e-04,-1.931458783e-03,-2.476763109e-03,1.785282517e-05,-2.458910284e-03,-3.300434652e-03,-3.009648465e-05,-3.330531136e-03,-1.230875284e-03,-7.261642918e-06,-1.238136927e-03,-1.872438495e-03,-2.204114416e-04,-2.092849936e-03,-1.417318656e-03,4.715845208e-05,-1.370160204e-03,-1.841288068e-03,-2.462135472e-05,-1.865909422e-03,-1.494731627e-03,-8.617121652e-05,-1.580902844e-03,-1.354361789e-03,2.812419311e-04,-1.073119858e-03,-7.678798144e-04,1.949596223e-04,-5.729201921e-04,-1.617551879e-03,3.482279910e-05,-1.582729080e-03,-1.477532661e-03,1.380933278e-04,-1.339439333e-03,-1.802293197e-03,8.097764176e-05,-1.721315555e-03,-1.849284874e-03,8.161570577e-05,-1.767669169e-03,-3.533448294e-03,-9.559651140e-05,-3.629044805e-03,-2.546132663e-03,-2.163372650e-05,-2.567766389e-03,-3.506465966e-03,-1.225774072e-03,-4.732240038e-03,-1.857564200e-03,-2.405752037e-03,-4.263316237e-03,-4.827265933e-03,-2.932198664e-04,-5.120485799e-03,-3.954929494e-03,6.303654458e-04,-3.324564048e-03,-4.840015406e-03,-2.817665431e-04,-5.121781949e-03,-1.998423591e-03,-7.921518407e-04,-2.790575431e-03
-9.2,-2.298018331e-04,2.225189732e-04,-7.282859902e-06,-2.321928163e-04,-2.607480183e-05,-2.582676182e-04,-1.169412946e-03,1.583643518e-04,-1.011048595e-03,-8.284135240e-04,-2.177603734e-05,-8.501895614e-04,-1.568264660e-03,2.994757579e-04,-1.268788902e-03,-9.623254457e-04,4.092650195e-04,-5.530604263e-04,-1.204362679e-03,6.508120171e-05,-1.139281477e-03,-1.592185642e-03,1.989912215e-04,-1.393194420e-03,-1.604707207e-03,2.052975185e-04,-1.399409689e-03,-1.731873828e-03,2.509810521e-04,-1.480892775e-03,-1.662302446e-03,2.703880993e-04,-1.391914347e-03,-2.797577049e-03,2.125231599e-04,-2.585053889e-03,-3.271077120e-03,1.802318259e-04,-3.090845294e-03,-1.148818535e-03,2.794080037e-04,-8.694105317e-04,-2.004198003e-03,1.128614206e-04,-1.891336582e-03,-2.383807918e-03,1.638979942e-05,-2.367418119e-03,-3.187544631e-03,-2.567158328e-05,-3.213216215e-03,-1.133514181e-03,-3.767823191e-06,-1.137282004e-03,-1.752069098e-03,-2.104126015e-04,-1.962481699e-03,-1.366006893e-03,5.509120509e-05,-1.310915688e-03,-1.758620753e-03,-2.742273519e-05,-1.786043488e-03,-1.420847582e-03,-7.866634051e-05,-1.499513923e-03,-1.278246776e-03,2.718171902e-04,-1.006429586e-03,-6.759363583e-04,1.785108166e-04,-4.974255417e-04,-1.563905511e-03,4.389547312e-06,-1.559515963e-03,-1.433315211e-03,1.389949416e-04,-1.294320270e-03,-1.745373052e-03,6.166993561e-05,-1.683703116e-03,-1.804528593e-03,7.357582637e-05,-1.730952767e-03,-3.461942768e-03,-8.832616776e-05,-3.550268936e-03,-2.453417129e-03,-1.611636390e-05,-2.469533493e-03,-3.316865194e-03,-1.258106354e-03,-4.574971548e-03,-1.859089088e-03,-2.288426522e-03,-4.147515610e-03,-4.691746691e-03,-2.935024724e-04,-4.985249164e-03,-3.755386620e-03,6.392352896e-04,-3.116151330e-03,-4.599528462e-03,-3.320200479e-04,-4.931548510e-03,-1.876336982e-03,-8.507266732e-04,-2.727063655e-03
-9.1,-1.513379127e-04,2.113676783e-04,6.002976560e-05,-1.344901801e-04,-2.685653703e-05,-1.613467172e-04,-1.109118089e-03,1.469754045e-04,-9.621426844e-04,-7.423485013e-04,-2.294284018e-05,-7.652913415e-04,-1.490053836e-03,2.859445380e-04,-1.204109298e-03,-9.079784349e-04,4.119808706e-04,-4.959975643e-04,-1.144942429e-03,5.998453953e-05,-1.084957889e-03,-1.552488068e-03,2.038775546e-04,-1.348610514e-03,-1.593050992e-03,1.942368910e-04,-1.398814101e-03,-1.726194825e-03,2.355278246e-04,-1.490667001e-03,-1.641007718e-03,2.495240867e-04,-1.391483632e-03,-2.704108462e-03,2.103683069e-04,-2.493740155e-03,-3.187684268e-03,1.766148585e-04,-3.011069410e-03,-1.097563061e-03,2.724022608e-04,-8.251608005e-04,-1.952524283e-03,1.037977966e-04,-1.848726486e-03,-2.287594345e-03,1.465725465e-05,-2.272937090e-03,-3.071793717e-03,-2.092605381e-05,-3.092719771e-03,-1.033100590e-03,1.285397700e-07,-1.032972050e-03,-1.627662695e-03,-2.002012975e-04,-1.827863993e-03,-1.312241071e-03,6.319005724e-05,-1.249051013e-03,-1.672485382e-03,-2.991922458e-05,-1.702404607e-03,-1.345815548e-03,-6.930481648e-05,-1.415120365e-03,-1.200394534e-03,2.619854443e-04,-9.384090892e-04,-5.820371571e-04,1.601536172e-04,-4.218835399e-04,-1.507738994e-03,-2.507337717e-05,-1.532812371e-03,-1.387960326e-03,1.398707433e-04,-1.248089582e-03,-1.688239195e-03,4.234342660e-05,-1.645895769e-03,-1.758153765e-03,6.641723569e-05,-1.691736529e-03,-3.386164117e-03,-8.128753112e-05,-3.467451648e-03,-2.358091338e-03,-1.069001730e-05,-2.368781355e-03,-3.126768896e-03,-1.284159214e-03,-4.410928110e-03,-1.867227489e-03,-2.165471897e-03,-4.032699386e-03,-4.553073786e-03,-2.922458054e-04,-4.845319591e-03,-3.547233300e-03,6.477388335e-04,-2.899494466e-03,-4.345744826e-03,-3.989097005e-04,-4.744654526e-03,-1.736385608e-03,-9.126850393e-04,-2.649070647e-03
-9,-7.191905553e-05,1.998029050e-04,1.278838494e-04,-3.510131610e-05,-2.791107426e-05,-6.301239036e-05,-1.046314095e-03,1.352505741e-04,-9.110635214e-04,-6.550941127e-04,-2.401994040e-05,-6.791140531e-04,-1.410319007e-03,2.720248940e-04,-1.138294113e-03,-8.491366616e-04,4.113177067e-04,-4.378189549e-04,-1.083649698e-03,5.526367497e-05,-1.028386023e-03,-1.509147186e-03,2.076557319e-04,-1.301491454e-03,-1.579132517e-03,1.827040025e-04,-1.396428514e-03,-1.717701550e-03,2.193938046e-04,-1.498307745e-03,-1.616863176e-03,2.283406195e-04,-1.388522557e-03,-2.607686797e-03,2.080648963e-04,-2.399621900e-03,-3.100923430e-03,1.722285522e-04,-2.928694878e-03,-1.045474295e-03,2.652413668e-04,-7.802329282e-04,-1.898508384e-03,9.478237835e-05,-1.803726006e-03,-2.188293178e-03,1.271679188e-05,-2.175576386e-03,-2.953432568e-03,-1.577380500e-05,-2.969206373e-03,-9.297447113e-04,4.388114771e-06,-9.253565965e-04,-1.499403053e-03,-1.898198553e-04,-1.689222909e-03,-1.256103454e-03,7.132646199e-05,-1.184776992e-03,-1.583079488e-03,-3.211386041e-05,-1.615193348e-03,-1.269766946e-03,-5.800392642e-05,-1.327770873e-03,-1.120975633e-03,2.517489905e-04,-8.692266425e-04,-4.863527389e-04,1.399330171e-04,-3.464197217e-04,-1.449266270e-03,-5.338294414e-05,-1.502649214e-03,-1.341517967e-03,1.406725258e-04,-1.200845441e-03,-1.631207291e-03,2.303084011e-05,-1.608176451e-03,-1.710377067e-03,6.019672372e-05,-1.650180343e-03,-3.306403170e-03,-7.445869967e-05,-3.380861870e-03,-2.260326570e-03,-5.416773805e-06,-2.265743344e-03,-2.937849866e-03,-1.303129375e-03,-4.240979241e-03,-1.880988946e-03,-2.037859583e-03,-3.918848529e-03,-4.411451356e-03,-2.893878284e-04,-4.700839185e-03,-3.331599324e-03,6.557114507e-04,-2.675887873e-03,-4.078238647e-03,-4.816532242e-04,-4.559891872e-03,-1.579365652e-03,-9.757435162e-04,-2.555109168e-03
-8.9,8.270642420e-06,1.878353597e-04,1.961060021e-04,6.558388858e-05,-2.930517088e-05,3.627871770e-05,-9.811975687e-04,1.232233316e-04,-8.579742371e-04,-5.669810411e-04,-2.503727260e-05,-5.920183137e-04,-1.329264720e-03,2.577349928e-04,-1.071529727e-03,-7.857882861e-04,4.073432632e-04,-3.784450229e-04,-1.020706353e-03,5.091666778e-05,-9.697896853e-04,-1.462385305e-03,2.104159929e-04,-1.251969312e-03,-1.562950839e-03,1.707414043e-04,-1.392209435e-03,-1.706398005e-03,2.026344568e-04,-1.503763548e-03,-1.589911218e-03,2.069032695e-04,-1.383007949e-03,-2.508511582e-03,2.055533761e-04,-2.302958206e-03,-3.011047665e-03,1.671234133e-04,-2.843924252e-03,-9.927119860e-04,2.579349552e-04,-7.347770309e-04,-1.842284856e-03,8.583922836e-05,-1.756445628e-03,-2.086105769e-03,1.062922486e-05,-2.075476544e-03,-2.832710235e-03,-1.014924807e-05,-2.842859483e-03,-8.235869742e-04,8.964595282e-06,-8.146223789e-04,-1.367510130e-03,-1.793082096e-04,-1.546818340e-03,-1.197717160e-03,7.937183409e-05,-1.118345326e-03,-1.490641841e-03,-3.401355529e-05,-1.524655397e-03,-1.192836159e-03,-4.471022598e-05,-1.237546385e-03,-1.040191655e-03,2.411125801e-04,-7.990790754e-04,-3.891000230e-04,1.179193407e-04,-2.711806823e-04,-1.388700554e-03,-8.039862702e-05,-1.469099181e-03,-1.294047030e-03,1.413500138e-04,-1.152697016e-03,-1.574572746e-03,3.771126767e-06,-1.570801619e-03,-1.661411052e-03,5.494347564e-05,-1.606467577e-03,-3.222976902e-03,-6.781594805e-05,-3.290792850e-03,-2.160325960e-03,-3.539946146e-07,-2.160679955e-03,-2.751794847e-03,-1.314268602e-03,-4.066063449e-03,-1.899281778e-03,-1.906605534e-03,-3.805887312e-03,-4.267091175e-03,-2.848901802e-04,-4.551981355e-03,-3.109625269e-03,6.629138490e-04,-2.446711420e-03,-3.796823854e-03,-5.791621902e-04,-4.375986044e-03,-1.406313164e-03,-1.037622903e-03,-2.443936067e-03
-8.8,8.902003040e-05,1.754796457e-04,2.644996761e-04,1.671234577e-04,-3.109409243e-05,1.360293653e-04,-9.139974599e-04,1.109294305e-04,-8.030680293e-04,-4.783755664e-04,-2.602329980e-05,-5.043988662e-04,-1.247131490e-03,2.430952444e-04,-1.004036246e-03,-7.179978800e-04,4.001500924e-04,-3.178477877e-04,-9.563661453e-04,4.693624324e-05,-9.094299021e-04,-1.412449281e-03,2.122418488e-04,-1.200207432e-03,-1.544529525e-03,1.583953927e-04,-1.386134132e-03,-1.692314184e-03,1.853126514e-04,-1.507001533e-03,-1.560217011e-03,1.852797061e-04,-1.374937304e-03,-2.406808509e-03,2.027740235e-04,-2.204034485e-03,-2.918323855e-03,1.613546047e-04,-2.756969250e-03,-9.394516924e-04,2.504924435e-04,-6.889592489e-04,-1.784007510e-03,7.699715523e-05,-1.707010355e-03,-1.981264262e-03,8.453128988e-06,-1.972811133e-03,-2.709872608e-03,-4.010667654e-06,-2.713883275e-03,-7.148042361e-04,1.380619415e-05,-7.009980420e-04,-1.232243485e-03,-1.687023735e-04,-1.400945858e-03,-1.137249194e-03,8.719908851e-05,-1.050050105e-03,-1.395455126e-03,-3.562893516e-05,-1.431084061e-03,-1.115159813e-03,-2.940665915e-05,-1.144566472e-03,-9.582762774e-04,2.300837826e-04,-7.281924947e-04,-2.905479271e-04,9.421112796e-05,-1.963367991e-04,-1.326256906e-03,-1.060226400e-04,-1.432279546e-03,-1.245619131e-03,1.418518782e-04,-1.103767253e-03,-1.518616506e-03,-1.538389461e-05,-1.534000401e-03,-1.611461581e-03,5.065863202e-05,-1.560802949e-03,-3.136228264e-03,-6.133549092e-05,-3.197563755e-03,-2.058326845e-03,4.447453438e-06,-2.053879391e-03,-2.570284050e-03,-1.316890296e-03,-3.887174346e-03,-1.920947309e-03,-1.772741168e-03,-3.693688477e-03,-4.120221664e-03,-2.787385725e-04,-4.398960236e-03,-2.882442312e-03,6.690196599e-04,-2.213422652e-03,-3.501572441e-03,-6.900867558e-04,-4.191659197e-03,-1.218480016e-03,-1.096110401e-03,-2.314590417e-03
-8.7,1.700895374e-04,1.627544130e-04,3.328439505e-04,2.690228701e-04,-3.331922692e-05,2.357036432e-04,-8.449738724e-04,9.840719167e-05,-7.465666807e-04,-3.896788012e-04,-2.700450916e-05,-4.166833103e-04,-1.164194773e-03,2.281287408e-04,-9.360660326e-04,-6.459140827e-04,3.898536827e-04,-2.560604000e-04,-8.909131203e-04,4.330976087e-05,-8.476033595e-04,-1.359609364e-03,2.132052953e-04,-1.146404069e-03,-1.523914989e-03,1.457161595e-04,-1.378198829e-03,-1.675505873e-03,1.674993704e-04,-1.508006503e-03,-1.527867416e-03,1.635401063e-04,-1.364327310e-03,-2.302827142e-03,1.996680340e-04,-2.103159108e-03,-2.823030337e-03,1.549829779e-04,-2.668047359e-03,-8.858825934e-04,2.429232515e-04,-6.429593419e-04,-1.723847992e-03,6.828936008e-05,-1.655558632e-03,-1.874030048e-03,6.244026886e-06,-1.867786022e-03,-2.585160871e-03,2.658669795e-06,-2.582502201e-03,-6.036134593e-04,1.885740281e-05,-5.847560565e-04,-1.093903713e-03,-1.580329655e-04,-1.251936679e-03,-1.074907582e-03,9.468392090e-05,-9.802236608e-04,-1.297843877e-03,-3.697401542e-05,-1.334817892e-03,-1.036873618e-03,-1.211895548e-05,-1.048992573e-03,-8.754911442e-04,2.186736364e-04,-6.568175079e-04,-1.910176969e-04,6.893743157e-05,-1.220802653e-04,-1.262154369e-03,-1.301983813e-04,-1.392352750e-03,-1.196319303e-03,1.421266391e-04,-1.054192664e-03,-1.463608073e-03,-3.436490483e-05,-1.497972978e-03,-1.560724491e-03,4.731625125e-05,-1.513408240e-03,-3.046521798e-03,-5.499465010e-05,-3.101516448e-03,-1.954597405e-03,8.944957325e-06,-1.945652448e-03,-2.394961807e-03,-1.310377362e-03,-3.705339169e-03,-1.944784908e-03,-1.637286209e-03,-3.582071117e-03,-3.971092495e-03,-2.709429371e-04,-4.242035432e-03,-2.651151816e-03,6.736099376e-04,-1.977541878e-03,-3.192841663e-03,-8.128585307e-04,-4.005700194e-03,-1.017298031e-03,-1.149119282e-03,-2.166417313e-03
-8.6,2.512123804e-04,1.496824350e-04,4.008948154e-04,3.707405485e-04,-3.600643902e-05,3.347341095e-04,-7.744131003e-04,8.569782071e-05,-6.887152796e-04,-3.013203941e-04,-2.800475729e-05,-3.293251514e-04,-1.080757716e-03,2.128617689e-04,-8.678959473e-04,-5.697732431e-04,3.765921216e-04,-1.931811216e-04,-8.246548603e-04,4.001915270e-05,-7.846357076e-04,-1.304156704e-03,2.133654241e-04,-1.090791280e-03,-1.501169929e-03,1.327577531e-04,-1.368412176e-03,-1.656049430e-03,1.492741066e-04,-1.506775323e-03,-1.492966252e-03,1.417575902e-04,-1.351208661e-03,-2.196834958e-03,1.961782217e-04,-2.000656736e-03,-2.725451368e-03,1.480750471e-04,-2.577376321e-03,-8.322023867e-04,2.352369615e-04,-5.969654252e-04,-1.661991194e-03,5.975256563e-05,-1.602238629e-03,-1.764689956e-03,4.054168347e-06,-1.760635787e-03,-2.458809559e-03,9.851484128e-06,-2.448958075e-03,-4.902718572e-04,2.406083788e-05,-4.662110193e-04,-9.528306217e-04,-1.473240824e-04,-1.100154704e-03,-1.010932656e-03,1.017056765e-04,-9.092269795e-04,-1.198167163e-03,-3.806588086e-05,-1.236233044e-03,-9.581085301e-04,7.081439740e-06,-9.510270904e-04,-7.921170083e-04,2.068974157e-04,-5.852195926e-04,-9.087800133e-05,4.225935720e-05,-4.861864412e-05,-1.196615066e-03,-1.529081553e-04,-1.349523221e-03,-1.146242854e-03,1.421234766e-04,-1.004119377e-03,-1.409803841e-03,-5.308154586e-05,-1.462885387e-03,-1.509381677e-03,4.486590127e-05,-1.464515776e-03,-2.954234251e-03,-4.877312091e-05,-3.003007372e-03,-1.849428406e-03,1.310580548e-05,-1.836322601e-03,-2.227395111e-03,-1.294193797e-03,-3.521588908e-03,-1.969567265e-03,-1.501228280e-03,-3.470795545e-03,-3.819973256e-03,-2.615368492e-04,-4.081510105e-03,-2.416804605e-03,6.761781664e-04,-1.740626439e-03,-2.871302967e-03,-9.457231983e-04,-3.817026165e-03,-8.043303406e-04,-1.194746684e-03,-1.999077025e-03
-8.5,3.320980622e-04,1.362907169e-04,4.683887791e-04,4.716985237e-04,-3.916527314e-05,4.325332506e-04,-7.026201381e-04,7.284565254e-05,-6.297744855e-04,-2.137483343e-04,-2.904444927e-05,-2.427927836e-04,-9.971396207e-04,1.973242797e-04,-7.998153409e-04,-4.898992718e-04,3.605275749e-04,-1.293716968e-04,-7.579119413e-04,3.704072239e-05,-7.208712189e-04,-1.246397951e-03,2.127685789e-04,-1.033629372e-03,-1.476364314e-03,1.195776794e-04,-1.356786635e-03,-1.634033402e-03,1.307245606e-04,-1.503308842e-03,-1.455627794e-03,1.200083615e-04,-1.335619432e-03,-2.089109339e-03,1.922497017e-04,-1.896859637e-03,-2.625869877e-03,1.407020692e-04,-2.485167808e-03,-7.786107248e-04,2.274433021e-04,-5.511674227e-04,-1.598629008e-03,5.142561571e-05,-1.547203392e-03,-1.653550759e-03,1.932628823e-06,-1.651618130e-03,-2.331044082e-03,1.753892233e-05,-2.313505160e-03,-3.750740367e-04,2.935883027e-05,-3.457152064e-04,-8.093985361e-04,-1.365925709e-04,-9.459911070e-04,-9.455856217e-04,1.081478488e-04,-8.374377729e-04,-1.096808209e-03,-3.892440124e-05,-1.135732610e-03,-8.789886916e-04,2.807949145e-05,-8.509092002e-04,-7.084432429e-04,1.947752295e-04,-5.136680134e-04,9.463120926e-06,1.437014362e-05,2.383326455e-05,-1.129860197e-03,-1.741704971e-04,-1.304030694e-03,-1.095489848e-03,1.417930540e-04,-9.536967939e-04,-1.357441290e-03,-7.141906069e-05,-1.428860351e-03,-1.457597355e-03,4.323665676e-05,-1.414360698e-03,-2.859742640e-03,-4.265434420e-05,-2.902396984e-03,-1.743122731e-03,1.690821612e-05,-1.726214515e-03,-2.069023768e-03,-1.267903103e-03,-3.336926871e-03,-1.994050542e-03,-1.365510838e-03,-3.359561380e-03,-3.667147582e-03,-2.505762819e-04,-3.917723864e-03,-2.180381175e-03,6.761477761e-04,-1.504233399e-03,-2.537967976e-03,-1.086756130e-03,-3.624724106e-03,-5.812181723e-04,-1.231324995e-03,-1.812543168e-03
-8.4,4.124368530e-04,1.226106736e-04,5.350475267e-04,5.712950685e-04,-4.278884568e-05,5.285062228e-04,-6.299110773e-04,5.989816203e-05,-5.700129153e-04,-1.274182488e-04,-3.013974623e-05,-1.575579950e-04,-9.136642158e-04,1.815501411e-04,-7.321140747e-04,-4.067005843e-04,3.418476501e-04,-6.485293419e-05,-6.910069051e-04,3.434480205e-05,-6.566621030e-04,-1.186647756e-03,2.114487334e-04,-9.751990228e-04,-1.449567857e-03,1.062361138e-04,-1.343331743e-03,-1.609550560e-03,1.119455866e-04,-1.497604974e-03,-1.415971427e-03,9.837134665e-05,-1.317600080e-03,-1.979930034e-03,1.878308546e-04,-1.792099180e-03,-2.524559944e-03,1.329385008e-04,-2.391621443e-03,-7.253033303e-04,2.195519986e-04,-5.057513317e-04,-1.533954744e-03,4.334778558e-05,-1.490606958e-03,-1.540933280e-03,-7.474387923e-08,-1.541008024e-03,-2.202078210e-03,2.567378168e-05,-2.176404428e-03,-2.583477056e-04,3.469443855e-05,-2.236532670e-04,-6.640106739e-04,-1.258474414e-04,-7.898581153e-04,-8.791383979e-04,1.138986184e-04,-7.652397795e-04,-9.941644790e-04,-3.957186202e-05,-1.033736341e-03,-7.996322556e-04,5.072290561e-05,-7.489093500e-04,-6.247593088e-04,1.823322220e-04,-4.424270868e-04,1.095670649e-04,-1.450688599e-05,9.506017886e-05,-1.062105529e-03,-1.940364598e-04,-1.256141989e-03,-1.044159810e-03,1.410882977e-04,-9.030715120e-04,-1.306731143e-03,-8.923637289e-05,-1.395967516e-03,-1.405515455e-03,4.234171917e-05,-1.363173736e-03,-2.763413808e-03,-3.662648971e-05,-2.800040298e-03,-1.635986013e-03,2.034141038e-05,-1.615644602e-03,-1.921111972e-03,-1.231193843e-03,-3.152305815e-03,-2.016984757e-03,-1.231028923e-03,-3.248013680e-03,-3.512906512e-03,-2.381375342e-04,-3.751044046e-03,-1.942774945e-03,6.729005281e-04,-1.269874417e-03,-2.194210528e-03,-1.233862834e-03,-3.428073362e-03,-3.496341412e-04,-1.257460844e-03,-1.607094985e-03
-8.3,4.919038114e-04,1.086783739e-04,6.005821853e-04,6.689158440e-04,-4.685407265e-05,6.220617714e-04,-5.566072571e-04,4.690567343e-05,-5.097015836e-04,-4.278490925e-05,-3.130201464e-05,-7.408692389e-05,-8.306512232e-04,1.655770819e-04,-6.650741412e-04,-3.206648476e-04,3.207641844e-04,9.933680295e-08,-6.242558279e-04,3.189547954e-05,-5.923603483e-04,-1.125221641e-03,2.094278211e-04,-9.157938200e-04,-1.420846756e-03,9.279484486e-05,-1.328051911e-03,-1.582693220e-03,9.303763166e-05,-1.489655588e-03,-1.374119414e-03,7.692737594e-05,-1.297192038e-03,-1.869574068e-03,1.828747047e-04,-1.686699363e-03,-2.421779640e-03,1.248596354e-04,-2.296920004e-03,-6.724682255e-04,2.115726384e-04,-4.608955871e-04,-1.468159735e-03,3.555704258e-05,-1.432602693e-03,-1.427167251e-03,-1.925872914e-06,-1.429093124e-03,-2.072112053e-03,3.419368192e-05,-2.037918371e-03,-1.404494138e-04,4.001177020e-05,-1.004376436e-04,-5.170946898e-04,-1.150892001e-04,-6.321838899e-04,-8.118669451e-04,1.188518939e-04,-6.930150512e-04,-8.906406390e-04,-4.003241768e-05,-9.306730567e-04,-7.201543126e-04,7.483008862e-05,-6.453242239e-04,-5.413500192e-04,1.695983133e-04,-3.717517059e-04,2.089727571e-04,-4.412253902e-05,1.648502180e-04,-9.935596371e-04,-2.125835280e-04,-1.206143165e-03,-9.923485976e-04,1.399649417e-04,-8.523836559e-04,-1.257849021e-03,-1.063683085e-04,-1.364217329e-03,-1.353258935e-03,4.208286114e-05,-1.311176074e-03,-2.665598151e-03,-3.068291881e-05,-2.696281070e-03,-1.528320486e-03,2.340479238e-05,-1.504915694e-03,-1.784710541e-03,-1.183908036e-03,-2.968618577e-03,-2.037124354e-03,-1.098631651e-03,-3.135756005e-03,-3.357544439e-03,-2.243136616e-04,-3.581858101e-03,-1.704781094e-03,6.658111589e-04,-1.038969936e-03,-1.841774927e-03,-1.384777858e-03,-3.226552785e-03,-1.112449705e-04,-1.272059706e-03,-1.383304677e-03
-8.2,5.701615515e-04,9.453486853e-05,6.646964201e-04,7.639417527e-04,-5.132199849e-05,7.126197542e-04,-4.830317536e-04,3.392085762e-05,-4.491108959e-04,3.970310277e-05,-3.253757372e-05,7.165529049e-06,-7.484124435e-04,1.494463809e-04,-5.989660625e-04,-2.323521416e-04,2.975087670e-04,6.515662542e-05,-5.579638304e-04,2.965066313e-05,-5.283131672e-04,-1.062431452e-03,2.067163476e-04,-8.557151040e-04,-1.390264940e-03,7.931613795e-05,-1.310948802e-03,-1.553552623e-03,7.410493391e-05,-1.479447689e-03,-1.330197886e-03,5.575812011e-05,-1.274439766e-03,-1.758313786e-03,1.773404900e-04,-1.580973296e-03,-2.317764754e-03,1.165381476e-04,-2.201226607e-03,-6.202842845e-04,2.035146185e-04,-4.167696660e-04,-1.401432141e-03,2.808828400e-05,-1.373343857e-03,-1.312587717e-03,-3.583362922e-06,-1.316171080e-03,-1.941330883e-03,4.302352069e-05,-1.898307363e-03,-2.176111664e-05,4.525576728e-05,2.349465064e-05,-3.691004952e-04,-1.043093420e-04,-4.734098371e-04,-7.440481397e-04,1.229089953e-04,-6.211391444e-04,-7.866449135e-04,-4.033145558e-05,-8.269763691e-04,-6.406707708e-04,1.001975369e-04,-5.404732339e-04,-4.584944313e-04,1.566075959e-04,-3.018868355e-04,3.072033040e-04,-7.420739293e-05,2.329959110e-04,-9.244269138e-04,-2.299062022e-04,-1.154333116e-03,-9.401480038e-04,1.383818351e-04,-8.017661687e-04,-1.210928226e-03,-1.226324162e-04,-1.333560642e-03,-1.300931553e-03,4.235430545e-05,-1.258577248e-03,-2.566627712e-03,-2.482252344e-05,-2.591450235e-03,-1.420422320e-03,2.610664370e-05,-1.394315676e-03,-1.660632550e-03,-1.126067386e-03,-2.786699936e-03,-2.053235852e-03,-9.691288274e-04,-3.022364680e-03,-3.201358751e-03,-2.092088579e-04,-3.410567609e-03,-1.467092521e-03,6.542837025e-04,-8.128088185e-04,-1.482753755e-03,-1.537077887e-03,-3.019831641e-03,1.323208729e-04,-1.274339064e-03,-1.142018192e-03
-8.1,6.468617533e-04,8.022659756e-05,7.270883509e-04,8.557535835e-04,-5.613827416e-05,7.996153094e-04,-4.095078124e-04,2.099817339e-05,-3.885096391e-04,1.196059916e-04,-3.384767572e-05,8.575831587e-05,-6.672515468e-04,1.332024401e-04,-5.340491066e-04,-1.423871495e-04,2.723264177e-04,1.299392683e-04,-4.924240967e-04,2.756262714e-05,-4.648614695e-04,-9.985840376e-04,2.033148762e-04,-7.952691614e-04,-1.357887994e-03,6.586168909e-05,-1.292026304e-03,-1.522221158e-03,5.525370081e-05,-1.466967457e-03,-1.284339679e-03,3.494502862e-05,-1.249394651e-03,-1.646417535e-03,1.711951379e-04,-1.475222397e-03,-2.212724628e-03,1.080398129e-04,-2.104684815e-03,-5.689213530e-04,1.953870993e-04,-3.735342537e-04,-1.333957131e-03,2.097156443e-05,-1.312985566e-03,-1.197533300e-03,-5.015356490e-06,-1.202548656e-03,-1.809905081e-03,5.207720387e-05,-1.757827877e-03,9.731215715e-05,5.037188597e-05,1.476840431e-04,-2.204999764e-04,-9.349067616e-05,-3.139906526e-04,-6.759590784e-04,1.259809860e-04,-5.499780924e-04,-6.825878276e-04,-4.049504604e-05,-7.230828736e-04,-5.613026132e-04,1.266059954e-04,-4.346966178e-04,-3.764668904e-04,1.433976578e-04,-2.330692326e-04,4.037710372e-04,-1.044776513e-04,2.992933859e-04,-8.549150716e-04,-2.461039615e-04,-1.101019033e-03,-8.876477148e-04,1.363013573e-04,-7.513463575e-04,-1.166055844e-03,-1.378380997e-04,-1.303893944e-03,-1.248621840e-03,4.304589659e-05,-1.205575943e-03,-2.466817096e-03,-1.905034016e-05,-2.485867436e-03,-1.312581203e-03,2.846286403e-05,-1.284118339e-03,-1.549439485e-03,-1.057895079e-03,-2.607334564e-03,-2.064102317e-03,-8.432974132e-04,-2.907399730e-03,-3.044651907e-03,-1.929313603e-04,-3.237583268e-03,-1.230301691e-03,6.377865528e-04,-5.925151382e-04,-1.119531937e-03,-1.688214157e-03,-2.807746094e-03,3.795020140e-04,-1.263832427e-03,-8.843304133e-04
-8,7.216460565e-04,6.580578001e-05,7.874518365e-04,9.437350644e-04,-6.123408057e-05,8.825009838e-04,-3.363581019e-04,8.193341420e-06,-3.281647605e-04,1.964940538e-04,-3.522867479e-05,1.612653790e-04,-5.874653435e-04,1.168923491e-04,-4.705729944e-04,-5.145018644e-05,2.454692775e-04,1.940190911e-04,-4.279186669e-04,2.557903007e-05,-4.023396368e-04,-9.339818125e-04,1.992167328e-04,-7.347650798e-04,-1.323787061e-03,5.249180369e-05,-1.271295257e-03,-1.488795119e-03,3.659050921e-05,-1.452204610e-03,-1.236686932e-03,1.456847809e-05,-1.222118453e-03,-1.534151692e-03,1.644146514e-04,-1.369737041e-03,-2.106841270e-03,9.941930844e-05,-2.007421962e-03,-5.185405886e-04,1.871988725e-04,-3.313417160e-04,-1.265917401e-03,1.423053442e-05,-1.251686866e-03,-1.082345735e-03,-6.196047738e-06,-1.088541782e-03,-1.677991134e-03,6.125903294e-05,-1.616732101e-03,2.163438462e-04,5.530605768e-05,2.716499039e-04,-7.178703975e-05,-8.260906531e-05,-1.543961051e-04,-6.078772449e-04,1.279919567e-04,-4.798852882e-04,-5.788814560e-04,-4.054953866e-05,-6.194309946e-04,-4.821799959e-04,1.538258390e-04,-3.283541569e-04,-2.955379410e-04,1.300091225e-04,-1.655288185e-04,4.981820581e-04,-1.346405249e-04,3.635415332e-04,-7.852446081e-04,-2.612689997e-04,-1.046513608e-03,-8.349384748e-04,1.336902844e-04,-7.012481904e-04,-1.123272878e-03,-1.517963190e-04,-1.275069197e-03,-1.196407742e-03,4.404555354e-05,-1.152362189e-03,-2.366464753e-03,-1.337834816e-05,-2.379843102e-03,-1.205079998e-03,3.049602582e-05,-1.174583973e-03,-1.451435142e-03,-9.798312196e-04,-2.431266361e-03,-2.068525875e-03,-7.218840607e-04,-2.790409936e-03,-2.887733229e-03,-1.755868194e-04,-3.063320049e-03,-9.949053636e-04,6.158842879e-04,-3.790210756e-04,-7.547104586e-04,-1.835561479e-03,-2.590271937e-03,6.288261553e-04,-1.240383617e-03,-6.115574617e-04
-7.9,7.941474854e-04,5.133059014e-05,8.454780755e-04,1.027276856e-03,-6.652777970e-05,9.607490759e-04,-2.639031100e-04,-4.437153122e-06,-2.683402631e-04,2.699500344e-04,-3.667238766e-05,2.332776468e-04,-5.093435348e-04,1.005654606e-04,-4.087780742e-04,3.973442355e-05,2.171911578e-04,2.569255813e-04,-3.647185178e-04,2.364437647e-05,-3.410741413e-04,-8.689228354e-04,1.944117783e-04,-6.745110570e-04,-1.288040001e-03,3.926487518e-05,-1.248775126e-03,-1.453375414e-03,1.822104036e-05,-1.435154374e-03,-1.187391373e-03,-5.292735764e-06,-1.192684109e-03,-1.421782220e-03,1.569855490e-04,-1.264796671e-03,-2.000271758e-03,9.071716184e-05,-1.909554596e-03,-4.692935219e-04,1.789581635e-04,-2.903353583e-04,-1.197492820e-03,7.881381807e-06,-1.189611438e-03,-9.673690304e-04,-7.105919371e-06,-9.744749497e-04,-1.545732680e-03,7.046490700e-05,-1.475267773e-03,3.348877138e-04,6.000505893e-05,3.948927727e-04,7.652393999e-05,-7.163654394e-05,4.887396050e-06,-5.400795965e-04,1.288833524e-04,-4.111962442e-04,-4.759368828e-04,-4.052122465e-05,-5.164581075e-04,-4.034448871e-04,1.816222100e-04,-2.218226771e-04,-2.159726385e-04,1.164855352e-04,-9.948710334e-05,5.899425669e-04,-1.643996522e-04,4.255429147e-04,-7.156567043e-04,-2.754760468e-04,-9.911327512e-04,-7.821145032e-04,1.305210454e-04,-6.515934578e-04,-1.082576160e-03,-1.643298877e-04,-1.246906048e-03,-1.144359821e-03,4.524121288e-05,-1.099118608e-03,-2.265852175e-03,-7.825904771e-06,-2.273678080e-03,-1.098192037e-03,3.223461503e-05,-1.065957422e-03,-1.366665444e-03,-8.925396999e-04,-2.259205144e-03,-2.065328278e-03,-6.056018538e-04,-2.670930132e-03,-2.730917642e-03,-1.572742116e-04,-2.888191853e-03,-7.613098067e-04,5.882645893e-04,-1.730452174e-04,-3.910196828e-04,-1.976485353e-03,-2.367505035e-03,8.789239457e-04,-1.204131826e-03,-3.252078806e-04
-7.8,8.639936796e-04,3.686489764e-05,9.008585773e-04,1.105783778e-03,-7.192726203e-05,1.033856516e-03,-1.924571462e-04,-1.683655076e-05,-2.092936969e-04,3.395748175e-04,-3.816660221e-05,3.014082153e-04,-4.331643687e-04,8.427294948e-05,-3.488914192e-04,1.304143285e-04,1.877427126e-04,3.181570411e-04,-3.030807971e-04,2.170197388e-05,-2.813788232e-04,-8.036986878e-04,1.888907291e-04,-6.148079587e-04,-1.250728272e-03,2.623710515e-05,-1.224491167e-03,-1.416064423e-03,2.489550534e-07,-1.415815468e-03,-1.136611184e-03,-2.456160573e-05,-1.161172790e-03,-1.309574249e-03,1.489063799e-04,-1.160667869e-03,-1.893152373e-03,8.195856414e-05,-1.811193809e-03,-4.213189018e-04,1.706724639e-04,-2.506464379e-04,-1.128858358e-03,1.932466966e-06,-1.126925891e-03,-8.529463661e-04,-7.732045658e-06,-8.606784117e-04,-1.413260116e-03,7.958338196e-05,-1.333676734e-03,4.524814248e-04,6.441730564e-05,5.168987304e-04,2.239025589e-04,-6.054509258e-05,1.633574663e-04,-4.728385938e-04,1.286182635e-04,-3.442203303e-04,-3.741581900e-04,-4.043600512e-05,-4.145941951e-04,-3.252504105e-04,2.097595548e-04,-1.154908557e-04,-1.380250274e-04,1.028734585e-04,-3.515156889e-05,6.785684105e-04,-1.934611865e-04,4.851072240e-04,-6.464168607e-04,-2.887747906e-04,-9.351916513e-04,-7.292732129e-04,1.267730635e-04,-6.025001494e-04,-1.043918732e-03,-1.752842398e-04,-1.219202972e-03,-1.092541112e-03,4.652245385e-05,-1.046018658e-03,-2.165239431e-03,-2.419398053e-06,-2.167658829e-03,-9.921747601e-04,3.371219375e-05,-9.584625663e-04,-1.294920429e-03,-7.969064713e-04,-2.091826901e-03,-2.053352613e-03,-4.951193426e-04,-2.548471955e-03,-2.574519982e-03,-1.380846173e-04,-2.712604599e-03,-5.298355564e-04,5.547585397e-04,2.492298335e-05,-3.122453835e-05,-2.108429348e-03,-2.139653886e-03,1.128537082e-03,-1.155490609e-03,-2.695352727e-05
-7.7,9.308124559e-04,2.247753391e-05,9.532899898e-04,1.178685848e-03,-7.733267666e-05,1.101353171e-03,-1.223217865e-04,-2.894832072e-05,-1.512701072e-04,4.049968502e-04,-3.969562753e-05,3.653012227e-04,-3.591859165e-04,6.806732684e-05,-2.911185897e-04,2.198295490e-04,1.573662271e-04,3.771957761e-04,-2.432428424e-04,1.969635967e-05,-2.235464827e-04,-7.385899337e-04,1.826491689e-04,-5.559407648e-04,-1.211930401e-03,1.346226142e-05,-1.198468139e-03,-1.376959435e-03,-1.722549162e-05,-1.394184926e-03,-1.084505133e-03,-4.316310390e-05,-1.127668237e-03,-1.197789522e-03,1.401890068e-04,-1.057600515e-03,-1.785602462e-03,7.315425240e-05,-1.712448209e-03,-3.747377574e-04,1.623484241e-04,-2.123893333e-04,-1.060180584e-03,-3.615213049e-06,-1.063795797e-03,-7.394140443e-04,-8.068664626e-06,-7.474827089e-04,-1.280688362e-03,8.849685355e-05,-1.192191508e-03,5.686524732e-04,6.849402901e-05,6.371465022e-04,3.698096862e-04,-4.931008517e-05,3.204996010e-04,-4.064146316e-04,1.271839574e-04,-2.792306742e-04,-2.739333730e-04,-4.031910039e-05,-3.142524734e-04,-2.477564574e-04,2.380045772e-04,-9.751880235e-06,-6.193017686e-05,8.922247806e-05,2.729230119e-05,7.635962334e-04,-2.215397677e-04,5.420564657e-04,-5.778135048e-04,-3.011841684e-04,-8.789976732e-04,-6.765117399e-04,1.224340100e-04,-5.540777299e-04,-1.007207968e-03,-1.845367355e-04,-1.191744703e-03,-1.041002977e-03,4.778173266e-05,-9.932212445e-04,-2.064857706e-03,2.808928883e-06,-2.062048777e-03,-8.872609971e-04,3.496638552e-05,-8.522946116e-04,-1.235737507e-03,-6.940280721e-04,-1.929765579e-03,-2.031475627e-03,-3.910386422e-04,-2.422514269e-03,-2.418845689e-03,-1.181013998e-04,-2.536947089e-03,-3.007233802e-04,5.153533454e-04,2.146299652e-04,3.219673827e-04,-2.229014175e-03,-1.907046792e-03,1.376522320e-03,-1.095122662e-03,2.813996578e-04
-7.6,9.942387814e-04,8.241342431e-06,1.002480124e-03,1.245451215e-03,-8.263921044e-05,1.162812005e-03,-5.377845912e-05,-4.071674621e-05,-9.449520534e-05,4.658830363e-04,-4.124082550e-05,4.246422108e-04,-2.876357441e-04,5.200186788e-05,-2.356338763e-04,3.072349042e-04,1.262892614e-04,4.335241656e-04,-1.854148698e-04,1.757588769e-05,-1.678389821e-04,-6.738604218e-04,1.756904119e-04,-4.981700099e-04,-1.171715317e-03,9.912626726e-07,-1.170724054e-03,-1.336145585e-03,-3.410740976e-05,-1.370252995e-03,-1.031226505e-03,-6.102473195e-05,-1.092251237e-03,-1.086682777e-03,1.308590672e-04,-9.558237095e-04,-1.677726784e-03,6.430305929e-05,-1.613423725e-03,-3.296484484e-04,1.539917640e-04,-1.756566843e-04,-9.916143179e-04,-8.766703131e-06,-1.000381021e-03,-6.270938981e-04,-8.117702369e-06,-6.352116005e-04,-1.148113716e-03,9.708307948e-05,-1.051030637e-03,6.829256763e-04,7.219059844e-05,7.551162747e-04,5.137060359e-04,-3.791262697e-05,4.757934090e-04,-3.410468249e-04,1.245919185e-04,-2.164549063e-04,-1.756248879e-04,-4.019479018e-05,-2.158196781e-04,-1.711240399e-04,2.661275399e-04,9.500350001e-05,1.210286150e-05,7.558486918e-05,8.768773068e-05,8.445926213e-04,-2.483628783e-04,5.962297430e-04,-5.101525891e-04,-3.126883614e-04,-8.228409505e-04,-6.239219038e-04,1.175009236e-04,-5.064209802e-04,-9.723043087e-04,-1.920014381e-04,-1.164305747e-03,-9.897784263e-04,4.891522144e-05,-9.408632048e-04,-1.964901964e-03,7.822996586e-06,-1.957078968e-03,-7.836513250e-04,3.603786784e-05,-7.476134571e-04,-1.188412839e-03,-5.851854790e-04,-1.773598318e-03,-1.998640034e-03,-2.938625555e-04,-2.292502589e-03,-2.264180162e-03,-9.740067340e-05,-2.361580836e-03,-7.414577325e-05,4.701982426e-04,3.960524693e-04,6.659760997e-04,-2.336131720e-03,-1.670155620e-03,1.621848564e-03,-1.023907963e-03,5.979406001e-04
-7.5,1.053921344e-03,-5.767709449e-06,1.048153635e-03,1.305597694e-03,-8.773978077e-05,1.217857913e-03,1.291750018e-05,-5.208769064e-05,-3.917019046e-05,5.219477685e-04,-4.278113900e-05,4.791666295e-04,-2.187030099e-04,3.612990086e-05,-1.825731091e-04,3.919205119e-04,9.471824546e-05,4.866387574e-04,-1.297742090e-04,1.529501964e-05,-1.144791893e-04,-6.097524048e-04,1.680271037e-04,-4.417253011e-04,-1.130139123e-03,-1.112844821e-05,-1.141267571e-03,-1.293691908e-03,-5.030974364e-05,-1.344001652e-03,-9.769195017e-04,-7.807759235e-05,-1.054997094e-03,-9.764986271e-04,1.209552963e-04,-8.555433308e-04,-1.569616530e-03,5.539518719e-05,-1.514221343e-03,-2.861236179e-04,1.456071998e-04,-1.405164181e-04,-9.233010082e-04,-1.353119149e-05,-9.368321996e-04,-5.162865002e-04,-7.888811315e-06,-5.241753115e-04,-1.015611578e-03,1.052170615e-04,-9.103945166e-04,7.948306525e-04,7.546754271e-05,8.702981953e-04,6.550596741e-04,-2.634045415e-05,6.287192200e-04,-2.769454877e-04,1.208762526e-04,-1.560692351e-04,-7.956301729e-05,-4.008600854e-05,-1.196490258e-04,-9.551192131e-05,2.939032083e-04,1.983912870e-04,8.389425561e-05,6.201484531e-05,1.459091009e-04,9.211588863e-04,-2.736731334e-04,6.474857529e-04,-4.437500659e-04,-3.232352403e-04,-7.669853063e-04,-5.715861646e-04,1.119810928e-04,-4.596050718e-04,-9.390239027e-04,-1.976278801e-04,-1.136651783e-03,-9.388762286e-04,4.982363541e-05,-8.890525932e-04,-1.865527289e-03,1.258565561e-05,-1.852941634e-03,-6.815107529e-04,3.696963758e-05,-6.445411153e-04,-1.152028206e-03,-4.718006289e-04,-1.623828835e-03,-1.953906438e-03,-2.039585950e-04,-2.157865033e-03,-2.110779101e-03,-7.605244625e-05,-2.186831547e-03,1.497731589e-04,4.196045812e-04,5.693777401e-04,9.983900012e-04,-2.428018677e-03,-1.429628676e-03,1.863581342e-03,-9.429021732e-04,9.206791685e-04
-7.4,1.109527315e-03,-1.947136030e-05,1.090055955e-03,1.358700260e-03,-9.252771694e-05,1.266172543e-03,7.753989296e-05,-6.300956353e-05,1.453032944e-05,5.729578559e-04,-4.429362606e-05,5.286642298e-04,-1.525356505e-04,2.050395652e-05,-1.320316940e-04,4.732270265e-04,6.283439128e-05,5.360614178e-04,-7.646315505e-05,1.281608663e-05,-6.364706842e-05,-5.464841040e-04,1.596823127e-04,-3.868017913e-04,-1.087246767e-03,-2.285355704e-05,-1.110100325e-03,-1.249652313e-03,-6.575574946e-05,-1.315408063e-03,-9.217192724e-04,-9.425777365e-05,-1.015977046e-03,-8.674700578e-04,1.105280699e-04,-7.569419879e-04,-1.461350332e-03,4.641522505e-05,-1.414935107e-03,-2.442099691e-04,1.371984547e-04,-1.070115144e-04,-8.553693609e-04,-1.792010015e-05,-8.732894611e-04,-4.072665666e-04,-7.399034315e-06,-4.146656009e-04,-8.832367420e-04,1.127735149e-04,-7.704632270e-04,9.039080153e-04,7.829084056e-05,9.821988558e-04,7.933509561e-04,-1.458765891e-05,7.787632972e-04,-2.142888018e-04,1.160917493e-04,-9.819705254e-05,1.395623805e-05,-4.001362482e-05,-2.605738677e-05,-2.107677146e-05,3.211125407e-04,3.000357692e-04,1.532918683e-04,4.856742759e-05,2.018592958e-04,9.929314815e-04,-2.972292225e-04,6.957022590e-04,-3.789240506e-04,-3.327378545e-04,-7.116619051e-04,-5.195763617e-04,1.058925937e-04,-4.136837680e-04,-9.071455621e-04,-2.013957210e-04,-1.108541283e-03,-8.882787885e-04,5.041345082e-05,-8.378653377e-04,-1.766850353e-03,1.706166678e-05,-1.749788686e-03,-5.809709063e-04,3.780653250e-05,-5.431643738e-04,-1.125492106e-03,-3.553815708e-04,-1.480873677e-03,-1.896514490e-03,-1.215304134e-04,-2.018044903e-03,-1.958861499e-03,-5.412306140e-05,-2.012984561e-03,3.709308758e-04,3.640404193e-04,7.349712950e-04,1.316984764e-03,-2.503301265e-03,-1.186316501e-03,2.100853420e-03,-8.532875364e-04,1.247565884e-03
-7.3,1.160744882e-03,-3.278998317e-05,1.127954899e-03,1.404393723e-03,-9.689944764e-05,1.307494275e-03,1.398915768e-04,-7.343435286e-05,6.645722397e-05,6.187328009e-04,-4.575398436e-05,5.729788165e-04,-8.924301053e-05,5.174879737e-06,-8.406813079e-05,5.505551040e-04,3.079268390e-05,5.813477879e-04,-2.559098010e-05,1.011059917e-05,-1.548038093e-05,-4.842505308e-04,1.506911218e-04,-3.335594090e-04,-1.043077695e-03,-3.414527740e-05,-1.077222972e-03,-1.204070801e-03,-8.038086871e-05,-1.284451670e-03,-8.657549373e-04,-1.095076350e-04,-9.752625723e-04,-7.598187572e-04,9.963786379e-05,-6.601808934e-04,-1.352996619e-03,3.734428611e-05,-1.315652333e-03,-2.039306687e-04,1.287684128e-04,-7.516225595e-05,-7.879377139e-04,-2.194569126e-05,-8.098834052e-04,-3.002805340e-04,-6.672508008e-06,-3.069530420e-04,-7.510272559e-04,1.196303526e-04,-6.313969033e-04,1.009713525e-03,8.063154748e-05,1.090345072e-03,9.280749112e-04,-2.653947542e-06,9.254209637e-04,-1.532240937e-04,1.103120220e-04,-4.291207176e-05,1.046689292e-04,-3.999551747e-05,6.467341171e-05,5.202488670e-05,3.475446557e-04,3.995695424e-04,2.201658989e-04,3.529707199e-05,2.554629709e-04,1.059579348e-03,-3.188065513e-04,7.407727968e-04,-3.159877884e-04,-3.410788687e-04,-6.570666571e-04,-4.679555349e-04,9.926441416e-05,-3.686911207e-04,-8.764207675e-04,-2.033083303e-04,-1.079729098e-03,-8.379444660e-04,5.059842321e-05,-7.873460428e-04,-1.668955370e-03,2.122047239e-05,-1.647734897e-03,-4.821367905e-04,3.859470659e-05,-4.435420839e-04,-1.107585872e-03,-2.374683513e-04,-1.345054224e-03,-1.825940769e-03,-4.660079368e-05,-1.872541563e-03,-1.808606280e-03,-3.167862998e-05,-1.840284910e-03,5.892157753e-04,3.041204090e-04,8.933361842e-04,1.619732493e-03,-2.561009843e-03,-9.412773498e-04,2.332827151e-03,-7.563227840e-04,1.576504367e-03
-7.2,1.207283865e-03,-4.564364074e-05,1.161640224e-03,1.442371537e-03,-1.007570090e-04,1.341614528e-03,1.998018898e-04,-8.331850212e-05,1.164833877e-04,6.591412517e-04,-4.713707050e-05,6.120041812e-04,-2.890244017e-05,-9.808948415e-06,-3.871138858e-05,6.233712641e-04,-1.277881691e-06,6.220933824e-04,2.276082564e-05,7.160189239e-06,2.992101488e-05,-4.232271935e-04,1.411029322e-04,-2.821242612e-04,-9.976731974e-04,-4.496932652e-05,-1.042642524e-03,-1.156988625e-03,-9.413369089e-05,-1.251122316e-03,-8.091538954e-04,-1.237766504e-04,-9.329305458e-04,-6.537566267e-04,8.835403573e-05,-5.654025910e-04,-1.244617621e-03,2.816114462e-05,-1.216456476e-03,-1.652893883e-04,1.203193752e-04,-4.497001305e-05,-7.211171958e-04,-2.562037390e-05,-7.467375697e-04,-1.955457910e-04,-5.740170037e-06,-2.012859610e-04,-6.190114545e-04,1.256732446e-04,-4.933382099e-04,1.111819817e-03,8.246542742e-05,1.194285245e-03,1.058742053e-03,9.455878641e-06,1.068197932e-03,-9.387234342e-05,1.036273280e-04,9.754984629e-06,1.923381151e-04,-4.004575894e-05,1.522923561e-04,1.236355202e-04,3.729974622e-04,4.966329824e-04,2.844015748e-04,2.225631736e-05,3.066578922e-04,1.120800306e-03,-3.381986236e-04,7.826016819e-04,-2.552437060e-04,-3.481173468e-04,-6.033610528e-04,-4.167819284e-04,9.213610430e-05,-3.246458241e-04,-8.465868879e-04,-2.033861980e-04,-1.049973086e-03,-7.878128442e-04,5.030086858e-05,-7.375119757e-04,-1.571902941e-03,2.503896770e-05,-1.546863974e-03,-3.850959191e-04,3.938078425e-05,-3.457151349e-04,-1.097004832e-03,-1.195893626e-04,-1.216594194e-03,-1.741943392e-03,2.099494193e-05,-1.720948450e-03,-1.660152580e-03,-8.788750085e-06,-1.668941330e-03,8.044754699e-04,2.405912964e-04,1.045066766e-03,1.904804619e-03,-2.600561886e-03,-6.957572664e-04,2.558656145e-03,-6.532965989e-04,1.905359546e-03
-7.1,1.248875172e-03,-5.795317273e-05,1.190921999e-03,1.472383033e-03,-1.040102565e-04,1.368372777e-03,2.571229089e-04,-9.262347670e-05,1.644994322e-04,6.940955779e-04,-4.841744530e-05,6.456781326e-04,2.843281883e-05,-2.440218701e-05,4.030631819e-06,6.912123756e-04,-3.327480489e-05,6.579375707e-04,6.853228948e-05,3.957027800e-06,7.248931728e-05,-3.635745504e-04,1.309832542e-04,-2.325912962e-04,-9.510827934e-04,-5.529552618e-05,-1.006378320e-03,-1.108450640e-03,-1.069760865e-04,-1.215426727e-03,-7.520453786e-04,-1.370216962e-04,-8.890670748e-04,-5.494871892e-04,7.675367756e-05,-4.727335116e-04,-1.136274424e-03,1.884281308e-05,-1.117431611e-03,-1.282744638e-04,1.118533057e-04,-1.642115805e-05,-6.550144668e-04,-2.895652910e-05,-6.839709959e-04,-9.325112223e-05,-4.638985465e-06,-9.789010770e-05,-4.872165126e-04,1.308006612e-04,-3.564158514e-04,1.209816166e-03,8.377317481e-05,1.293589341e-03,1.184878837e-03,2.173191536e-05,1.206610753e-03,-3.633338509e-05,9.614166269e-05,5.980827760e-05,2.767483061e-04,-4.017410680e-05,2.365741993e-04,1.935977666e-04,3.972757887e-04,5.908735553e-04,3.458923371e-04,9.494789215e-06,3.553871263e-04,1.176319029e-03,-3.552197498e-04,8.210992797e-04,-1.969783412e-04,-3.536967531e-04,-5.506750942e-04,-3.661135474e-04,8.455692641e-05,-2.815566210e-04,-8.173839754e-04,-2.016599521e-04,-1.019043928e-03,-7.378108189e-04,4.945224548e-05,-6.883585734e-04,-1.475739396e-03,2.850444335e-05,-1.447234953e-03,-2.899267175e-04,4.021061467e-05,-2.497161028e-04,-1.092390726e-03,-3.228514613e-06,-1.095619241e-03,-1.644586809e-03,8.160572344e-05,-1.562981086e-03,-1.513602472e-03,1.446964624e-05,-1.499132825e-03,1.016488132e-03,1.743110949e-04,1.190799226e-03,2.170561797e-03,-2.621708212e-03,-4.511464150e-04,2.777455472e-03,-5.454871929e-04,2.231968279e-03
-7,1.285270291e-03,-6.964132117e-05,1.215628970e-03,1.494231855e-03,-1.065788817e-04,1.387652974e-03,3.117263696e-04,-1.013160212e-04,2.104103484e-04,7.235472784e-04,-4.956998182e-05,6.739772966e-04,8.272763256e-05,-3.856291583e-05,4.416471672e-05,7.536897386e-04,-6.512303951e-05,6.885666991e-04,1.116804541e-04,5.035233179e-07,1.121839774e-04,-3.054400786e-04,1.204134376e-04,-1.850266410e-04,-9.033672020e-04,-6.509721460e-05,-9.684644166e-04,-1.058508488e-03,-1.188827216e-04,-1.177391210e-03,-6.945614507e-04,-1.492068566e-04,-8.437683073e-04,-4.472054749e-04,6.491993712e-05,-3.822855377e-04,-1.028032040e-03,9.365202358e-06,-1.018666838e-03,-9.286156768e-05,1.033719983e-04,1.051043064e-05,-5.897327875e-04,-3.196650839e-05,-6.216992959e-04,6.442422945e-06,-3.410495892e-06,3.031927053e-06,-3.556763563e-04,1.349284792e-04,-2.207478771e-04,1.303307848e-03,8.454113578e-05,1.387848983e-03,1.306029007e-03,3.415869243e-05,1.340187700e-03,1.931129502e-05,8.796900657e-05,1.072803016e-04,3.577019214e-04,-4.038571647e-05,3.173162049e-04,2.617583211e-04,4.201875717e-04,6.819458928e-04,4.045360697e-04,-2.941228032e-06,4.015948416e-04,1.225888684e-03,-3.697088784e-04,8.561798059e-04,-1.414576740e-04,-3.576527022e-04,-4.991103762e-04,-3.160113569e-04,7.658455786e-05,-2.394267991e-04,-7.885722268e-04,-1.981638329e-04,-9.867360597e-04,-6.878578956e-04,4.799315207e-05,-6.398647436e-04,-1.380503594e-03,3.161732834e-05,-1.348886266e-03,-1.967030227e-04,4.112772426e-05,-1.555752984e-04,-1.092357509e-03,1.102032082e-04,-9.821543005e-04,-1.534245527e-03,1.357520869e-04,-1.398493440e-03,-1.369023858e-03,3.800797881e-05,-1.331015879e-03,1.224942974e-03,1.062195190e-04,1.331162493e-03,2.415530392e-03,-2.624450415e-03,-2.089200231e-04,2.988292911e-03,-4.341347601e-04,2.554158151e-03
-6.9,1.316242166e-03,-8.063401767e-05,1.235608149e-03,1.507777522e-03,-1.083942506e-04,1.399383271e-03,3.635028216e-04,-1.093682154e-04,2.541346062e-04,7.474855698e-04,-5.057052377e-05,6.969150460e-04,1.339633067e-04,-5.225287944e-05,8.171042729e-05,8.104934774e-04,-9.677454588e-05,7.137189316e-04,1.521786827e-04,-3.188618059e-06,1.489900646e-04,-2.489563132e-04,1.094883046e-04,-1.394680086e-04,-8.545966807e-04,-7.435067287e-05,-9.289473536e-04,-1.007219572e-03,-1.298401159e-04,-1.137059688e-03,-6.368346544e-04,-1.603029372e-04,-7.971375917e-04,-3.470956386e-04,5.293964862e-05,-2.941559900e-04,-9.199633655e-04,-2.958234416e-07,-9.202591889e-04,-5.901397585e-05,9.487718426e-05,3.586320841e-05,-5.253706944e-04,-3.466252521e-05,-5.600332196e-04,1.034014648e-04,-2.099096253e-06,1.013023685e-04,-2.244370840e-04,1.379933882e-04,-8.644369585e-05,1.391917015e-03,8.476212211e-05,1.476679137e-03,1.421756964e-03,4.671444730e-05,1.468471411e-03,7.300007964e-05,7.922893632e-05,1.522290160e-04,4.350193958e-04,-4.068089270e-05,3.943385031e-04,3.279741319e-04,4.415399625e-04,7.695140944e-04,4.602357679e-04,-1.500873990e-05,4.452270280e-04,1.269296993e-03,-3.815340891e-04,8.877629042e-04,-8.892198732e-05,-3.598194295e-04,-4.487414168e-04,-2.665395246e-04,6.828345425e-05,-1.982560704e-04,-7.599449471e-04,-1.929305551e-04,-9.528755022e-04,-6.378696505e-04,4.587332886e-05,-5.919963217e-04,-1.286229103e-03,3.439327810e-05,-1.251835825e-03,-1.054932955e-04,4.217169401e-05,-6.332160148e-05,-1.095511334e-03,2.193948595e-04,-8.761164744e-04,-1.411589576e-03,1.841057375e-04,-1.227483838e-03,-1.226451046e-03,6.172132938e-05,-1.164729716e-03,1.429433708e-03,3.730080548e-05,1.466734514e-03,2.638385022e-03,-2.608961936e-03,2.942308578e-05,3.190207670e-03,-3.204359421e-04,2.869771728e-03
-6.8,1.341588094e-03,-9.086183538e-05,1.250726259e-03,1.512940042e-03,-1.094008237e-04,1.403539218e-03,4.123631914e-04,-1.167574366e-04,2.956057548e-04,7.659394841e-04,-5.139649409e-05,7.145429900e-04,1.821403570e-04,-6.543764341e-05,1.167027136e-04,8.613973119e-04,-1.282052153e-04,7.331920966e-04,1.900197238e-04,-7.099666519e-06,1.829200573e-04,-1.942360805e-04,9.831294114e-05,-9.592313935e-05,-8.048458013e-04,-8.303477011e-05,-8.878805714e-04,-9.546428860e-04,-1.398454091e-04,-1.094488295e-03,-5.789932760e-04,-1.702869874e-04,-7.492802634e-04,-2.493270482e-04,4.090083006e-05,-2.084262181e-04,-8.121514753e-04,-1.016292530e-05,-8.223144006e-04,-2.668097190e-05,8.637060419e-05,5.968963229e-05,-4.620188272e-04,-3.705634745e-05,-4.990751747e-04,1.975216114e-04,-7.504832763e-07,1.967711281e-04,-9.355900791e-05,1.399546281e-04,4.639562023e-05,1.475285848e-03,8.443623393e-05,1.559722082e-03,1.531653539e-03,5.937027348e-05,1.591023813e-03,1.246957697e-04,7.004225591e-05,1.947380256e-04,5.085423801e-04,-4.105484056e-05,4.674875395e-04,3.921195517e-04,4.611369726e-04,8.532565244e-04,5.129035107e-04,-2.666785845e-05,4.862356523e-04,1.306375213e-03,-3.905971826e-04,9.157780309e-04,-3.957952343e-05,-3.600349397e-04,-3.996144631e-04,-2.177622900e-04,5.972290791e-05,-1.580393821e-04,-7.313334373e-04,-1.859880188e-04,-9.173214561e-04,-5.877588791e-04,4.305198259e-05,-5.447068965e-04,-1.192942128e-03,3.686418481e-05,-1.156077943e-03,-1.635639884e-05,4.337672829e-05,2.702032945e-05,-1.100464214e-03,3.231587488e-04,-7.773054655e-04,-1.277556129e-03,2.274618305e-04,-1.050094298e-03,-1.085882540e-03,8.548461649e-05,-1.000397923e-03,1.629463403e-03,-3.145663435e-05,1.598006769e-03,2.837959577e-03,-2.575545091e-03,2.624144864e-04,3.382246331e-03,-2.055592996e-04,3.176687032e-03
-6.7,1.361133945e-03,-1.002614071e-04,1.260872538e-03,1.509705493e-03,-1.095570095e-04,1.400148484e-03,4.582412070e-04,-1.234662844e-04,3.347749226e-04,7.789813326e-04,-5.202734731e-05,7.269539853e-04,2.272830312e-04,-7.808668502e-05,1.491963462e-04,9.062614956e-04,-1.594093519e-04,7.468521437e-04,2.252201420e-04,-1.120317983e-05,2.140169621e-04,-1.413674616e-04,8.699927048e-05,-5.436819116e-05,-7.541878374e-04,-9.113101478e-05,-8.453188522e-04,-9.008347206e-04,-1.489050507e-04,-1.049739771e-03,-5.211566685e-04,-1.791421880e-04,-7.002988564e-04,-1.540508460e-04,2.889081768e-05,-1.251600284e-04,-7.046909016e-04,-2.025508635e-05,-7.249459880e-04,4.203848616e-06,7.785401211e-05,8.205786073e-05,-3.997565892e-04,-3.915887866e-05,-4.389154679e-04,2.887293553e-04,5.896621688e-07,2.893190175e-04,3.688411291e-05,1.407938863e-04,1.776779992e-04,1.553080932e-03,8.357181927e-05,1.636652751e-03,1.635342929e-03,7.208934718e-05,1.707432276e-03,1.743893310e-04,6.052746136e-05,2.349167923e-04,5.781374889e-04,-4.149751027e-05,5.366399787e-04,4.540921346e-04,4.787794434e-04,9.328715779e-04,5.624646114e-04,-3.788180424e-05,5.245828072e-04,1.337006030e-03,-3.968369874e-04,9.401690422e-04,6.400725237e-06,-3.581457368e-04,-3.517450116e-04,-1.697388664e-04,5.097479923e-05,-1.187640671e-04,-7.026039068e-04,-1.773588948e-04,-8.799628016e-04,-5.374350552e-04,3.949800762e-05,-4.979370476e-04,-1.100657544e-03,3.907755115e-05,-1.061579993e-03,7.066231868e-05,4.477053796e-05,1.154328566e-04,-1.105846360e-03,4.204494116e-04,-6.853969489e-04,-1.133313581e-03,2.667027585e-04,-8.666108225e-04,-9.472788074e-04,1.091514124e-04,-8.381273950e-04,1.824455305e-03,-9.909998486e-05,1.725355320e-03,3.013285968e-03,-2.524624754e-03,4.886612135e-04,3.563496073e-03,-9.066772113e-05,3.472828351e-03
-6.6,1.374738063e-03,-1.087765991e-04,1.265961464e-03,1.498129927e-03,-1.088356564e-04,1.389294270e-03,5.010946179e-04,-1.294825002e-04,3.716121177e-04,7.867285951e-04,-5.244485782e-05,7.342837373e-04,2.694419328e-04,-9.017344874e-05,1.792684840e-04,9.450307417e-04,-1.903927272e-04,7.546380145e-04,2.578229188e-04,-1.546715619e-05,2.423557626e-04,-9.041047574e-05,7.566211466e-05,-1.474836107e-05,-7.026919675e-04,-9.862404177e-05,-8.013160092e-04,-8.458473348e-04,-1.570335288e-04,-1.002880864e-03,-4.634329716e-04,-1.868582883e-04,-6.502912599e-04,-6.139865503e-05,1.699528337e-05,-4.440337166e-05,-5.976890141e-04,-3.058465025e-05,-6.282736643e-04,3.372263173e-05,6.932909006e-05,1.030517218e-04,-3.386503017e-04,-4.097975123e-05,-3.796300529e-04,3.769831350e-04,1.876780880e-06,3.788599159e-04,1.668066275e-04,1.405137942e-04,3.073204216e-04,1.624996922e-03,8.218646416e-05,1.707183387e-03,1.732488386e-03,8.482666738e-05,1.817315054e-03,2.220995836e-04,5.079841116e-05,2.728979947e-04,6.436979439e-04,-4.199355089e-05,6.017043930e-04,5.138147204e-04,4.942676593e-04,1.008082380e-03,6.088591982e-04,-4.861716028e-05,5.602420379e-04,1.361126213e-03,-4.002293475e-04,9.608968660e-04,4.889581945e-05,-3.540124666e-04,-3.051166471e-04,-1.225189394e-04,4.211124223e-05,-8.040769713e-05,-6.736499034e-04,-1.670635807e-04,-8.407134840e-04,-4.868036924e-04,3.518949342e-05,-4.516141990e-04,-1.009375669e-03,4.109409666e-05,-9.682815719e-04,1.555318427e-04,4.637347080e-05,2.019053135e-04,-1.110325496e-03,5.103816535e-04,-5.999438428e-04,-9.802252566e-04,3.027549273e-04,-6.774703294e-04,-8.105636841e-04,1.325561638e-04,-6.780075203e-04,2.013763681e-03,-1.647480536e-04,1.849015627e-03,3.163640580e-03,-2.456755025e-03,7.068855550e-04,3.733100452e-03,2.306792177e-05,3.756168374e-03
-6.5,1.382293547e-03,-1.163593820e-04,1.265934166e-03,1.478339846e-03,-1.072244214e-04,1.371115425e-03,5.409040060e-04,-1.347989118e-04,4.061050941e-04,7.893424098e-04,-5.263329410e-05,7.367091157e-04,3.086925055e-04,-1.016754144e-04,2.070170911e-04,9.777261342e-04,-2.211653135e-04,7.565608207e-04,2.878962745e-04,-1.985497594e-05,2.680412986e-04,-4.139704661e-05,6.441533659e-05,2.301828998e-05,-6.504245483e-04,-1.055023026e-04,-7.559268509e-04,-7.897317807e-04,-1.642520375e-04,-9.539838182e-04,-4.059200923e-04,-1.934323994e-04,-5.993524917e-04,2.851655598e-05,5.297531304e-06,3.381408729e-05,-4.912677496e-04,-4.115435449e-05,-5.324221041e-04,6.197086875e-05,6.079736335e-05,1.227682321e-04,-2.787535944e-04,-4.252698012e-05,-3.212805745e-04,4.622724786e-04,3.068222088e-06,4.653407006e-04,2.961110973e-04,1.391360207e-04,4.352471180e-04,1.690758057e-03,8.030770523e-05,1.771065762e-03,1.822794810e-03,9.752973039e-05,1.920324541e-03,2.678681888e-04,4.096285008e-05,3.088310389e-04,7.051418402e-04,-4.252227335e-05,6.626195669e-04,5.712323634e-04,5.074065884e-04,1.078638952e-03,6.520403738e-04,-5.884426928e-05,5.931961045e-04,1.378722605e-03,-4.007829298e-04,9.779396753e-04,8.783378654e-05,-3.475170320e-04,-2.596832454e-04,-7.614084052e-05,3.320256404e-05,-4.293827648e-05,-6.443845772e-04,-1.551249745e-04,-7.995095517e-04,-4.357671517e-04,3.011259652e-05,-4.056545552e-04,-9.190815753e-04,4.298429743e-05,-8.760972779e-04,2.382324311e-04,4.819786376e-05,2.864302948e-04,-1.112635535e-03,5.922477447e-04,-5.203877907e-04,-8.198170970e-04,3.365444646e-04,-4.832726324e-04,-6.756307998e-04,1.555189489e-04,-5.201118509e-04,2.196681986e-03,-2.276194105e-04,1.969062576e-03,3.288583042e-03,-2.372621057e-03,9.159619848e-04,3.890252560e-03,1.344741852e-04,4.024726745e-03
-6.4,1.383728540e-03,-1.229704980e-04,1.260758042e-03,1.450528715e-03,-1.047258430e-04,1.345802872e-03,5.776691454e-04,-1.394133999e-04,4.382557456e-04,7.870223913e-04,-5.257950674e-05,7.344428846e-04,3.451292861e-04,-1.125741788e-04,2.325551073e-04,1.004432390e-03,-2.517340732e-04,7.526983170e-04,3.155286858e-04,-2.432621199e-05,2.912024738e-04,5.664554801e-06,5.336976229e-05,5.903431709e-05,-5.974535608e-04,-1.117585961e-04,-7.092121569e-04,-7.325438095e-04,-1.705868834e-04,-9.031306929e-04,-3.487092555e-04,-1.988696836e-04,-5.475789391e-04,1.155985281e-04,-6.122696780e-06,1.094758313e-04,-3.855649280e-04,-5.195568016e-05,-4.375206082e-04,8.905272943e-05,5.226027433e-05,1.413130038e-04,-2.201097856e-04,-4.380672430e-05,-2.639165099e-04,5.446145978e-04,4.123746329e-06,5.487383442e-04,4.246860282e-04,1.366996571e-04,5.613856854e-04,1.750117252e-03,7.797310181e-05,1.828090354e-03,1.906007942e-03,1.101400624e-04,2.016148004e-03,3.117514300e-04,3.112090304e-05,3.428723330e-04,7.624072900e-04,-4.305765657e-05,7.193496334e-04,6.263042032e-04,5.180133578e-04,1.144317561e-03,6.919697408e-04,-6.853766135e-05,6.234320795e-04,1.389823686e-03,-3.985327994e-04,9.912908864e-04,1.231952192e-04,-3.385701727e-04,-2.153749535e-04,-3.063300764e-05,2.431598881e-05,-6.317018827e-06,-6.147350890e-04,-1.415730237e-04,-7.563081128e-04,-3.842277359e-04,2.426058075e-05,-3.599671552e-04,-8.297472943e-04,4.482461390e-05,-7.849226804e-04,3.187494189e-04,5.024770778e-05,3.689971267e-04,-1.111609774e-03,6.655288769e-04,-4.460808973e-04,-6.537487046e-04,3.689561759e-04,-2.847925287e-04,-5.423541078e-04,1.778513616e-04,-3.645027462e-04,2.372450453e-03,-2.870508001e-04,2.085399653e-03,3.387985722e-03,-2.273035713e-03,1.114950009e-03,4.034167517e-03,2.424043047e-04,4.276571821e-03
-6.3,1.379004925e-03,-1.285800652e-04,1.250424860e-03,1.414949812e-03,-1.013566524e-04,1.313593160e-03,6.114037109e-04,-1.433288044e-04,4.680749064e-04,7.799987180e-04,-5.227296932e-05,7.277257487e-04,3.788574541e-04,-1.228554652e-04,2.560019889e-04,1.025282194e-03,-2.820952595e-04,7.431869348e-04,3.408214028e-04,-2.883736054e-05,3.119840422e-04,5.078138491e-05,4.263347081e-05,9.341485571e-05,-5.438541145e-04,-1.173902007e-04,-6.612443152e-04,-6.743504972e-04,-1.760676097e-04,-8.504181069e-04,-2.918895002e-04,-2.031835528e-04,-4.950730531e-04,1.997654311e-04,-1.719077373e-05,1.825746574e-04,-2.807344370e-04,-6.296897532e-05,-3.437034123e-04,1.150750944e-04,4.371949129e-05,1.587945856e-04,-1.627553218e-04,-4.482326284e-05,-2.075785846e-04,6.240483784e-04,5.006047342e-06,6.290544257e-04,5.524018216e-04,1.332598051e-04,6.856616268e-04,1.802853577e-03,7.522933787e-05,1.878082915e-03,1.981911118e-03,1.225950848e-04,2.104506203e-03,3.538110075e-04,2.136281730e-05,3.751738248e-04,8.154458548e-04,-4.356867268e-05,7.718771821e-04,6.789925371e-04,5.259258786e-04,1.204918416e-03,7.286120226e-04,-7.767640090e-05,6.509356217e-04,1.394491277e-03,-3.935354753e-04,1.000955802e-03,1.550108766e-04,-3.271179263e-04,-1.721070497e-04,1.398198741e-05,1.551507290e-05,2.949706031e-05,-5.846394426e-04,-1.264485848e-04,-7.110880274e-04,-3.320931392e-04,1.763376918e-05,-3.144593700e-04,-7.413354639e-04,4.669343125e-05,-6.946420327e-04,3.970658633e-04,5.251858279e-05,4.495844461e-04,-1.106212499e-03,7.298966830e-04,-3.763158160e-04,-4.837824583e-04,4.007942489e-04,-8.298820939e-05,-4.106010066e-04,1.993626274e-04,-2.112383792e-04,2.540266191e-03,-3.425070733e-04,2.197759118e-03,3.462057405e-03,-2.158938474e-03,1.303118932e-03,4.164043467e-03,3.457885214e-04,4.509831989e-03
-6.2,1.368116167e-03,-1.331681366e-04,1.234948031e-03,1.371906773e-03,-9.714605464e-05,1.274760718e-03,6.421297059e-04,-1.465526671e-04,4.955770388e-04,7.685234259e-04,-5.170586882e-05,7.168175570e-04,4.099842220e-04,-1.325089579e-04,2.774752641e-04,1.040439282e-03,-3.122257562e-04,7.282135263e-04,3.638804175e-04,-3.334242429e-05,3.305379932e-04,9.396642191e-05,3.231290759e-05,1.262793295e-04,-4.897125744e-04,-1.223985981e-04,-6.121111726e-04,-6.152349817e-04,-1.807251238e-04,-7.959601055e-04,-2.355511767e-04,-2.063952604e-04,-4.419464371e-04,2.809474516e-04,-2.783819287e-05,2.531092587e-04,-1.769454895e-04,-7.416425470e-05,-2.511097442e-04,1.401418094e-04,3.517739337e-05,1.753192028e-04,-1.067229342e-04,-4.557926136e-05,-1.523021955e-04,7.006266825e-04,5.681514440e-06,7.063081970e-04,6.791061442e-04,1.288860179e-04,8.079921621e-04,1.848769325e-03,7.213048247e-05,1.920899807e-03,2.050320948e-03,1.348298020e-04,2.185150750e-03,3.941059390e-04,1.176620166e-05,4.058721407e-04,8.642164796e-04,-4.402016490e-05,8.201963147e-04,7.292530614e-04,5.310106211e-04,1.260263683e-03,7.619310059e-04,-8.624417075e-05,6.756868351e-04,1.392816056e-03,-3.858676388e-04,1.006948417e-03,1.833565208e-04,-3.131464826e-04,-1.297899617e-04,5.768248067e-05,6.859644064e-06,6.454212473e-05,-5.540455641e-04,-1.098068948e-04,-6.638524589e-04,-2.792834198e-04,1.024055203e-05,-2.690428678e-04,-6.538021082e-04,4.866650524e-05,-6.051356029e-04,4.731567579e-04,5.499766522e-05,5.281544231e-04,-1.095565432e-03,7.852057284e-04,-3.103597040e-04,-3.117439446e-04,4.327433373e-04,1.209993927e-04,-2.802460424e-04,2.198652968e-04,-6.038074564e-05,2.699295998e-03,-3.935825827e-04,2.305713415e-03,3.511363104e-03,-2.031402197e-03,1.479960907e-03,4.279026730e-03,4.436935599e-04,4.722720290e-03
-6.1,1.351085333e-03,-1.367251704e-04,1.214360163e-03,1.321744157e-03,-9.213318926e-05,1.229610968e-03,6.698732432e-04,-1.490967690e-04,5.207764742e-04,7.528633831e-04,-5.087333110e-05,7.019900520e-04,4.386128850e-04,-1.415279423e-04,2.970849427e-04,1.050082708e-03,-3.420740365e-04,7.080086717e-04,3.848100698e-04,-3.779329454e-05,3.470167752e-04,1.352315071e-04,2.251269747e-05,1.577442046e-04,-4.351272993e-04,-1.267889126e-04,-5.619162119e-04,-5.552972570e-04,-1.845902713e-04,-7.398875283e-04,-1.797868162e-04,-2.085330055e-04,-3.883198217e-04,3.590849224e-04,-3.800262671e-05,3.210822957e-04,-7.438150784e-05,-8.550131649e-05,-1.598828243e-04,1.643497114e-04,2.663761900e-05,1.909873304e-04,-5.204305601e-05,-4.607634502e-05,-9.811940103e-05,7.744087105e-04,6.121076807e-06,7.805297873e-04,8.046199671e-04,1.236604342e-04,9.282804013e-04,1.887687857e-03,6.873609375e-05,1.956423951e-03,2.111083456e-03,1.467779452e-04,2.257861401e-03,4.326873883e-04,2.393810420e-06,4.350811987e-04,9.086822599e-04,-4.437417486e-05,8.643080851e-04,7.770298000e-04,5.331676067e-04,1.310197407e-03,7.918888294e-04,-9.422892148e-05,6.976599079e-04,1.384917726e-03,-3.756273795e-04,1.009290346e-03,2.083477923e-04,-2.966860000e-04,-8.833820777e-05,1.004439283e-04,-1.594120564e-06,9.884980774e-05,-5.229120694e-04,-9.172001859e-05,-6.146320880e-04,-2.257379803e-04,2.099194040e-06,-2.236387862e-04,-5.670969637e-04,5.081237821e-05,-5.162845855e-04,5.469871350e-04,5.766381683e-05,6.046509519e-04,-1.078966612e-03,8.314820782e-04,-2.474845338e-04,-1.394704845e-04,4.653340213e-04,3.258635367e-04,-1.511821137e-04,2.391797633e-04,8.799764963e-05,2.848690372e-03,-4.399923798e-04,2.408697992e-03,3.536839986e-03,-1.891645485e-03,1.645194502e-03,4.378199368e-03,5.353730449e-04,4.913572413e-03
-6,1.327964433e-03,-1.392524363e-04,1.188711996e-03,1.264840562e-03,-8.636441280e-05,1.178476149e-03,6.946627939e-04,-1.509765326e-04,5.436862612e-04,7.332967103e-04,-4.977374736e-05,6.835229630e-04,4.648413192e-04,-1.499088245e-04,3.149324947e-04,1.054395078e-03,-3.715523268e-04,6.828427514e-04,4.037099960e-04,-4.214004187e-05,3.615699541e-04,1.745850963e-04,1.333279728e-05,1.879178936e-04,-3.802053790e-04,-1.305692179e-04,-5.107745969e-04,-4.946504882e-04,-1.876931278e-04,-6.823436160e-04,-1.246889202e-04,-2.096307687e-04,-3.343196889e-04,4.341281886e-04,-4.762768489e-05,3.865005037e-04,2.676179078e-05,-9.692909905e-05,-7.016730827e-05,1.877871133e-04,1.810559653e-05,2.058927098e-04,1.257278737e-06,-4.631597815e-05,-4.505869941e-05,8.454541115e-04,6.300761953e-06,8.517548734e-04,9.287354280e-04,1.176755174e-04,1.046410945e-03,1.919453113e-03,6.510974605e-05,1.984562859e-03,2.164072218e-03,1.583723565e-04,2.322444575e-03,4.695974180e-04,-6.707456856e-06,4.628899611e-04,9.488111591e-04,-4.459137589e-05,9.042197832e-04,8.222555053e-04,5.323320189e-04,1.354587524e-03,8.184490742e-04,-1.016221480e-04,7.168269262e-04,1.370948535e-03,-3.629356675e-04,1.008012868e-03,2.301374263e-04,-2.778135486e-04,-4.767612229e-05,1.422379493e-04,-9.793774425e-06,1.324441749e-04,-4.912090915e-04,-7.227731357e-05,-5.634864051e-04,-1.714211307e-04,-6.759886137e-06,-1.781810169e-04,-4.811615912e-04,5.318873342e-05,-4.279728578e-04,6.185144467e-04,6.048803478e-05,6.790024815e-04,-1.055899585e-03,8.689134346e-04,-1.869861509e-04,3.124981889e-05,4.989165623e-04,5.301663812e-04,-2.332634350e-05,2.571372124e-04,2.338108689e-04,2.987597843e-03,-4.815544458e-04,2.506043397e-03,3.539803125e-03,-1.741036075e-03,1.798767050e-03,4.460602048e-03,6.202925351e-04,5.080894583e-03
-5.9,1.298835539e-03,-1.407623846e-04,1.158073155e-03,1.201605273e-03,-7.989120333e-05,1.121714070e-03,7.165295846e-04,-1.522104045e-04,5.643191800e-04,7.101123435e-04,-4.840906947e-05,6.617032741e-04,4.887642768e-04,-1.576506336e-04,3.311136432e-04,1.053555953e-03,-4.005314704e-04,6.530244825e-04,4.206755120e-04,-4.633139470e-05,3.743441173e-04,2.120356638e-04,4.862196519e-06,2.168978603e-04,-3.250569766e-04,-1.337498854e-04,-4.588068620e-04,-4.334146605e-04,-1.900628993e-04,-6.234775597e-04,-7.034599951e-05,-2.097271496e-04,-2.800731491e-04,5.060395631e-04,-5.666324217e-05,4.493763209e-04,1.262800023e-04,-1.083851599e-04,1.789484243e-05,2.105339558e-04,9.589006678e-06,2.201229624e-04,5.315724597e-05,-4.630053767e-05,6.856708299e-06,9.138195230e-04,6.201738603e-06,9.200212616e-04,1.051215970e-03,1.110313862e-04,1.162247356e-03,1.943930760e-03,6.131804225e-05,2.005248803e-03,2.209188929e-03,1.695446995e-04,2.378733628e-03,5.048705390e-04,-1.550649096e-05,4.893640480e-04,9.845794751e-04,-4.463238206e-05,9.399470930e-04,8.648553076e-04,5.284732720e-04,1.393328580e-03,8.415816701e-04,-1.084181431e-04,7.331635270e-04,1.351097890e-03,-3.479371297e-04,1.003160760e-03,2.489148033e-04,-2.566542470e-04,-7.739443786e-06,1.830342037e-04,-1.769092184e-05,1.653432819e-04,-4.589173767e-04,-5.158448317e-05,-5.105018599e-04,-1.163256459e-04,-1.629177647e-05,-1.326174224e-04,-3.959272216e-04,5.584020436e-05,-3.400870172e-04,6.876930722e-04,6.343433903e-05,7.511274113e-04,-1.026033447e-03,8.978428181e-04,-1.281906287e-04,1.987411393e-04,5.336420934e-04,7.323832327e-04,1.033793453e-04,2.735814194e-04,3.769607648e-04,3.115179245e-03,-5.181685715e-04,2.597010674e-03,3.521928429e-03,-1.581068166e-03,1.940860262e-03,4.525290540e-03,6.981234118e-04,5.223413952e-03
-5.8,1.263812838e-03,-1.412788590e-04,1.122533979e-03,1.132477163e-03,-7.276909688e-05,1.059708067e-03,7.355084645e-04,-1.528192999e-04,5.826891646e-04,6.836104802e-04,-4.678495487e-05,6.368255254e-04,5.104765070e-04,-1.647545779e-04,3.457219291e-04,1.047738790e-03,-4.288387392e-04,6.189000505e-04,4.357995205e-04,-5.031567570e-05,3.854838448e-04,2.475993574e-04,-2.830676118e-06,2.447686813e-04,-2.697904294e-04,-1.363431632e-04,-4.061335926e-04,-3.717110341e-04,-1.917280648e-04,-5.634390990e-04,-1.683931011e-05,-2.088645041e-04,-2.257038142e-04,5.747962546e-04,-6.506662880e-05,5.097296258e-04,2.239646512e-04,-1.197957024e-04,1.041689488e-04,2.326619432e-04,1.098091165e-06,2.337600344e-04,1.036447313e-04,-4.603425843e-05,5.761047286e-05,9.795568868e-04,5.809879015e-06,9.853667659e-04,1.171797857e-03,1.038329845e-04,1.275630842e-03,1.961009810e-03,5.742991980e-05,2.018439730e-03,2.246365221e-03,1.802248080e-04,2.426590029e-03,5.385348992e-04,-2.398702061e-05,5.145478786e-04,1.015975346e-03,-4.445899398e-05,9.715163523e-04,9.047503693e-04,5.215931332e-04,1.426343503e-03,8.612664713e-04,-1.146135889e-04,7.466528824e-04,1.325595480e-03,-3.308003367e-04,9.947951433e-04,2.649054924e-04,-2.333794146e-04,3.152607788e-05,2.228032139e-04,-2.524165795e-05,1.975615559e-04,-4.260252348e-04,-2.976346163e-05,-4.557886965e-04,-6.047474544e-05,-2.643521609e-05,-8.690996153e-05,-3.113147748e-04,5.879732351e-05,-2.525174513e-04,7.544776186e-04,6.646081312e-05,8.209384317e-04,-9.892163557e-04,9.187614552e-04,-7.045490045e-05,3.614941337e-04,5.694508339e-04,9.309449676e-04,2.289697992e-04,2.883701117e-04,5.173399109e-04,3.230621676e-03,-5.497978019e-04,2.680823874e-03,3.485206293e-03,-1.413313797e-03,2.071892496e-03,4.571408101e-03,7.687126989e-04,5.340120800e-03
-5.7,1.223044044e-03,-1.408369504e-04,1.082207094e-03,1.057923366e-03,-6.505742299e-05,9.928659431e-04,7.516374841e-04,-1.528261237e-04,5.988113603e-04,6.541013948e-04,-4.491068884e-05,6.091907060e-04,5.300734792e-04,-1.712236767e-04,3.588498025e-04,1.037108611e-03,-4.562580342e-04,5.808505765e-04,4.491732336e-04,-5.404218075e-05,3.951310528e-04,2.813079929e-04,-9.708395720e-06,2.715995972e-04,-2.145107114e-04,-1.383630727e-04,-3.528737841e-04,-3.096602425e-04,-1.927164316e-04,-5.023766740e-04,3.575779706e-05,-2.070885432e-04,-1.713307461e-04,6.403926423e-04,-7.280442673e-05,5.675882156e-04,3.196066875e-04,-1.310757284e-04,1.885309592e-04,2.542333894e-04,-7.354321758e-06,2.468790677e-04,1.527167884e-04,-4.552367064e-05,1.071931178e-04,1.042712169e-03,5.114996252e-06,1.047827165e-03,1.290191313e-03,9.618735188e-05,1.386378665e-03,1.970603177e-03,5.351609847e-05,2.024119276e-03,2.275563878e-03,1.903399871e-04,2.465903865e-03,5.706103204e-04,-3.214569124e-05,5.384646291e-04,1.043000078e-03,-4.403551941e-05,9.989645582e-04,9.418593224e-04,5.117243657e-04,1.453583688e-03,8.774934855e-04,-1.202075720e-04,7.572859134e-04,1.294711256e-03,-3.117177797e-04,9.829934759e-04,2.783681995e-04,-2.082017601e-04,7.016643945e-05,2.615178139e-04,-3.240701083e-05,2.291108031e-04,-3.925244269e-04,-6.955139276e-06,-3.994795661e-04,-3.923542926e-06,-3.711161488e-05,-4.103515780e-05,-2.272385201e-04,6.207600499e-05,-1.651625151e-04,8.188226254e-04,6.952063595e-05,8.883432613e-04,-9.454637981e-04,9.322924075e-04,-1.317139056e-05,5.182023818e-04,6.060703648e-04,1.124272747e-03,3.534570986e-04,3.013760402e-04,6.548331388e-04,3.333151782e-03,-5.764540768e-04,2.756697705e-03,3.431874481e-03,-1.239368619e-03,2.192505861e-03,4.598249429e-03,8.320438894e-04,5.430293318e-03
-5.6,1.176710154e-03,-1.394823849e-04,1.037227769e-03,9.784361156e-04,-5.681940683e-05,9.216167087e-04,7.649554179e-04,-1.522553530e-04,6.127000649e-04,6.219013184e-04,-4.279885588e-05,5.791024625e-04,5.476481981e-04,-1.770624676e-04,3.705857305e-04,1.021819341e-03,-4.825327871e-04,5.392865542e-04,4.608839049e-04,-5.746264344e-05,4.034212614e-04,3.132128390e-04,-1.577195192e-05,2.974408871e-04,-1.593218220e-04,-1.398254727e-04,-2.991472947e-04,-2.473845715e-04,-1.930549228e-04,-4.404394943e-04,8.737751969e-05,-2.044482606e-04,-1.170707409e-04,7.028406786e-04,-7.985434669e-05,6.229863319e-04,4.129977638e-04,-1.421289473e-04,2.708688165e-04,2.752984747e-04,-1.575311066e-05,2.595453641e-04,2.003774872e-04,-4.477737728e-05,1.556001099e-04,1.103323284e-03,4.109889833e-06,1.107433174e-03,1.406080009e-03,8.820098799e-05,1.494280997e-03,1.972646542e-03,4.964852529e-05,2.022295067e-03,2.296778176e-03,1.998145221e-04,2.496592698e-03,6.011026523e-04,-3.998940767e-05,5.611132446e-04,1.065666495e-03,-4.333010313e-05,1.022336392e-03,9.760966099e-04,4.989304022e-04,1.475027012e-03,8.902596824e-04,-1.252018613e-04,7.650578211e-04,1.258751966e-03,-2.909055744e-04,9.678463920e-04,2.895883000e-04,-1.813691271e-04,1.082191730e-04,2.991520971e-04,-3.915338717e-05,2.599987100e-04,-3.584065335e-04,1.667519112e-05,-3.417313423e-04,5.323905130e-05,-4.822494537e-05,5.014105926e-06,-1.436133936e-04,6.567726766e-05,-7.793612592e-05,8.806782432e-04,7.256324026e-05,9.532414835e-04,-8.949418342e-04,9.391606474e-04,4.421881312e-05,6.677806222e-04,6.430252705e-04,1.310805893e-03,4.768284667e-04,3.124877541e-04,7.893162207e-04,3.422047695e-03,-5.981864275e-04,2.823861267e-03,3.364346562e-03,-1.060814210e-03,2.303532352e-03,4.605299988e-03,8.882009571e-04,5.493500945e-03
-5.5,1.125023416e-03,-1.372705303e-04,9.877528855e-04,8.945275906e-04,-4.812248542e-05,8.464051051e-04,7.754975078e-04,-1.511326572e-04,6.243648507e-04,5.873255391e-04,-4.046482105e-05,5.468607181e-04,5.632846199e-04,-1.822767646e-04,3.810078553e-04,1.002011756e-03,-5.073726373e-04,4.946391188e-04,4.710094521e-04,-6.053237049e-05,4.104770817e-04,3.433822622e-04,-2.106290378e-05,3.223193585e-04,-1.043318227e-04,-1.407479676e-04,-2.450797903e-04,-1.850129573e-04,-1.927690021e-04,-3.777819595e-04,1.379532234e-04,-2.009958432e-04,-6.304261987e-05,7.621677156e-04,-8.620654614e-05,6.759611695e-04,5.039301248e-04,-1.528477807e-04,3.510823441e-04,2.958913818e-04,-2.408131863e-05,2.718100632e-04,2.466336409e-04,-4.380537824e-05,2.028282626e-04,1.161416590e-03,2.789429114e-06,1.164206019e-03,1.519118717e-03,7.997739175e-05,1.599096109e-03,1.967095996e-03,4.589948226e-05,2.012995478e-03,2.310029121e-03,2.085695237e-04,2.518598645e-03,6.299955907e-04,-4.753235033e-05,5.824632404e-04,1.083994742e-03,-4.231587207e-05,1.041678869e-03,1.007367948e-03,4.833055621e-04,1.490673510e-03,8.995636306e-04,-1.296012382e-04,7.699623924e-04,1.218054353e-03,-2.686025489e-04,9.494518042e-04,2.988685508e-04,-1.531581751e-04,1.457103757e-04,3.356780960e-04,-4.545302672e-05,2.902250693e-04,-3.236613170e-04,4.093207965e-05,-2.827292374e-04,1.108876748e-04,-5.966242937e-05,5.122524547e-05,-6.036469262e-05,6.958722333e-05,9.222530701e-06,9.399832981e-04,7.553563786e-05,1.015518936e-03,-8.379469334e-04,9.401548299e-04,1.022078965e-04,8.093701842e-04,6.796560990e-04,1.489026283e-03,5.990411286e-04,3.216108175e-04,9.206519462e-04,3.496649351e-03,-6.150712288e-04,2.881578122e-03,3.285145746e-03,-8.792027249e-04,2.405943021e-03,4.592250408e-03,9.373361878e-04,5.529586596e-03
-5.4,1.068224100e-03,-1.342652178e-04,9.339588819e-04,8.067235083e-04,-3.903880703e-05,7.676847013e-04,7.832904447e-04,-1.494845020e-04,6.338059427e-04,5.506800565e-04,-3.792615562e-05,5.127539009e-04,5.770496269e-04,-1.868734060e-04,3.901762209e-04,9.778127544e-04,-5.304634716e-04,4.473492828e-04,4.796113673e-04,-6.321088397e-05,4.164004833e-04,3.718948517e-04,-2.566071879e-05,3.462341330e-04,-4.965824541e-05,-1.411494336e-04,-1.908076791e-04,-1.226863061e-04,-1.918817747e-04,-3.145680808e-04,1.874147949e-04,-1.967862512e-04,-9.371456285e-06,8.184117627e-04,-9.186381062e-05,7.265479521e-04,5.921963943e-04,-1.631140343e-04,4.290823600e-04,3.160263627e-04,-3.232057167e-05,2.837057910e-04,2.914896621e-04,-4.261833304e-05,2.488713291e-04,1.217001928e-03,1.150078643e-06,1.218152006e-03,1.628929903e-03,7.161520126e-05,1.700545104e-03,1.953925826e-03,4.233992915e-05,1.996265755e-03,2.315361090e-03,2.165231292e-04,2.531884219e-03,6.572417303e-04,-5.479264060e-05,6.024490897e-04,1.098006995e-03,-4.097184761e-05,1.057035147e-03,1.035564485e-03,4.649750810e-04,1.500539566e-03,9.054000166e-04,-1.334136951e-04,7.719863215e-04,1.172975072e-03,-2.450676762e-04,9.279073960e-04,3.065178348e-04,-1.238678816e-04,1.826499532e-04,3.710612924e-04,-5.128439755e-05,3.197768948e-04,-2.882784030e-04,6.558726449e-05,-2.226911386e-04,1.688578453e-04,-7.129610094e-05,9.756174440e-05,2.256231467e-05,7.377726891e-05,9.633958359e-05,9.966583424e-04,7.838372329e-05,1.075042066e-03,-7.748838476e-04,9.360907767e-04,1.612069291e-04,9.423352171e-04,7.151467620e-04,1.657481979e-03,7.200146066e-04,3.286702191e-04,1.048684826e-03,3.556368535e-03,-6.272056438e-04,2.929162891e-03,3.196840525e-03,-6.960534349e-04,2.500787090e-03,4.558997256e-03,9.796352553e-04,5.538632511e-03
-5.3,1.006576940e-03,-1.305375379e-04,8.760394021e-04,7.155566397e-04,-2.964556936e-05,6.859110703e-04,7.883481760e-04,-1.473376505e-04,6.410105255e-04,5.122540250e-04,-3.520211058e-05,4.770519144e-04,5.889864192e-04,-1.908599016e-04,3.981265176e-04,9.493360888e-04,-5.514783074e-04,3.978577814e-04,4.867284194e-04,-6.546220233e-05,4.212662170e-04,3.988312062e-04,-2.967663153e-05,3.691545747e-04,4.568713381e-06,-1.410492150e-04,-1.364805017e-04,-6.056055391e-05,-1.904130759e-04,-2.509736298e-04,2.356857037e-04,-1.918763715e-04,4.380933214e-05,8.716153439e-04,-9.684034646e-05,7.747749975e-04,6.775898442e-04,-1.728003585e-04,5.047894856e-04,3.356952568e-04,-4.045140049e-05,2.952438563e-04,3.349432477e-04,-4.122702729e-05,2.937162204e-04,1.270067090e-03,-8.098232910e-07,1.269257267e-03,1.735100642e-03,6.320719712e-05,1.798307839e-03,1.933127924e-03,3.903700212e-05,1.972164926e-03,2.312836926e-03,2.235911757e-04,2.536428102e-03,6.827555079e-04,-6.178846601e-05,6.209670419e-04,1.107723533e-03,-3.928373385e-05,1.068439799e-03,1.060558511e-03,4.440944328e-04,1.504652944e-03,9.077566826e-04,-1.366503207e-04,7.711063619e-04,1.123878327e-03,-2.205746457e-04,9.033036809e-04,3.128394307e-04,-9.381238752e-05,2.190270432e-04,4.052566340e-04,-5.663244812e-05,3.486241859e-04,-2.522519196e-04,9.038259513e-05,-1.618693245e-04,2.269448124e-04,-8.298509952e-05,1.439597129e-04,1.051959440e-04,7.820419810e-05,1.834001421e-04,1.050601645e-03,8.105346518e-05,1.131655110e-03,-7.062398834e-04,9.277824357e-04,2.215425523e-04,1.066250848e-03,7.485618145e-04,1.814812663e-03,8.396231141e-04,3.336136490e-04,1.173236763e-03,3.600700850e-03,-6.347042624e-04,2.965996587e-03,3.101974040e-03,-5.128512824e-04,2.589122758e-03,4.505641821e-03,1.015278596e-03,5.520920418e-03
-5.2,9.403683321e-04,-1.261646594e-04,8.142036726e-04,6.215617425e-04,-2.002458816e-05,6.015371544e-04,7.906704308e-04,-1.447185261e-04,6.459519047e-04,4.723156411e-04,-3.231316438e-05,4.400024767e-04,5.991124092e-04,-1.942439439e-04,4.048684653e-04,9.166855269e-04,-5.700867146e-04,3.465988123e-04,4.923740892e-04,-6.725503113e-05,4.251190580e-04,4.242674462e-04,-3.324531180e-05,3.910221344e-04,5.820742297e-05,-1.404662342e-04,-8.225881123e-05,1.194665824e-06,-1.883789406e-04,-1.871842747e-04,2.826833830e-04,-1.863238712e-04,9.635951183e-05,9.218198038e-04,-1.011592568e-04,8.206605470e-04,7.599055782e-04,-1.817721817e-04,5.781333965e-04,3.548679567e-04,-4.845354803e-05,3.064144087e-04,3.769835172e-04,-3.964207598e-05,3.373414412e-04,1.320573350e-03,-3.089078197e-06,1.317484272e-03,1.837181592e-03,5.483987462e-05,1.892021467e-03,1.904713927e-03,3.605107626e-05,1.940765004e-03,2.302533894e-03,2.296886227e-04,2.532222517e-03,7.064115792e-04,-6.853406132e-05,6.378775179e-04,1.113162698e-03,-3.724457308e-05,1.075918125e-03,1.082203405e-03,4.208476263e-04,1.503051031e-03,9.066165821e-04,-1.393247466e-04,7.672918356e-04,1.071123541e-03,-1.954032694e-04,8.757202715e-04,3.181214937e-04,-6.331406741e-05,2.548074262e-04,4.382070245e-04,-6.148865029e-05,3.767183743e-04,-2.155847733e-04,1.150380946e-04,-1.005466787e-04,2.849056692e-04,-9.457825846e-05,1.903274107e-04,1.875370314e-04,8.281023435e-05,2.703472657e-04,1.101690428e-03,8.349215293e-05,1.185182581e-03,-6.325531245e-04,9.160192436e-04,2.834661191e-04,1.180886404e-03,7.788941073e-04,1.959780511e-03,9.576923212e-04,3.364147037e-04,1.294107025e-03,3.629241505e-03,-6.376984030e-04,2.991543102e-03,3.002988086e-03,-3.310468667e-04,2.671941219e-03,4.432486806e-03,1.044411503e-03,5.476898309e-03
-5.1,8.699051776e-04,-1.212286002e-04,7.486765774e-04,5.252732942e-04,-1.026079332e-05,5.150125009e-04,7.902452879e-04,-1.416525280e-04,6.485927599e-04,4.311133205e-04,-2.928063794e-05,4.018326826e-04,6.074235535e-04,-1.970328599e-04,4.103906937e-04,8.799618411e-04,-5.859624312e-04,2.939994099e-04,4.965397200e-04,-6.856307011e-05,4.279766499e-04,4.482728368e-04,-3.651608768e-05,4.117567491e-04,1.111111922e-04,-1.394182637e-04,-2.830707146e-05,6.240238576e-05,-1.857915730e-04,-1.233891873e-04,3.283233697e-04,-1.801859998e-04,1.481373699e-04,9.690613628e-04,-1.048489657e-04,8.642123971e-04,8.389434633e-04,-1.898897764e-04,6.490536869e-04,3.734963292e-04,-5.630633641e-05,3.171899928e-04,4.175923878e-04,-3.787381106e-05,3.797185768e-04,1.368453572e-03,-5.682342397e-06,1.362771230e-03,1.934689759e-03,4.659299266e-05,1.981282752e-03,1.868720453e-03,3.343295832e-05,1.902153411e-03,2.284541875e-03,2.347317777e-04,2.519273653e-03,7.280510743e-04,-7.503664260e-05,6.530144317e-04,1.114345665e-03,-3.485501382e-05,1.079490651e-03,1.100338605e-03,3.954443759e-04,1.495782981e-03,9.019650364e-04,-1.414522410e-04,7.605127954e-04,1.015055928e-03,-1.698291564e-04,8.452267718e-04,3.226321868e-04,-3.269816036e-05,2.899340264e-04,4.698457025e-04,-6.585082726e-05,4.039948752e-04,-1.782883056e-04,1.392615195e-04,-3.902678602e-05,3.424659880e-04,-1.059168764e-04,2.365491116e-04,2.695630308e-04,8.752365088e-05,3.570866817e-04,1.149787679e-03,8.564977884e-05,1.235437458e-03,-5.543771028e-04,9.015467532e-04,3.471696505e-04,1.286187938e-03,8.051203249e-04,2.091308263e-03,1.074003865e-03,3.370749861e-04,1.411078851e-03,3.641706733e-03,-6.363396815e-04,3.005367052e-03,2.902149056e-03,-1.520535185e-04,2.750095537e-03,4.340016965e-03,1.067141326e-03,5.407158291e-03
-5,7.955154723e-04,-1.158148222e-04,6.797006501e-04,4.272261319e-04,-4.400099993e-07,4.267861219e-04,7.870553202e-04,-1.381634704e-04,6.488918497e-04,3.888815534e-04,-2.612635672e-05,3.627551967e-04,6.139041702e-04,-1.992331535e-04,4.146710167e-04,8.392733027e-04,-5.987900478e-04,2.404832550e-04,4.992027880e-04,-6.936545177e-05,4.298373362e-04,4.709122940e-04,-3.964576676e-05,4.312665272e-04,1.631379471e-04,-1.379215349e-04,2.521641217e-05,1.228879015e-04,-1.826597013e-04,-5.977179972e-05,3.725257483e-04,-1.735186046e-04,1.990071436e-04,1.013369370e-03,-1.079394035e-04,9.054299662e-04,9.145130046e-04,-1.970102250e-04,7.175027796e-04,3.915204160e-04,-6.398907665e-05,3.275313394e-04,4.567484884e-04,-3.593235970e-05,4.208161287e-04,1.413613274e-03,-8.579136838e-06,1.405034137e-03,2.027115880e-03,3.853864147e-05,2.065654521e-03,1.825216659e-03,3.122154332e-05,1.856438203e-03,2.258964329e-03,2.386408975e-04,2.497605227e-03,7.474946787e-04,-8.129539906e-05,6.661992797e-04,1.111304216e-03,-3.212295209e-05,1.079181264e-03,1.114798164e-03,3.681161512e-04,1.482914315e-03,8.937996645e-04,-1.430487836e-04,7.507508809e-04,9.560014751e-04,-1.441142927e-04,8.118871824e-04,3.266192809e-04,-2.288631712e-06,3.243306492e-04,5.001021185e-04,-6.972287706e-05,4.303792415e-04,-1.403756153e-04,1.627553358e-04,2.237972056e-05,3.993307179e-04,-1.168380331e-04,2.824926848e-04,3.512345734e-04,9.226067121e-05,4.434952446e-04,1.194752236e-03,8.748016584e-05,1.282232402e-03,-4.722493446e-04,8.850491369e-04,4.127997923e-04,1.382259920e-03,8.262595928e-04,2.208519512e-03,1.188307655e-03,3.356239010e-04,1.523931556e-03,3.637960672e-03,-6.308096049e-04,3.007151067e-03,2.801477817e-03,2.277085889e-05,2.824248676e-03,4.228850308e-03,1.083569963e-03,5.312420271e-03
-4.9,7.175495981e-04,-1.100105833e-04,6.075390148e-04,3.279573349e-04,9.353251851e-06,3.373105867e-04,7.810849836e-04,-1.342732721e-04,6.468117115e-04,3.458483138e-04,-2.287230157e-05,3.229760122e-04,6.185383727e-04,-2.008502461e-04,4.176881266e-04,7.947472986e-04,-6.082717688e-04,1.864755298e-04,5.003371359e-04,-6.964722974e-05,4.306899061e-04,4.922522508e-04,-4.279434681e-05,4.494579040e-04,2.141593478e-04,-1.359907914e-04,7.816855636e-05,1.824879626e-04,-1.789892711e-04,3.498691562e-06,4.152210922e-04,-1.663755826e-04,2.488455096e-04,1.054766595e-03,-1.104592535e-04,9.443073417e-04,9.864389159e-04,-2.029892623e-04,7.834496536e-04,4.088746455e-04,-7.148147631e-05,3.373931691e-04,4.944317731e-04,-3.382799274e-05,4.606037804e-04,1.455933493e-03,-1.176343645e-05,1.444170057e-03,2.113935495e-03,3.073977341e-05,2.144675268e-03,1.774312451e-03,2.944187056e-05,1.803754322e-03,2.225920858e-03,2.413426069e-04,2.467263465e-03,7.645582583e-04,-8.730282347e-05,6.772554348e-04,1.104088215e-03,-2.906263381e-05,1.075025581e-03,1.125420579e-03,3.391109868e-04,1.464531566e-03,8.821390020e-04,-1.441304691e-04,7.380085330e-04,8.942657446e-04,-1.185005297e-04,7.757652149e-04,3.303114245e-04,2.759633158e-05,3.579077560e-04,5.289089244e-04,-7.311456210e-05,4.557943623e-04,-1.018504931e-04,1.852198214e-04,8.336932825e-05,4.551970973e-04,-1.271786810e-04,3.280184163e-04,4.325011758e-04,9.692851755e-05,5.294296933e-04,1.236448600e-03,8.894124092e-05,1.325389841e-03,-3.866704928e-04,8.671340749e-04,4.804635821e-04,1.469341400e-03,8.414304926e-04,2.310771893e-03,1.300337985e-03,3.321157018e-04,1.632453687e-03,3.618042524e-03,-6.213325575e-04,2.996709966e-03,2.702682484e-03,1.921576077e-04,2.894840092e-03,4.099662920e-03,1.093852768e-03,5.193515688e-03
-4.8,6.363808344e-04,-1.039030687e-04,5.324777657e-04,2.280070962e-04,1.903744556e-05,2.470445417e-04,7.723266845e-04,-1.300018903e-04,6.423247942e-04,3.022406248e-04,-1.954019180e-05,2.827004330e-04,6.213188308e-04,-2.018884203e-04,4.194304106e-04,7.465408160e-04,-6.141353440e-04,1.324054720e-04,4.999215745e-04,-6.939991237e-05,4.305216622e-04,5.123667477e-04,-4.612321113e-05,4.662435366e-04,2.640658491e-04,-1.336397957e-04,1.304260535e-04,2.410563051e-04,-1.747845861e-04,6.627171895e-05,4.563534831e-04,-1.588088867e-04,2.975445964e-04,1.093270568e-03,-1.124348992e-04,9.808356688e-04,1.054566105e-03,-2.076835232e-04,8.468825820e-04,4.254921512e-04,-7.876405500e-05,3.467280962e-04,5.306269874e-04,-3.157178441e-05,4.990552030e-04,1.495273549e-03,-1.521341012e-05,1.480060138e-03,2.194621475e-03,2.324852601e-05,2.217870001e-03,1.716165341e-03,2.810340033e-05,1.744268741e-03,2.185549187e-03,2.427719719e-04,2.428321159e-03,7.790663242e-04,-9.304765797e-05,6.860186663e-04,1.092770184e-03,-2.569355610e-05,1.067076628e-03,1.132058064e-03,3.086867935e-04,1.440744858e-03,8.670270882e-04,-1.447133524e-04,7.223137358e-04,8.301348531e-04,-9.320642757e-05,7.369284255e-04,3.339181642e-04,5.665007514e-05,3.905682394e-04,5.562073554e-04,-7.604145695e-05,4.801658984e-04,-6.269623932e-05,2.063540898e-04,1.436578505e-04,5.097666770e-04,-1.367802726e-04,3.729864044e-04,5.133040190e-04,1.014288728e-04,6.147328918e-04,1.274753549e-03,8.999438376e-05,1.364747933e-03,-2.980962850e-04,8.483218873e-04,5.502256024e-04,1.547773737e-03,8.499036520e-04,2.397677389e-03,1.409827379e-03,3.266250781e-04,1.736452457e-03,3.582185071e-03,-6.081860728e-04,2.973998998e-03,2.607097343e-03,3.549613247e-04,2.962058667e-03,3.953109540e-03,1.098262067e-03,5.051371607e-03
-4.7,5.524041325e-04,-9.757739648e-05,4.548267360e-04,1.279172241e-04,2.853488171e-05,1.564521058e-04,7.607842001e-04,-1.253674329e-04,6.354167672e-04,2.582865535e-04,-1.615103992e-05,2.421355136e-04,6.222505759e-04,-2.023509183e-04,4.198996575e-04,6.948489923e-04,-6.161438916e-04,7.870510077e-05,4.979447584e-04,-6.862207333e-05,4.293226851e-04,5.313405720e-04,-4.979377873e-05,4.815467933e-04,3.127665313e-04,-1.308821283e-04,1.818844030e-04,2.984643874e-04,-1.700498710e-04,1.284145164e-04,4.958798707e-04,-1.508690066e-04,3.450108642e-04,1.128894425e-03,-1.138905484e-04,1.015003877e-03,1.118764002e-03,-2.109541175e-04,9.078098842e-04,4.413064822e-04,-8.581857360e-05,3.554879086e-04,5.653249146e-04,-2.917644333e-05,5.361484713e-04,1.531472055e-03,-1.890064172e-05,1.512571414e-03,2.268655659e-03,1.610479545e-05,2.284760454e-03,1.650984471e-03,2.719867989e-05,1.678183150e-03,2.138004882e-03,2.428743559e-04,2.380879238e-03,7.908605061e-04,-9.851823973e-05,6.923422664e-04,1.077446038e-03,-2.203942971e-05,1.055406609e-03,1.134584146e-03,2.771031876e-04,1.411687334e-03,8.485334700e-04,-1.448136225e-04,7.037198475e-04,7.638770088e-04,-6.842675029e-05,6.954502585e-04,3.376273734e-04,8.458436331e-05,4.222117367e-04,5.819495308e-04,-7.852493725e-05,5.034245936e-04,-2.286821173e-05,2.258574813e-04,2.029892696e-04,5.627545885e-04,-1.454934627e-04,4.172611258e-04,5.935752929e-04,1.056612674e-04,6.992365603e-04,1.309557961e-03,9.060359617e-05,1.400161557e-03,-2.069392839e-04,8.290398499e-04,6.221005660e-04,1.617961957e-03,8.511474938e-04,2.469109451e-03,1.516513670e-03,3.192432933e-04,1.835756963e-03,3.530817900e-03,-5.917046459e-04,2.939113254e-03,2.515635561e-03,5.101840247e-04,3.025819585e-03,3.789769599e-03,1.097227927e-03,4.886997526e-03
-4.6,4.660330241e-04,-9.111468893e-05,3.749183352e-04,2.822710585e-05,3.777188299e-05,6.599898884e-05,7.464734433e-04,-1.203864071e-04,6.260870363e-04,2.142135765e-04,-1.272480816e-05,2.014887684e-04,6.213499356e-04,-2.022401553e-04,4.191097803e-04,6.399110361e-04,-6.141067511e-04,2.580428498e-05,4.944060811e-04,-6.731995709e-05,4.270861240e-04,5.492676800e-04,-5.396447724e-05,4.953032028e-04,3.601848522e-04,-1.277319724e-04,2.324528798e-04,3.545982392e-04,-1.647909259e-04,1.898073133e-04,5.337666160e-04,-1.426056051e-04,3.911610109e-04,1.161646287e-03,-1.148485953e-04,1.046797692e-03,1.178930474e-03,-2.126720395e-04,9.662584349e-04,4.562510532e-04,-9.262838312e-05,3.636226701e-04,5.985213194e-04,-2.665706126e-05,5.718642581e-04,1.564345887e-03,-2.278879252e-05,1.541557094e-03,2.335537968e-03,9.335397115e-06,2.344873366e-03,1.579031085e-03,2.670280147e-05,1.605733887e-03,2.083458612e-03,2.416070199e-04,2.325065632e-03,7.998025924e-04,-1.037051723e-04,6.960974201e-04,1.058232322e-03,-1.812726450e-05,1.040105058e-03,1.132898819e-03,2.446127621e-04,1.377511582e-03,8.267496360e-04,-1.444479252e-04,6.823017108e-04,6.957431835e-04,-4.433311998e-05,6.514100635e-04,3.416002066e-04,1.111370214e-04,4.527372280e-04,6.060975257e-04,-8.059192044e-05,5.255056052e-04,1.770903598e-05,2.434320400e-04,2.611410760e-04,6.138953524e-04,-1.531823402e-04,4.607130122e-04,6.732348764e-04,1.095263155e-04,7.827611920e-04,1.340763947e-03,9.073536439e-05,1.431499311e-03,-1.135732408e-04,8.096195232e-04,6.960462824e-04,1.680334748e-03,8.448639711e-04,2.525198719e-03,1.620139522e-03,3.100760429e-04,1.930215565e-03,3.464555242e-03,-5.722778528e-04,2.892277389e-03,2.428767861e-03,6.569904546e-04,3.085758316e-03,3.610136335e-03,1.091338308e-03,4.701474642e-03
-4.5,3.776951307e-04,-8.459050472e-05,2.931046259e-04,-7.053228080e-05,4.667835315e-05,-2.385392765e-05,7.294214086e-04,-1.150740798e-04,6.143473288e-04,1.702442783e-04,-9.280253034e-06,1.609640253e-04,6.186403373e-04,-2.015580029e-04,4.170823344e-04,5.820123005e-04,-6.078893166e-04,-2.587701606e-05,4.893137281e-04,-6.550788281e-05,4.238058453e-04,5.662450695e-04,-5.878535795e-05,5.074597115e-04,4.062527456e-04,-1.242045857e-04,2.820481599e-04,4.093535007e-04,-1.590164135e-04,2.503370872e-04,5.699849470e-04,-1.340678983e-04,4.359170487e-04,1.191527234e-03,-1.153294719e-04,1.076197762e-03,1.234995392e-03,-2.127252345e-04,1.022270158e-03,4.702574246e-04,-9.917856646e-05,3.710788581e-04,6.302144504e-04,-2.403161927e-05,6.061828311e-04,1.593688177e-03,-2.683236504e-05,1.566855812e-03,2.394792458e-03,2.953941558e-06,2.397746400e-03,1.500615753e-03,2.657373407e-05,1.527189487e-03,2.022091842e-03,2.389403548e-04,2.261032197e-03,8.057736966e-04,-1.086027542e-04,6.971709424e-04,1.035261260e-03,-1.398659048e-05,1.021274670e-03,1.126930749e-03,2.114536324e-04,1.338384382e-03,8.017838214e-04,-1.436336861e-04,6.581501353e-04,6.259661989e-04,-2.107411339e-05,6.048920855e-04,3.459648244e-04,1.360795372e-04,4.820443617e-04,6.286200441e-04,-8.227419845e-05,5.463458457e-04,5.914105052e-05,2.587855487e-04,3.179265992e-04,6.629451743e-04,-1.597275819e-04,5.032175925e-04,7.521863104e-04,1.129286914e-04,8.651150017e-04,1.368279485e-03,9.035929918e-05,1.458638784e-03,-1.833386991e-05,7.902945068e-04,7.719606369e-04,1.735308813e-03,8.310112078e-04,2.566320021e-03,1.720446902e-03,2.992429329e-04,2.019689835e-03,3.384172971e-03,-5.503442815e-04,2.833828689e-03,2.346537155e-03,7.947168878e-04,3.141254043e-03,3.414641091e-03,1.081305172e-03,4.495946263e-03
-4.4,2.878270684e-04,-7.807384670e-05,2.097532217e-04,-1.678452240e-04,5.518715443e-05,-1.126580696e-04,7.096647171e-04,-1.094448713e-04,6.002198458e-04,1.265912250e-04,-5.834919758e-06,1.207563052e-04,6.141477108e-04,-2.003060608e-04,4.138416500e-04,5.214823955e-04,-5.974206425e-04,-7.593824697e-05,4.826819388e-04,-6.320825585e-05,4.194736830e-04,5.823638973e-04,-6.439118231e-05,5.179727150e-04,4.509058555e-04,-1.203163477e-04,3.305895078e-04,4.626312478e-04,-1.527385523e-04,3.098926955e-04,6.045073750e-04,-1.253045423e-04,4.792028328e-04,1.218529061e-03,-1.153508162e-04,1.103178245e-03,1.286924248e-03,-2.110266448e-04,1.075897603e-03,4.832539712e-04,-1.054558540e-04,3.777981172e-04,6.604026300e-04,-2.132122279e-05,6.390814072e-04,1.619267226e-03,-3.097621415e-05,1.588291011e-03,2.445971003e-03,-3.038477829e-06,2.442932525e-03,1.416093526e-03,2.675326025e-05,1.442846786e-03,1.954092221e-03,2.348589560e-04,2.188951177e-03,8.086722989e-04,-1.132090821e-04,6.954632168e-04,1.008675921e-03,-9.648920575e-06,9.990270006e-04,1.116636976e-03,1.778448538e-04,1.294481829e-03,7.737567285e-04,-1.423892845e-04,6.313674439e-04,5.547592665e-04,1.226022059e-06,5.559852886e-04,3.508109416e-04,1.592233089e-04,5.100342506e-04,6.494883360e-04,-8.360749906e-05,5.658808369e-04,1.015589590e-04,2.716358977e-04,3.731948566e-04,7.096816991e-04,-1.650282982e-04,5.446534008e-04,8.303147195e-04,1.157796696e-04,9.460943891e-04,1.392014157e-03,8.944896293e-05,1.481463119e-03,7.848542134e-05,7.711994772e-04,8.496848985e-04,1.783263852e-03,8.098101647e-04,2.593074017e-03,1.817170651e-03,2.868774538e-04,2.104048105e-03,3.290579577e-03,-5.263808129e-04,2.764198764e-03,2.268602298e-03,9.228809324e-04,3.191483230e-03,3.203689332e-03,1.067920105e-03,4.271609437e-03
-4.3,1.968697276e-04,-7.162670134e-05,1.252430262e-04,-2.632173224e-04,6.323377350e-05,-1.999835489e-04,6.872495283e-04,-1.035126655e-04,5.837368628e-04,8.345358866e-05,-2.405180507e-06,8.104840815e-05,6.078985607e-04,-1.984858305e-04,4.094127302e-04,4.586911609e-04,-5.826989224e-04,-1.240077616e-04,4.745298956e-04,-6.045109425e-05,4.140788014e-04,5.977009633e-04,-7.089459220e-05,5.268063711e-04,4.940824046e-04,-1.160844979e-04,3.779979067e-04,5.143371409e-04,-1.459733774e-04,3.683637635e-04,6.373069445e-04,-1.163631100e-04,5.209438344e-04,1.242633861e-03,-1.149265926e-04,1.127707268e-03,1.334722125e-03,-2.075217533e-04,1.127200372e-03,4.951665317e-04,-1.114484144e-04,3.837181173e-04,6.890836747e-04,-1.855011818e-05,6.705335565e-04,1.640828100e-03,-3.515596353e-05,1.605672136e-03,2.488656262e-03,-8.651584807e-06,2.480004677e-03,1.325858549e-03,2.716844748e-05,1.353026996e-03,1.879649900e-03,2.293629178e-04,2.109012818e-03,8.084140528e-04,-1.175248826e-04,6.908891702e-04,9.786283180e-04,-5.147551370e-06,9.734807667e-04,1.102002241e-03,1.439847280e-04,1.245986969e-03,7.428007712e-04,-1.407339343e-04,6.020668369e-04,4.823166693e-04,2.246955654e-05,5.047862258e-04,3.561871239e-04,1.804238334e-04,5.366109573e-04,6.686734132e-04,-8.463047036e-05,5.840429429e-04,1.451101247e-04,2.817191824e-04,4.268293072e-04,7.539034909e-04,-1.690030279e-04,5.849004630e-04,9.074888957e-04,1.179993846e-04,1.025488280e-03,1.411879309e-03,8.798251036e-05,1.499861819e-03,1.766409345e-04,7.523734929e-04,9.290144273e-04,1.824532998e-03,7.817341072e-04,2.606267106e-03,1.910035201e-03,2.731263139e-04,2.183161515e-03,3.184785618e-03,-5.008873675e-04,2.683898251e-03,2.194289401e-03,1.041206858e-03,3.235496259e-03,2.977694343e-03,1.052015557e-03,4.029709900e-03
-4.2,1.052649765e-04,-6.530390817e-05,3.996106830e-05,-3.561786886e-04,7.075645350e-05,-2.854222351e-04,6.622342409e-04,-9.729100269e-05,5.649432382e-04,4.101778369e-05,9.937845283e-07,4.201156821e-05,5.999229836e-04,-1.960987986e-04,4.038241850e-04,3.940449857e-04,-5.637948566e-04,-1.697498709e-04,4.648841959e-04,-5.727314791e-05,4.076110480e-04,6.123140398e-04,-7.838100574e-05,5.339330341e-04,5.357270056e-04,-1.115268139e-04,4.242001916e-04,5.643853249e-04,-1.387408617e-04,4.256444632e-04,6.683602264e-04,-1.072894283e-04,5.610707981e-04,1.263817133e-03,-1.140670082e-04,1.149750125e-03,1.378437375e-03,-2.021936312e-04,1.176243744e-03,5.059218855e-04,-1.171456585e-04,3.887762269e-04,7.162573704e-04,-1.574564530e-05,7.005117251e-04,1.658098111e-03,-3.929920260e-05,1.618798908e-03,2.522465805e-03,-1.390320798e-05,2.508562597e-03,1.230339450e-03,2.773392806e-05,1.258073378e-03,1.798956076e-03,2.224694097e-04,2.021425486e-03,8.049352111e-04,-1.215510885e-04,6.833841226e-04,9.452822351e-04,-5.175353236e-07,9.447646998e-04,1.083040783e-03,1.100504210e-04,1.193091204e-03,7.090640685e-04,-1.386872684e-04,5.703768001e-04,4.088186402e-04,4.258731572e-05,4.514059559e-04,3.621016957e-04,1.995834843e-04,5.616851800e-04,6.861463357e-04,-8.538363116e-05,6.007627046e-04,1.899451816e-04,2.888028121e-04,4.787479937e-04,7.954316206e-04,-1.715905286e-04,6.238410920e-04,9.835683371e-04,1.195189710e-04,1.103087308e-03,1.427793825e-03,8.594324258e-05,1.513737068e-03,2.759468411e-04,7.337686611e-04,1.009715502e-03,1.859406774e-03,7.474850313e-04,2.606891805e-03,1.998757052e-03,2.581481218e-04,2.256905174e-03,3.067877045e-03,-4.743710755e-04,2.593505969e-03,2.122636538e-03,1.149668191e-03,3.272304729e-03,2.737113740e-03,1.034429464e-03,3.771543204e-03
-4.1,1.345443082e-05,-5.915318922e-05,-4.569875840e-05,-4.462834047e-04,7.769666829e-05,-3.685867365e-04,6.346949560e-04,-9.079325245e-05,5.439017035e-04,-5.376711386e-07,4.348115973e-06,3.810444834e-06,5.902625489e-04,-1.931465481e-04,3.971160007e-04,3.279846116e-04,-5.408521364e-04,-2.128675248e-04,4.537851437e-04,-5.371684152e-05,4.000683022e-04,6.262425701e-04,-8.690585815e-05,5.393367119e-04,5.757983476e-04,-1.066614571e-04,4.691368904e-04,6.127060546e-04,-1.310650043e-04,4.816410504e-04,6.976530926e-04,-9.812701803e-05,5.995260745e-04,1.282054264e-03,-1.127794951e-04,1.169274769e-03,1.418164029e-03,-1.950645701e-04,1.223099459e-03,5.154533391e-04,-1.225381483e-04,3.929151908e-04,7.419306347e-04,-1.293824718e-05,7.289923875e-04,1.670796088e-03,-4.332730291e-05,1.627468785e-03,2.547058402e-03,-1.881610379e-05,2.528242298e-03,1.129996074e-03,2.835515872e-05,1.158351232e-03,1.712204586e-03,2.142141130e-04,1.926418699e-03,7.981993369e-04,-1.252854532e-04,6.729138837e-04,9.088197714e-04,4.204578190e-06,9.130243496e-04,1.059801698e-03,7.619719600e-05,1.135998894e-03,6.727175284e-04,-1.362688858e-04,5.364486427e-04,3.344396897e-04,6.153956482e-05,3.959792545e-04,3.685271547e-04,2.166535811e-04,5.851807358e-04,7.018819209e-04,-8.590827954e-05,6.159736414e-04,2.362048454e-04,2.927020993e-04,5.289069447e-04,8.341139758e-04,-1.727504640e-04,6.613635119e-04,1.058414200e-03,1.202819493e-04,1.178696150e-03,1.439693461e-03,8.332012125e-05,1.523013582e-03,3.762808221e-04,7.152626760e-04,1.091543498e-03,1.888141203e-03,7.079642616e-04,2.596105465e-03,2.083053145e-03,2.421120717e-04,2.325165217e-03,2.940995420e-03,-4.473350318e-04,2.493660388e-03,2.052436457e-03,1.248524528e-03,3.300960985e-03,2.482497657e-03,1.015964565e-03,3.498462222e-03
-4,-7.812021684e-05,-5.321523478e-05,-1.313354516e-04,-5.331067598e-04,8.399987972e-05,-4.491068801e-04,6.047318941e-04,-8.403291263e-05,5.206989815e-04,-4.103542368e-05,7.645486530e-06,-3.338993715e-05,5.789800626e-04,-1.896310436e-04,3.893490189e-04,2.609831336e-04,-5.140840494e-04,-2.531009158e-04,4.412946300e-04,-4.982917043e-05,3.914654596e-04,6.395117804e-04,-9.649322175e-05,5.430185586e-04,6.142773157e-04,-1.015071046e-04,5.127702111e-04,6.592536053e-04,-1.229738638e-04,5.362797415e-04,7.251866086e-04,-8.891678581e-05,6.362698228e-04,1.297328365e-03,-1.110703612e-04,1.186258003e-03,1.454042083e-03,-1.861949039e-04,1.267847179e-03,5.237063750e-04,-1.276176189e-04,3.960887561e-04,7.661231778e-04,-1.016139982e-05,7.559617780e-04,1.678643713e-03,-4.715759680e-05,1.631486116e-03,2.562141930e-03,-2.341516577e-05,2.538726764e-03,1.025316841e-03,2.893248384e-05,1.054249325e-03,1.619596155e-03,2.046518808e-04,1.824248036e-03,7.882047620e-04,-1.287189979e-04,6.594857641e-04,8.694482854e-04,8.981448174e-06,8.784297335e-04,1.032375929e-03,4.255704647e-05,1.074932975e-03,6.339612572e-04,-1.334982291e-04,5.004630281e-04,2.593578073e-04,7.931461601e-05,3.386724233e-04,3.754074870e-04,2.316350067e-04,6.070424936e-04,7.158640675e-04,-8.624540719e-05,6.296186603e-04,2.840096487e-04,2.932965683e-04,5.773062171e-04,8.698306772e-04,-1.724635860e-04,6.973670912e-04,1.131901310e-03,1.202439145e-04,1.252145225e-03,1.447539530e-03,8.010805741e-05,1.527647587e-03,4.775817468e-04,6.966740969e-04,1.174255844e-03,1.910963190e-03,6.642388001e-04,2.575201990e-03,2.162652384e-03,2.251965866e-04,2.387848970e-03,2.805321256e-03,-4.202720049e-04,2.385049251e-03,1.982284293e-03,1.338327306e-03,3.320611598e-03,2.214544999e-03,9.973414627e-04,3.211886461e-03
-3.9,-1.690168003e-04,-4.752376499e-05,-2.165405652e-04,-6.162431174e-04,8.961664164e-05,-5.266264758e-04,5.724743813e-04,-7.702408264e-05,4.954502987e-04,-8.029392832e-05,1.087532223e-05,-6.941860610e-05,5.661671022e-04,-1.855551277e-04,3.806119745e-04,1.935419254e-04,-4.837658302e-04,-2.902239049e-04,4.275021385e-04,-4.566041988e-05,3.818417186e-04,6.521362510e-04,-1.071341930e-04,5.450020580e-04,6.511717474e-04,-9.608337827e-05,5.550883691e-04,7.040108038e-04,-1.144995825e-04,5.895112212e-04,7.509803450e-04,-7.969705219e-05,6.712832928e-04,1.309636985e-03,-1.089464930e-04,1.200690492e-03,1.486254642e-03,-1.756798836e-04,1.310574759e-03,5.306423518e-04,-1.323770851e-04,3.982652667e-04,7.888710897e-04,-7.451177429e-06,7.814199123e-04,1.681376547e-03,-5.070563693e-05,1.630670911e-03,2.567481139e-03,-2.772550011e-05,2.539755639e-03,9.168152531e-04,2.936561553e-05,9.461808687e-04,1.521343666e-03,1.938563426e-04,1.715200009e-03,7.749897233e-04,-1.318332299e-04,6.431564934e-04,8.274046430e-04,1.377586995e-05,8.411805130e-04,1.000901322e-03,9.238058591e-06,1.010139380e-03,5.930271350e-04,-1.303949856e-04,4.626321493e-04,1.837625305e-04,9.592413105e-05,2.796866616e-04,3.826671649e-04,2.445760293e-04,6.272431942e-04,7.280897507e-04,-8.643464618e-05,6.416551045e-04,3.334544895e-04,2.905407508e-04,6.239952403e-04,9.024982086e-04,-1.707311584e-04,7.317670501e-04,1.203927477e-03,1.193707884e-04,1.323298265e-03,1.451323215e-03,7.630795381e-05,1.527631169e-03,5.798348891e-04,6.777814549e-04,1.257616344e-03,1.928074250e-03,6.174992601e-04,2.545573510e-03,2.237306269e-03,2.075870584e-04,2.444893327e-03,2.662052551e-03,-3.936586105e-04,2.268393941e-03,1.910622189e-03,1.419895798e-03,3.330517987e-03,1.934153458e-03,9.791521635e-04,2.913305622e-03
-3.8,-2.587935608e-04,-4.210552247e-05,-3.008990832e-04,-6.953062326e-04,9.450394287e-05,-6.008022897e-04,5.380828665e-04,-6.978203453e-05,4.683008319e-04,-1.181255190e-04,1.402898338e-05,-1.040965356e-04,5.519465654e-04,-1.809231477e-04,3.710234177e-04,1.261837557e-04,-4.502236740e-04,-3.240399184e-04,4.125264969e-04,-4.126263993e-05,3.712638569e-04,6.641200812e-04,-1.187843466e-04,5.453357346e-04,6.865159231e-04,-9.041147378e-05,5.961044493e-04,7.469885158e-04,-1.056784695e-04,6.413100463e-04,7.750718819e-04,-7.050391284e-05,7.045679691e-04,1.318996220e-03,-1.064168173e-04,1.212579403e-03,1.515021524e-03,-1.636452598e-04,1.351376264e-03,5.362393406e-04,-1.368110141e-04,3.994283265e-04,8.102269969e-04,-4.845323496e-06,8.053816734e-04,1.678752992e-03,-5.388735027e-05,1.624865642e-03,2.562903410e-03,-3.177115739e-05,2.531132253e-03,8.050244463e-04,2.955809427e-05,8.345825405e-04,1.417676569e-03,1.819188166e-04,1.599595385e-03,7.586334637e-04,-1.345987955e-04,6.240346681e-04,7.829554233e-04,1.855158117e-05,8.015070045e-04,9.655630429e-04,-2.367420223e-05,9.418888407e-04,5.501765751e-04,-1.269799051e-04,4.231966699e-04,1.078605723e-04,1.113957095e-04,2.192562818e-04,3.902199352e-04,2.555672154e-04,6.457871506e-04,7.385696605e-04,-8.651318157e-05,6.520564790e-04,3.846080083e-04,2.844655711e-04,6.690735794e-04,9.320707246e-04,-1.675737481e-04,7.644969765e-04,1.274417246e-03,1.176371982e-04,1.392054444e-03,1.451063971e-03,7.192678503e-05,1.522990756e-03,6.830468801e-04,6.583462151e-04,1.341393095e-03,1.939653404e-03,5.690094423e-04,2.508662847e-03,2.306795672e-03,1.894722917e-04,2.496267964e-03,2.512374321e-03,-3.679465755e-04,2.144427746e-03,1.835773536e-03,1.494281554e-03,3.330055090e-03,1.642449416e-03,9.618206380e-04,2.604270054e-03
-3.7,-3.470117701e-04,-3.698023807e-05,-3.839920082e-04,-7.699321370e-04,9.862642947e-05,-6.713057075e-04,5.017476379e-04,-6.232377226e-05,4.394238656e-04,-1.543383605e-04,1.709987315e-05,-1.372384874e-04,5.364697434e-04,-1.757416024e-04,3.607281409e-04,5.944369887e-05,-4.138222941e-04,-3.543785952e-04,3.965130761e-04,-3.668814100e-05,3.598249351e-04,6.754535348e-04,-1.313609226e-04,5.440926122e-04,7.203652799e-04,-8.451479625e-05,6.358504837e-04,7.882207044e-04,-9.655106154e-05,6.916696428e-04,7.975129295e-04,-6.137176911e-05,7.361411604e-04,1.325441943e-03,-1.034937154e-04,1.221948227e-03,1.540590210e-03,-1.502425466e-04,1.390347663e-03,5.404902699e-04,-1.409155089e-04,3.995747609e-04,8.302570065e-04,-2.381933124e-06,8.278750733e-04,1.670560374e-03,-5.662085754e-05,1.613939516e-03,2.548301335e-03,-3.557404907e-05,2.512727286e-03,6.904896485e-04,2.942139855e-05,7.199110470e-04,1.308843133e-03,1.689470565e-04,1.477790190e-03,7.392533090e-04,-1.369756679e-04,6.022776411e-04,7.363931311e-04,2.327387296e-05,7.596670040e-04,9.265887806e-04,-5.611318981e-05,8.704755907e-04,5.056942355e-04,-1.232757703e-04,3.824184652e-04,3.187767731e-05,1.257655169e-04,1.576431942e-04,3.979755742e-04,2.647347658e-04,6.627103401e-04,7.473252431e-04,-8.651455282e-05,6.608106903e-04,4.375130758e-04,2.751723892e-04,7.126854650e-04,9.585381809e-04,-1.630296624e-04,7.955085185e-04,1.343319430e-03,1.150263777e-04,1.458345807e-03,1.446802863e-03,6.697794213e-05,1.513780805e-03,7.872194110e-04,6.381346936e-04,1.425354105e-03,1.945855240e-03,5.200541939e-04,2.465909434e-03,2.370932645e-03,1.710404016e-04,2.541973047e-03,2.357422649e-03,-3.435520965e-04,2.013870553e-03,1.755983660e-03,1.562725103e-03,3.318708763e-03,1.340792593e-03,9.455741539e-04,2.286366747e-03
-3.6,-4.332397933e-04,-3.216073024e-05,-4.654005236e-04,-8.397839496e-04,1.019572466e-04,-7.378267030e-04,4.636848078e-04,-5.466851728e-05,4.090162905e-04,-1.887415774e-04,2.008342698e-05,-1.686581504e-04,5.199092412e-04,-1.700197407e-04,3.498895005e-04,-6.142311069e-06,-3.749524626e-04,-3.810947737e-04,3.796275880e-04,-3.198832484e-05,3.476392632e-04,6.861079656e-04,-1.447408286e-04,5.413671370e-04,7.527883945e-04,-7.841936741e-05,6.743690271e-04,8.277569881e-04,-8.716195778e-05,7.405950303e-04,8.183635302e-04,-5.233374726e-05,7.660297830e-04,1.329028917e-03,-1.001947149e-04,1.228834202e-03,1.563225910e-03,-1.356448872e-04,1.427581022e-03,5.433992904e-04,-1.446883924e-04,3.987108981e-04,8.490356739e-04,-9.798586870e-08,8.489376881e-04,1.656618175e-03,-5.882775489e-05,1.597790420e-03,2.523632148e-03,-3.915291194e-05,2.484479236e-03,5.737592648e-04,2.887845595e-05,6.026377208e-04,1.195110221e-03,1.550639967e-04,1.350174218e-03,7.169988571e-04,-1.389144318e-04,5.780844252e-04,6.880293682e-04,2.791012747e-05,7.159394957e-04,8.842400507e-04,-8.802648982e-05,7.962135608e-04,4.598794119e-04,-1.193082431e-04,3.405711688e-04,-4.394370791e-05,1.390735150e-04,9.512980705e-05,4.058439736e-04,2.722336811e-04,6.780776546e-04,7.543832754e-04,-8.646741508e-05,6.679158603e-04,4.921827853e-04,2.628261841e-04,7.550089694e-04,9.819218728e-04,-1.571533219e-04,8.247685509e-04,1.410600023e-03,1.115317917e-04,1.522131815e-03,1.438593351e-03,6.148182641e-05,1.500075177e-03,8.923289423e-04,6.169333144e-04,1.509262257e-03,1.946801109e-03,4.718919839e-04,2.418693093e-03,2.429557851e-03,1.524751537e-04,2.582033004e-03,2.198250727e-03,-3.208456168e-04,1.877405110e-03,1.669489495e-03,1.626594306e-03,3.296083801e-03,1.030759747e-03,9.304297029e-04,1.961189450e-03
-3.5,-5.170578645e-04,-2.765335364e-05,-5.447112181e-04,-9.045577814e-04,1.044786427e-04,-8.000791387e-04,4.241308267e-04,-4.683808626e-05,3.772927405e-04,-2.211519254e-04,2.297694145e-05,-1.981749840e-04,5.024502398e-04,-1.637700605e-04,3.386801793e-04,-7.005157693e-05,-3.340190370e-04,-4.040706140e-04,3.620483332e-04,-2.721287945e-05,3.348354538e-04,6.960312051e-04,-1.587601489e-04,5.372710562e-04,7.838588995e-04,-7.215384343e-05,7.117050560e-04,8.656550947e-04,-7.755925936e-05,7.880958354e-04,8.376862833e-04,-4.342177366e-05,7.942645096e-04,1.329829245e-03,-9.654455686e-05,1.233284688e-03,1.583202119e-03,-1.200434837e-04,1.463158635e-03,5.449777797e-04,-1.481291225e-04,3.968486571e-04,8.666406746e-04,1.972000782e-06,8.686126754e-04,1.636779389e-03,-6.043410414e-05,1.576345285e-03,2.488915141e-03,-4.252255547e-05,2.446392586e-03,4.553761711e-04,2.786613766e-05,4.832423088e-04,1.076761188e-03,1.404063915e-04,1.217167579e-03,6.920452510e-04,-1.403581887e-04,5.516870624e-04,6.381868381e-04,3.243028220e-05,6.706171203e-04,8.388018117e-04,-1.193702765e-04,7.194315351e-04,4.130374529e-04,-1.151063521e-04,2.979311008e-04,-1.193496302e-04,1.513614921e-04,3.201186190e-05,4.137377517e-04,2.782409267e-04,6.919786784e-04,7.597698842e-04,-8.639452459e-05,6.733753596e-04,5.485909268e-04,2.476505531e-04,7.962414798e-04,1.002268816e-03,-1.500136893e-04,8.522551264e-04,1.476233624e-03,1.071596651e-04,1.583393289e-03,1.426492660e-03,5.546665596e-05,1.481959316e-03,9.983120457e-04,5.945578696e-04,1.592869915e-03,1.942567704e-03,4.257154710e-04,2.368283176e-03,2.482535568e-03,1.339530715e-04,2.616488640e-03,2.035801208e-03,-3.001410251e-04,1.735660183e-03,1.574614500e-03,1.687303204e-03,3.261917704e-03,7.141139936e-04,9.162012061e-04,1.630315200e-03
