Time,S1D1HbO,S1D1HbR,S1D1HbT,S2D2HbO,S2D2HbR,S2D2HbT,S3D3HbO,S3D3HbR,S3D3HbT,S4D4HbO,S4D4HbR,S4D4HbT,S5D5HbO,S5D5HbR,S5D5HbT,S6D6HbO,S6D6HbR,S6D6HbT,S7D7HbO,S7D7HbR,S7D7HbT,S8D8HbO,S8D8HbR,S8D8HbT,S9D9HbO,S9D9HbR,S9D9HbT,S10D10HbO,S10D10HbR,S10D10HbT,S11D11HbO,S11D11HbR,S11D11HbT,S12D12HbO,S12D12HbR,S12D12HbT,S13D13HbO,S13D13HbR,S13D13HbT,S14D14HbO,S14D14HbR,S14D14HbT,S15D15HbO,S15D15HbR,S15D15HbT,S16D16HbO,S16D16HbR,S16D16HbT,S17D17HbO,S17D17HbR,S17D17HbT,S18D18HbO,S18D18HbR,S18D18HbT,S19D19HbO,S19D19HbR,S19D19HbT,S20D20HbO,S20D20HbR,S20D20HbT,S21D21HbO,S21D21HbR,S21D21HbT,S22D22HbO,S22D22HbR,S22D22HbT,S23D23HbO,S23D23HbR,S23D23HbT,S24D24HbO,S24D24HbR,S24D24HbT,S25D25HbO,S25D25HbR,S25D25HbT,S26D26HbO,S26D26HbR,S26D26HbT,S27D27HbO,S27D27HbR,S27D27HbT,S28D28HbO,S28D28HbR,S28D28HbT,S29D29HbO,S29D29HbR,S29D29HbT,S30D30HbO,S30D30HbR,S30D30HbT,S31D31HbO,S31D31HbR,S31D31HbT,S32D32HbO,S32D32HbR,S32D32HbT,S33D33HbO,S33D33HbR,S33D33HbT,S34D34HbO,S34D34HbR,S34D34HbT,S35D35HbO,S35D35HbR,S35D35HbT,S36D36HbO,S36D36HbR,S36D36HbT,
-10,-1.599677951e-03,8.646110049e-04,-7.350669464e-04,-1.198065912e-03,3.538957890e-04,-8.441701228e-04,-1.434951996e-03,3.076894264e-04,-1.127262570e-03,-1.223299197e-03,-2.673273026e-06,-1.225972470e-03,-1.009719398e-03,-2.114987052e-04,-1.221218103e-03,-1.431145770e-03,3.112165634e-06,-1.428033605e-03,-1.121151939e-03,1.358608520e-04,-9.852910867e-04,-7.006660004e-04,2.649500945e-05,-6.741709909e-04,-1.906018941e-03,-8.452863798e-05,-1.990547578e-03,-6.943893423e-04,5.384427559e-05,-6.405450667e-04,-1.159811455e-03,-8.116445502e-05,-1.240975910e-03,-2.724817681e-04,2.895772244e-04,1.709545631e-05,3.755416681e-04,1.684926881e-04,5.440343562e-04,-2.814429678e-04,3.342643392e-04,5.282137144e-05,4.206885311e-04,1.890964867e-04,6.097850178e-04,1.671405896e-04,1.630171757e-04,3.301577653e-04,-3.936084329e-04,3.074176430e-04,-8.619078993e-05,1.561639432e-04,8.640382365e-05,2.425677668e-04,1.286824221e-05,1.405667481e-04,1.534349903e-04,-2.938517772e-04,5.602186011e-05,-2.378299171e-04,-6.706219676e-04,9.913496845e-05,-5.714869992e-04,-5.071715163e-04,-3.293077794e-04,-8.364792957e-04,-1.111481470e-03,-2.741906143e-04,-1.385672084e-03,-1.274852687e-03,-6.170321835e-04,-1.891884870e-03,1.015843383e-03,1.857207327e-04,1.201564116e-03,4.424775471e-04,2.434739126e-04,6.859514597e-04,8.886267613e-04,1.072623638e-04,9.958891251e-04,4.961844359e-04,3.610789856e-04,8.572634214e-04,8.367270690e-04,1.447452553e-04,9.814723243e-04,1.169005555e-03,2.268740134e-04,1.395879568e-03,5.769489344e-04,2.280920813e-04,8.050410157e-04,1.002714880e-03,1.019135929e-04,1.104628473e-03,4.306203873e-04,6.708947303e-06,4.373293346e-04,-3.771467651e-06,1.201850669e-04,1.164135993e-04,3.996553539e-04,2.622747968e-04,6.619301507e-04,1.104431648e-04,5.487887739e-05,1.653220422e-04
-9.9,-1.557200185e-03,8.607977915e-04,-6.964023932e-04,-1.183270308e-03,3.545110476e-04,-8.287592607e-04,-1.415490974e-03,3.095379558e-04,-1.105953018e-03,-1.221171781e-03,-3.047360590e-06,-1.224219142e-03,-9.946959606e-04,-2.074816313e-04,-1.202177592e-03,-1.364422764e-03,-3.122899812e-05,-1.395651762e-03,-1.097191560e-03,1.318352316e-04,-9.653563282e-04,-7.046156138e-04,4.045345568e-05,-6.641621581e-04,-1.888346582e-03,-8.772680215e-05,-1.976073384e-03,-7.099647127e-04,5.531585684e-05,-6.546488559e-04,-1.157213884e-03,-7.866717392e-05,-1.235881058e-03,-2.580268051e-04,2.792914974e-04,2.126469223e-05,3.825399997e-04,1.560350511e-04,5.385750508e-04,-2.647523750e-04,3.254767721e-04,6.072439711e-05,4.139115286e-04,1.825491365e-04,5.964606650e-04,1.493673723e-04,1.622996845e-04,3.116670568e-04,-3.968006794e-04,3.072194621e-04,-8.958121735e-05,1.362619164e-04,9.060722447e-05,2.268691409e-04,9.300219924e-06,1.364943515e-04,1.457945714e-04,-2.922381236e-04,5.888806812e-05,-2.333500554e-04,-6.806416824e-04,1.006726668e-04,-5.799690156e-04,-5.190818865e-04,-3.233657099e-04,-8.424475964e-04,-1.095853317e-03,-2.620784516e-04,-1.357931769e-03,-1.246797546e-03,-5.938777596e-04,-1.840675306e-03,1.001866530e-03,1.765391849e-04,1.178405715e-03,4.369445596e-04,2.415481077e-04,6.784926672e-04,8.719922510e-04,1.044692292e-04,9.764614803e-04,4.838175153e-04,3.603464066e-04,8.441639219e-04,8.156445819e-04,1.371796706e-04,9.528242525e-04,1.123466142e-03,2.242402928e-04,1.347706435e-03,5.565581215e-04,2.191852084e-04,7.757433299e-04,9.583864915e-04,9.504268551e-05,1.053429177e-03,4.324299498e-04,-2.487505768e-05,4.075548921e-04,-1.007732484e-05,1.126569100e-04,1.025795851e-04,3.652957498e-04,2.521513482e-04,6.174470980e-04,8.853938171e-05,5.999130937e-05,1.485306911e-04
-9.8,-1.513979483e-03,8.562097021e-04,-6.577697811e-04,-1.166706241e-03,3.544560774e-04,-8.122501633e-04,-1.391695846e-03,3.111263272e-04,-1.080569518e-03,-1.215116719e-03,-3.184246011e-06,-1.218300965e-03,-9.746670432e-04,-2.029338900e-04,-1.177600933e-03,-1.296030410e-03,-6.539259194e-05,-1.361423002e-03,-1.071455042e-03,1.277152789e-04,-9.437397633e-04,-7.081574541e-04,5.435100013e-05,-6.538064540e-04,-1.863006830e-03,-9.082409830e-05,-1.953830928e-03,-7.217086751e-04,5.684029253e-05,-6.648683825e-04,-1.148324357e-03,-7.569321529e-05,-1.224017572e-03,-2.455325393e-04,2.685607069e-04,2.302816765e-05,3.856909655e-04,1.435310541e-04,5.292220196e-04,-2.493996406e-04,3.164095557e-04,6.700991514e-05,4.040176286e-04,1.756785821e-04,5.796962107e-04,1.299913335e-04,1.605802618e-04,2.905715953e-04,-4.013472132e-04,3.051082011e-04,-9.623901210e-05,1.143548884e-04,9.363474934e-05,2.079896377e-04,3.930047332e-06,1.320162576e-04,1.359463050e-04,-2.895222761e-04,6.119271259e-05,-2.283295635e-04,-6.879622397e-04,1.024003705e-04,-5.855618692e-04,-5.295612367e-04,-3.158816465e-04,-8.454428832e-04,-1.075200594e-03,-2.500503871e-04,-1.325250981e-03,-1.215766896e-03,-5.707463457e-04,-1.786513242e-03,9.843227654e-04,1.681367661e-04,1.152459532e-03,4.303600126e-04,2.392658537e-04,6.696258664e-04,8.525804373e-04,1.013127005e-04,9.538931378e-04,4.704865589e-04,3.584343326e-04,8.289208915e-04,7.914391646e-04,1.300148644e-04,9.214540290e-04,1.075037776e-03,2.205550283e-04,1.295592804e-03,5.322157930e-04,2.100806778e-04,7.422964708e-04,9.101996049e-04,8.792125788e-05,9.981208628e-04,4.286206703e-04,-5.534392844e-05,3.732767418e-04,-1.934265505e-05,1.044217109e-04,8.507905586e-05,3.281502181e-04,2.410124233e-04,5.691626414e-04,6.439657950e-05,6.455105390e-05,1.289476334e-04
-9.7,-1.470020889e-03,8.508348397e-04,-6.191860495e-04,-1.148250354e-03,3.536953148e-04,-7.945550391e-04,-1.363555075e-03,3.124329388e-04,-1.051122136e-03,-1.205046490e-03,-3.078246416e-06,-1.208124737e-03,-9.497715716e-04,-1.978592957e-04,-1.147630867e-03,-1.226402713e-03,-9.891098075e-05,-1.325313694e-03,-1.043970417e-03,1.235429769e-04,-9.204274398e-04,-7.110787505e-04,6.797674913e-05,-6.431020014e-04,-1.829920108e-03,-9.374895985e-05,-1.923669068e-03,-7.296159889e-04,5.842978820e-05,-6.711862007e-04,-1.133152450e-03,-7.226266767e-05,-1.205415117e-03,-2.348673852e-04,2.573854417e-04,2.251805648e-05,3.851122413e-04,1.310040193e-04,5.161162606e-04,-2.353051964e-04,3.070413141e-04,7.173611779e-05,3.911836873e-04,1.684728656e-04,5.596565529e-04,1.090506680e-04,1.579086808e-04,2.669593488e-04,-4.072361274e-04,3.011842385e-04,-1.060518888e-04,9.052840192e-05,9.545706787e-05,1.859854698e-04,-3.215762302e-06,1.271486753e-04,1.239329130e-04,-2.856302616e-04,6.295273421e-05,-2.226775274e-04,-6.923641879e-04,1.042788062e-04,-5.880853817e-04,-5.385586888e-04,-3.068001397e-04,-8.453588285e-04,-1.049560526e-03,-2.381369027e-04,-1.287697429e-03,-1.181866474e-03,-5.476644054e-04,-1.729530879e-03,9.632601446e-04,1.604109567e-04,1.123671101e-03,4.227259244e-04,2.365710250e-04,6.592969494e-04,8.303135994e-04,9.781200944e-05,9.281256089e-04,4.563329296e-04,3.552163628e-04,8.115492924e-04,7.641269953e-04,1.232825451e-04,8.874095403e-04,1.023877784e-03,2.158100657e-04,1.239687850e-03,5.040544891e-04,2.008646816e-04,7.049191707e-04,8.584593508e-04,8.054623314e-05,9.390055840e-04,4.192312543e-04,-8.435592386e-05,3.348753304e-04,-3.132529945e-05,9.556450575e-05,6.423920630e-05,2.885770005e-04,2.289468880e-04,5.175238885e-04,3.831204740e-05,6.855841825e-05,1.068704657e-04
-9.6,-1.425323751e-03,8.446688376e-04,-5.806549134e-04,-1.127788683e-03,3.522063886e-04,-7.755822943e-04,-1.331102797e-03,3.134389802e-04,-1.017663816e-03,-1.190903027e-03,-2.721022582e-06,-1.193624050e-03,-9.201884476e-04,-1.922627143e-04,-1.112451162e-03,-1.155951687e-03,-1.313193447e-04,-1.287271032e-03,-1.014771084e-03,1.193638346e-04,-8.954072495e-04,-7.131610296e-04,8.111091909e-05,-6.320501105e-04,-1.789062542e-03,-9.642978363e-05,-1.885492326e-03,-7.336993166e-04,6.009860669e-05,-6.736007099e-04,-1.111759932e-03,-6.839845117e-05,-1.180158383e-03,-2.258820755e-04,2.457736703e-04,1.989159484e-05,3.809583693e-04,1.184803373e-04,4.994387066e-04,-2.223744826e-04,2.973532441e-04,7.497876151e-05,3.756248306e-04,1.609231845e-04,5.365480151e-04,8.661075389e-05,1.543478408e-04,2.409585947e-04,-4.144253087e-04,2.955641297e-04,-1.188611791e-04,6.489680270e-05,9.607371882e-05,1.609705215e-04,-1.208981852e-05,1.219159933e-04,1.098261747e-04,-2.805238807e-04,6.418481380e-05,-2.163390669e-04,-6.936582710e-04,1.062682115e-04,-5.873900595e-04,-5.460293194e-04,-2.960881352e-04,-8.421174546e-04,-1.019010005e-03,-2.263659294e-04,-1.245375934e-03,-1.145217606e-03,-5.246601058e-04,-1.669877711e-03,9.387686192e-04,1.532485969e-04,1.092017216e-03,4.140599227e-04,2.334111923e-04,6.474711149e-04,8.051519452e-04,9.399626758e-05,8.991482127e-04,4.415089554e-04,3.505771890e-04,7.920861443e-04,7.337666827e-04,1.170014671e-04,8.507681498e-04,9.701721405e-04,2.100176223e-04,1.180189763e-03,4.722664413e-04,1.916108852e-04,6.638773265e-04,8.035117208e-04,7.292238393e-05,8.764341047e-04,4.043600308e-04,-1.115843778e-04,2.927756530e-04,-4.574879644e-05,8.617358147e-05,4.042478503e-05,2.469639447e-04,2.160429868e-04,4.630069315e-04,1.061005097e-05,7.202110121e-05,8.263115219e-05
-9.5,-1.379880781e-03,8.377153039e-04,-5.421654770e-04,-1.105221426e-03,3.499825380e-04,-7.552388877e-04,-1.294418552e-03,3.141289583e-04,-9.802895934e-04,-1.172658650e-03,-2.102130384e-06,-1.174760781e-03,-8.861330107e-04,-1.861494660e-04,-1.072282477e-03,-1.085059971e-03,-1.621697326e-04,-1.247229703e-03,-9.838951620e-04,1.152261937e-04,-8.686689683e-04,-7.141875692e-04,9.353104273e-05,-6.206565265e-04,-1.740470786e-03,-9.879667702e-05,-1.839267463e-03,-7.339872277e-04,6.186242069e-05,-6.721248070e-04,-1.084258286e-03,-6.412556829e-05,-1.148383854e-03,-2.184113389e-04,2.337410513e-04,1.532971242e-05,3.734182879e-04,1.059888374e-04,4.794071254e-04,-2.104981398e-04,2.873300591e-04,7.683191928e-05,3.575904010e-04,1.530248120e-04,5.106152130e-04,6.276389201e-05,1.499726149e-04,2.127365069e-04,-4.228453440e-04,2.883795488e-04,-1.344657952e-04,3.760296470e-05,9.551327910e-05,1.331162438e-04,-2.262455705e-05,1.163519890e-04,9.372743198e-05,-2.742002584e-04,6.490493631e-05,-2.092953221e-04,-6.916875953e-04,1.083295264e-04,-5.833580689e-04,-5.519321725e-04,-2.837357487e-04,-8.356679212e-04,-9.836642437e-04,-2.147622946e-04,-1.198426538e-03,-1.105953301e-03,-5.017624920e-04,-1.607715793e-03,9.109825858e-04,1.465293414e-04,1.057511927e-03,4.043980857e-04,2.297390121e-04,6.341370978e-04,7.771016052e-04,8.990129089e-05,8.670028960e-04,4.261740150e-04,3.444173026e-04,7.705913176e-04,7.004611359e-04,1.111781943e-04,8.116393301e-04,9.141360408e-04,2.032110060e-04,1.117347047e-03,4.371048111e-04,1.823770449e-04,6.194818561e-04,7.457399514e-04,6.506253891e-05,8.108024903e-04,3.841655985e-04,-1.367250306e-04,2.474405679e-04,-6.230730870e-05,7.633920632e-05,1.403189762e-05,2.037223818e-04,2.023880458e-04,4.061104276e-04,-1.836080017e-05,7.494960290e-05,5.658880274e-05
-9.4,-1.333677173e-03,8.299859574e-04,-5.036912151e-04,-1.080466873e-03,3.470344446e-04,-7.334324285e-04,-1.253625664e-03,3.144911310e-04,-9.391345332e-04,-1.150316152e-03,-1.209697150e-06,-1.151525849e-03,-8.478526177e-04,-1.795248327e-04,-1.027377450e-03,-1.014077897e-03,-1.910430306e-04,-1.205120928e-03,-9.513846021e-04,1.111804044e-04,-8.402041978e-04,-7.139502421e-04,1.050180980e-04,-6.089321441e-04,-1.684246464e-03,-1.007833948e-04,-1.785029859e-03,-7.305222205e-04,6.373746082e-05,-6.667847597e-04,-1.050805817e-03,-5.947040496e-05,-1.110276222e-03,-2.122756639e-04,2.213110113e-04,9.035347403e-06,3.627133709e-04,9.356009102e-05,4.562734619e-04,-1.995526313e-04,2.769609130e-04,7.740828172e-05,3.373592865e-04,1.447780055e-04,4.821372920e-04,3.762897390e-05,1.448682574e-04,1.824972313e-04,-4.324038757e-04,2.797765430e-04,-1.526273327e-04,8.818495124e-06,9.383205720e-05,1.026505523e-04,-3.473233427e-05,1.105006899e-04,7.576835564e-05,-2.666899300e-04,6.512834806e-05,-2.015615820e-04,-6.863287809e-04,1.104254214e-04,-5.759033595e-04,-5.562276937e-04,-2.697569258e-04,-8.259846195e-04,-9.436751050e-04,-2.033473114e-04,-1.147022416e-03,-1.064214354e-03,-4.790007220e-04,-1.543215076e-03,8.800838439e-04,1.401290811e-04,1.020212925e-03,3.937976636e-04,2.255136591e-04,6.193113226e-04,7.462202241e-04,8.556777166e-05,8.317879958e-04,4.104907464e-04,3.366574422e-04,7.471481886e-04,6.643576934e-04,1.058084834e-04,7.701661768e-04,8.560130670e-04,1.954445302e-04,1.051457597e-03,3.988829643e-04,1.732030505e-04,5.720860148e-04,6.855599380e-04,5.698724371e-05,7.425471817e-04,3.588663619e-04,-1.595026245e-04,1.993637373e-04,-8.067110655e-05,6.615267099e-05,-1.451843556e-05,1.592804123e-04,1.880688574e-04,3.473492697e-04,-4.823163755e-05,7.735367003e-05,2.912203248e-05
-9.3,-1.286690328e-03,8.215004767e-04,-4.651898515e-04,-1.053464336e-03,3.433909473e-04,-7.100733891e-04,-1.208888831e-03,3.145179050e-04,-8.943709263e-04,-1.123908411e-03,-3.124995889e-08,-1.123939661e-03,-8.056219963e-04,-1.723936467e-04,-9.780156430e-04,-9.433241431e-04,-2.175585488e-04,-1.160882692e-03,-9.172846554e-04,1.072779085e-04,-8.100067469e-04,-7.122548396e-04,1.153614161e-04,-5.968934235e-04,-1.620560087e-03,-1.023292277e-04,-1.722889315e-03,-7.233595051e-04,6.573955741e-05,-6.576199476e-04,-1.011604957e-03,-5.446010595e-05,-1.066065063e-03,-2.072840402e-04,2.085148109e-04,1.230770710e-06,3.490955712e-04,8.122536879e-05,4.303209400e-04,-1.894020937e-04,2.662402051e-04,7.683811141e-05,3.152341339e-04,1.361887046e-04,4.514228384e-04,1.135015833e-05,1.391285680e-04,1.504787264e-04,-4.429906563e-04,2.699143340e-04,-1.730763223e-04,-2.125681681e-05,9.111161975e-05,6.985480295e-05,-4.830618995e-05,1.044169801e-04,5.611079011e-05,-2.580535588e-04,6.486973018e-05,-1.931838287e-04,-6.774924012e-04,1.125210628e-04,-5.649713384e-04,-5.588750233e-04,-2.541901657e-04,-8.130651889e-04,-8.992296221e-04,-1.921384819e-04,-1.091368104e-03,-1.020145972e-03,-4.564033605e-04,-1.476549332e-03,8.463027092e-04,1.339236149e-04,9.802263241e-04,3.823379594e-04,2.207021461e-04,6.030401055e-04,7.126195428e-04,8.103989901e-05,7.936594418e-04,3.946208485e-04,3.272426536e-04,7.218635021e-04,6.256456611e-04,1.008794605e-04,7.265251216e-04,7.960726617e-04,1.867925294e-04,9.828651911e-04,3.579710943e-04,1.641104100e-04,5.220815042e-04,6.234142534e-04,4.872394942e-05,6.721382028e-04,3.287375730e-04,-1.796759936e-04,1.490615795e-04,-1.004926459e-04,5.570523354e-05,-4.478741232e-05,1.140750004e-04,1.731724717e-04,2.872474721e-04,-7.861942632e-05,7.924017400e-05,6.207476756e-07
-9.2,-1.238890614e-03,8.122861040e-04,-4.266045100e-04,-1.024176040e-03,3.390982174e-04,-6.850778226e-04,-1.160411337e-03,3.142061908e-04,-8.462051465e-04,-1.093497928e-03,1.445334068e-06,-1.092052594e-03,-7.597389380e-04,-1.647599835e-04,-9.244989215e-04,-8.730883665e-04,-2.413818944e-04,-1.114470261e-03,-8.816439786e-04,1.035702304e-04,-7.780737482e-04,-7.089247112e-04,1.243624964e-04,-5.845622148e-04,-1.549653960e-03,-1.033805754e-04,-1.653034536e-03,-7.125668659e-04,6.788321846e-05,-6.446836474e-04,-9.669000132e-04,-4.912201187e-05,-1.016022025e-03,-2.032379292e-04,1.953916680e-04,-7.846261208e-06,3.328451447e-04,6.901520151e-05,4.018603462e-04,-1.799014340e-04,2.551681349e-04,7.526670086e-05,2.915346208e-04,1.272688452e-04,4.188034660e-04,-1.590601934e-05,1.328539357e-04,1.169479163e-04,-4.544822387e-04,2.589634093e-04,-1.955188294e-04,-5.239714803e-05,8.745554904e-05,3.505840101e-05,-6.322220618e-05,9.816717934e-05,3.494497316e-05,-2.483774965e-04,6.414358596e-05,-1.842339105e-04,-6.651229799e-04,1.145847345e-04,-5.505382454e-04,-5.598296990e-04,-2.370990223e-04,-7.969287214e-04,-8.505488208e-04,-1.811492735e-04,-1.031698094e-03,-9.738952401e-04,-4.339976787e-04,-1.407892919e-03,8.099157760e-04,1.277926810e-04,9.377084570e-04,3.701186323e-04,2.152804014e-04,5.853990337e-04,6.764652260e-04,7.636398904e-05,7.528292150e-04,3.787205977e-04,3.161454723e-04,6.948660700e-04,5.845513934e-04,9.637251795e-05,6.809239114e-04,7.346064247e-04,1.773474315e-04,9.119538562e-04,3.147897840e-04,1.551032329e-04,4.698930169e-04,5.597650376e-04,4.030584402e-05,6.000708816e-04,2.941063462e-04,-1.970420353e-04,9.706431092e-05,-1.214127275e-04,4.508655804e-05,-7.632616950e-05,6.854332995e-05,1.577870441e-04,2.263303741e-04,-1.091348526e-04,8.061246971e-05,-2.852238285e-05
-9.1,-1.190243150e-03,8.023769977e-04,-3.878661519e-04,-9.925879555e-04,3.342173271e-04,-6.583706284e-04,-1.108431959e-03,3.135576448e-04,-7.948743140e-04,-1.059176384e-03,3.230788815e-06,-1.055945595e-03,-7.105205579e-04,-1.566270203e-04,-8.671475782e-04,-8.036354690e-04,-2.622306971e-04,-1.065866166e-03,-8.445152280e-04,1.001079016e-04,-7.444073264e-04,-7.038032926e-04,1.318383901e-04,-5.719649025e-04,-1.471843543e-03,-1.038920245e-04,-1.575735568e-03,-6.982253683e-04,7.018089680e-05,-6.280444715e-04,-9.169751441e-04,-4.348309938e-05,-9.604582435e-04,-1.999358768e-04,1.819888008e-04,-1.794707599e-05,3.142674935e-04,5.695797477e-05,3.712254683e-04,-1.708999806e-04,2.437509441e-04,7.285096354e-05,2.665903886e-04,1.180363375e-04,3.846267261e-04,-4.395477252e-05,1.261492791e-04,8.219450656e-05,-4.667452591e-04,2.471028607e-04,-2.196423984e-04,-8.435434897e-05,8.298572639e-05,-1.368622579e-06,-7.934329871e-05,9.182941209e-05,1.248611339e-05,-2.377685415e-04,6.296495646e-05,-1.748035851e-04,-6.491986352e-04,1.165884536e-04,-5.326101815e-04,-5.590422947e-04,-2.185717070e-04,-7.776140017e-04,-7.978864990e-04,-1.703889750e-04,-9.682754740e-04,-9.256094021e-04,-4.118089689e-04,-1.337418371e-03,7.712405318e-04,1.216238933e-04,8.928644251e-04,3.572560875e-04,2.092340089e-04,5.664900964e-04,6.379743731e-04,7.158738464e-05,7.095617578e-04,3.629366031e-04,3.033677324e-04,6.663043356e-04,5.413319508e-04,9.226649532e-05,6.335984461e-04,6.719238533e-04,1.672171492e-04,8.391410026e-04,2.698009782e-04,1.461704411e-04,4.159714193e-04,4.950864968e-04,3.177053886e-05,5.268570356e-04,2.553457707e-04,-2.114390628e-04,4.390670785e-05,-1.430660170e-04,3.438257769e-05,-1.086834393e-04,2.311452022e-05,1.420022893e-04,1.651168095e-04,-1.393914103e-04,8.147116079e-05,-5.792024949e-05
-9,-1.140710281e-03,7.918133083e-04,-3.488969732e-04,-9.587096652e-04,3.288206964e-04,-6.298889688e-04,-1.053221337e-03,3.125787587e-04,-7.406425785e-04,-1.021064066e-03,5.333445174e-06,-1.015730621e-03,-6.582999524e-04,-1.479970880e-04,-8.062970404e-04,-7.352115888e-04,-2.798766334e-04,-1.015088222e-03,-8.059556730e-04,9.693939896e-05,-7.090162741e-04,-6.967559733e-04,1.376248367e-04,-5.591311366e-04,-1.387516714e-03,-1.038269005e-04,-1.491343615e-03,-6.804302362e-04,7.264249515e-05,-6.077877410e-04,-8.621520722e-04,-3.756939296e-05,-8.997214652e-04,-1.971776131e-04,1.683611081e-04,-2.881650506e-05,2.936890629e-04,4.507923773e-05,3.387683007e-04,-1.622446949e-04,2.320008907e-04,6.975619584e-05,2.407344623e-04,1.085149144e-04,3.492493768e-04,-7.259733496e-05,1.191218436e-04,4.652450867e-05,-4.796378831e-04,2.345169751e-04,-2.451209080e-04,-1.168624890e-04,7.783828969e-05,-3.902419934e-05,-9.652314564e-05,8.549318037e-05,-1.102996527e-05,-2.263481987e-04,6.135044273e-05,-1.649977559e-04,-6.297301460e-04,1.185085080e-04,-5.112216379e-04,-5.564581826e-04,-1.987193253e-04,-7.551775079e-04,-7.415274172e-04,-1.598626774e-04,-9.013900946e-04,-8.754345955e-04,-3.898599891e-04,-1.265294585e-03,7.306284738e-04,1.153158331e-04,8.459443070e-04,3.438795625e-04,2.025585708e-04,5.464381333e-04,5.974110740e-04,6.675783252e-05,6.641689065e-04,3.474020926e-04,2.889412574e-04,6.363433500e-04,4.962687124e-04,8.854059610e-05,5.848093085e-04,6.083481905e-04,1.565221598e-04,7.648703503e-04,2.234976070e-04,1.372885599e-04,3.607861669e-04,4.298577728e-04,2.315895253e-05,4.530167253e-04,2.128686597e-04,-2.227493042e-04,-9.880644492e-06,-1.650855065e-04,2.367320481e-05,-1.414123017e-04,-2.179692025e-05,1.259090644e-04,1.041121441e-04,-1.690143375e-04,8.181556874e-05,-8.719876879e-05
-8.9,-1.090254224e-03,7.806400148e-04,-3.096142093e-04,-9.225733303e-04,3.229882305e-04,-5.995850999e-04,-9.950775795e-04,3.112808485e-04,-6.837967309e-04,-9.793089609e-04,7.758487855e-06,-9.715504731e-04,-6.034228582e-04,-1.388718811e-04,-7.422947393e-04,-6.680507433e-04,-2.941427825e-04,-9.621935258e-04,-7.660272832e-04,9.411015095e-05,-6.719171323e-04,-6.876710921e-04,1.415789386e-04,-5.460921535e-04,-1.297130536e-03,-1.031574153e-04,-1.400287951e-03,-6.592912171e-04,7.527508616e-05,-5.840161309e-04,-8.027869973e-04,-3.140540928e-05,-8.341924066e-04,-1.947665608e-04,1.545702466e-04,-4.019631418e-05,2.714528367e-04,3.340210988e-05,3.048549466e-04,-1.537822427e-04,2.199360573e-04,6.615381463e-05,2.142979783e-04,9.873402821e-05,3.130320065e-04,-1.016241913e-04,1.118788536e-04,1.025466230e-05,-4.930096204e-04,2.213911753e-04,-2.716184451e-04,-1.496421812e-04,7.215929960e-05,-7.748288161e-05,-1.146088005e-04,7.925782166e-05,-3.535097883e-05,-2.142466017e-04,5.931930391e-05,-1.549272978e-04,-6.067590733e-04,1.203256913e-04,-4.864333820e-04,-5.520179747e-04,-1.776732185e-04,-7.296911933e-04,-6.817845439e-04,-1.495714066e-04,-8.313559506e-04,-8.235147261e-04,-3.681706325e-04,-1.191685359e-03,6.884586624e-04,1.087799677e-04,7.972386301e-04,3.301284724e-04,1.952597287e-04,5.253882011e-04,5.550807624e-04,6.192305962e-05,6.170038221e-04,3.322340445e-04,2.729279259e-04,6.051619704e-04,4.496618344e-04,8.517684341e-05,5.348386778e-04,5.442128801e-04,1.453925749e-04,6.896054550e-04,1.763932074e-04,1.284245096e-04,3.048177171e-04,3.645566787e-04,1.451475732e-05,3.790714360e-04,1.671216182e-04,-2.309004114e-04,-6.377879320e-05,-1.871058756e-04,1.303041409e-05,-1.740754616e-04,-6.579468507e-05,1.095979217e-04,4.380323659e-05,-1.976477064e-04,8.164482396e-05,-1.160028825e-04
-8.8,-1.038839485e-03,7.689056473e-04,-2.699338374e-04,-8.842318702e-04,3.168038023e-04,-5.674280678e-04,-9.343211264e-04,3.096799788e-04,-6.246411476e-04,-9.340853660e-04,1.050759138e-05,-9.235777746e-04,-5.462440628e-04,-1.292527827e-04,-6.754968455e-04,-6.023804020e-04,-3.048971036e-04,-9.072775056e-04,-7.247960243e-04,9.166156099e-05,-6.331344634e-04,-6.764596696e-04,1.435813259e-04,-5.328783436e-04,-1.201205691e-03,-1.018645837e-04,-1.303070274e-03,-6.349322302e-04,7.808279562e-05,-5.568494345e-04,-7.392666771e-04,-2.501373839e-05,-7.642804155e-04,-1.925105885e-04,1.406831423e-04,-5.182744616e-05,2.479142130e-04,2.194848281e-05,2.698626958e-04,-1.453600608e-04,2.075800614e-04,6.222000056e-05,1.876064301e-04,8.872880966e-05,2.763352397e-04,-1.308168455e-04,1.045250915e-04,-2.629175396e-05,-5.067000985e-04,2.079075838e-04,-2.987925146e-04,-1.824039527e-04,6.610024039e-05,-1.163037123e-04,-1.334417375e-04,7.323029161e-05,-6.021144588e-05,-2.015963510e-04,5.689437873e-05,-1.447019723e-04,-5.803549515e-04,1.220251526e-04,-4.583297989e-04,-5.456579843e-04,-1.555824212e-04,-7.012404055e-04,-6.189955336e-04,-1.395123848e-04,-7.585079183e-04,-7.699904937e-04,-3.467578147e-04,-1.116748308e-03,6.451324888e-04,1.019417470e-04,7.470742358e-04,3.161513348e-04,1.873529296e-04,5.035042644e-04,5.113242921e-04,5.713036709e-05,5.684546592e-04,3.175316531e-04,2.554188393e-04,5.729504924e-04,4.018255076e-04,8.216216474e-05,4.839876723e-04,4.798583708e-04,1.339654645e-04,6.138238353e-04,1.290124409e-04,1.195382031e-04,2.485506440e-04,2.996543543e-04,5.884550780e-06,3.055389051e-04,1.185806911e-04,-2.358666919e-04,-1.172860008e-04,-2.087659952e-04,2.516842273e-06,-2.062491529e-04,-1.085013652e-04,9.315702599e-05,-1.534433923e-05,-2.249588283e-04,8.095802631e-05,-1.440008019e-04
-8.7,-9.864350256e-04,7.566610244e-04,-2.297740012e-04,-8.437567735e-04,3.103523519e-04,-5.334044216e-04,-8.712893342e-04,3.077967504e-04,-5.634925838e-04,-8.855919744e-04,1.357865198e-05,-8.720133224e-04,-4.871237290e-04,-1.191412968e-04,-6.062650258e-04,-5.384247597e-04,-3.120445024e-04,-8.504692620e-04,-6.823306608e-04,8.962996400e-05,-5.927006968e-04,-6.630541277e-04,1.435381490e-04,-5.195159787e-04,-1.100319443e-03,-9.993797806e-05,-1.200257421e-03,-6.074906710e-04,8.106675696e-05,-5.264239140e-04,-6.720042849e-04,-1.841479285e-05,-6.904190778e-04,-1.902219196e-04,1.267702213e-04,-6.345169832e-05,2.234374109e-04,1.074030571e-05,2.341777166e-04,-1.368273262e-04,1.949616634e-04,5.813433728e-05,1.609767347e-04,7.854000372e-05,2.395167385e-04,-1.599488067e-04,9.716055128e-05,-6.278825543e-05,-5.205378152e-04,1.942406198e-04,-3.262971954e-04,-2.148507892e-04,5.981371349e-05,-1.550370757e-04,-1.528583817e-04,6.752294519e-05,-8.533543653e-05,-1.885268185e-04,5.410274681e-05,-1.344240717e-04,-5.506121583e-04,1.235960177e-04,-4.270161405e-04,-5.373107716e-04,-1.326115817e-04,-6.699223532e-04,-5.535190460e-04,-1.296793827e-04,-6.831984287e-04,-7.149988794e-04,-3.256355187e-04,-1.040634398e-03,6.010690806e-04,9.474122017e-05,6.958103008e-04,3.021050971e-04,1.788629714e-04,4.809680685e-04,4.665120872e-04,5.242638224e-05,5.189384694e-04,3.033761543e-04,2.365318590e-04,5.399080133e-04,3.530834275e-04,7.948998859e-05,4.325734161e-04,4.156283316e-04,1.223825925e-04,5.380109242e-04,8.188255058e-05,1.105850455e-04,1.924675961e-04,2.356104853e-04,-2.681430870e-06,2.329290544e-04,6.774915437e-05,-2.376707893e-04,-1.699216349e-04,-2.297112175e-04,-7.815211260e-06,-2.375264288e-04,-1.495579280e-04,7.667010538e-05,-7.288782258e-05,-2.506404675e-04,7.975371008e-05,-1.708867575e-04
-8.6,-9.330163734e-04,7.439580453e-04,-1.890583281e-04,-8.012362036e-04,3.037176332e-04,-4.975185704e-04,-8.063313700e-04,3.056558459e-04,-5.006755240e-04,-8.340495351e-04,1.696526019e-05,-8.170842749e-04,-4.264240657e-04,-1.085395729e-04,-5.349636385e-04,-4.764047180e-04,-3.155208430e-04,-7.919255610e-04,-6.387017316e-04,8.804552342e-05,-5.506562082e-04,-6.474068838e-04,1.413832972e-04,-5.060235866e-04,-9.950980795e-04,-9.737524386e-05,-1.092473323e-03,-5.771169503e-04,8.422508827e-05,-4.928918620e-04,-6.014357924e-04,-1.162665998e-05,-6.130624524e-04,-1.877173322e-04,1.129036250e-04,-7.481370712e-05,1.983916932e-04,-1.995756219e-07,1.981921175e-04,-1.280367015e-04,1.821142412e-04,5.407753975e-05,1.347141244e-04,6.821381812e-05,2.029279425e-04,-1.887869428e-04,8.987835411e-05,-9.890858870e-05,-5.343402029e-04,1.805530543e-04,-3.537871486e-04,-2.466805620e-04,5.344971328e-05,-1.932308488e-04,-1.726911789e-04,6.225131041e-05,-1.104398685e-04,-1.751595785e-04,5.097620048e-05,-1.241833781e-04,-5.176472113e-04,1.250309667e-04,-3.926162446e-04,-5.269064708e-04,-1.089388718e-04,-6.358453426e-04,-4.857314828e-04,-1.200631502e-04,-6.057946330e-04,-6.586733820e-04,-3.048149786e-04,-9.634883606e-04,5.567004718e-04,8.713289613e-05,6.438333680e-04,2.881534082e-04,1.698232114e-04,4.579766195e-04,4.210378453e-04,4.785710826e-05,4.688949535e-04,2.898311928e-04,2.164075238e-04,5.062387165e-04,3.037639812e-04,7.716104480e-05,3.809250260e-04,3.518645962e-04,1.107885223e-04,4.626531185e-04,3.552500884e-05,1.015184893e-04,1.370434982e-04,1.728686383e-04,-1.112849372e-05,1.617401445e-04,1.515628462e-05,-2.363854128e-04,-2.212291282e-04,-2.495963105e-04,-1.792427670e-05,-2.675205872e-04,-1.886239366e-04,6.021489055e-05,-1.284090461e-04,-2.744120351e-04,7.802906292e-05,-1.963829722e-04
-8.5,-8.785678562e-04,7.308484894e-04,-1.477193668e-04,-7.567738345e-04,2.969805740e-04,-4.597932605e-04,-7.398038331e-04,3.032853333e-04,-4.365184998e-04,-7.796984841e-04,2.065600908e-05,-7.590424750e-04,-3.645066875e-04,-9.745097033e-05,-4.619576579e-04,-4.165343840e-04,-3.152907972e-04,-7.318251812e-04,-5.939811957e-04,8.693113456e-05,-5.070500611e-04,-6.294895673e-04,1.370808916e-04,-4.924086757e-04,-8.862092985e-04,-9.418130144e-05,-9.803905999e-04,-5.439745939e-04,8.755293881e-05,-4.564216551e-04,-5.280171553e-04,-4.664992168e-06,-5.326821475e-04,-1.848191665e-04,9.915543588e-05,-8.566373066e-05,1.731466744e-04,-1.084716909e-05,1.622995053e-04,-1.188470334e-04,1.690751382e-04,5.022810481e-05,1.091084712e-04,5.780163067e-05,1.669101019e-04,-2.170939785e-04,8.276308437e-05,-1.343308941e-04,-5.479157866e-04,1.669928927e-04,-3.809228939e-04,-2.775890084e-04,4.715261555e-05,-2.304363928e-04,-1.927703277e-04,5.753126971e-05,-1.352390580e-04,-1.616052846e-04,4.755157003e-05,-1.140537146e-04,-4.815968172e-04,1.263257632e-04,-3.552710539e-04,-5.143751694e-04,-8.475355033e-05,-5.991287197e-04,-4.160243173e-04,-1.106519267e-04,-5.266762439e-04,-6.011450493e-04,-2.843050073e-04,-8.854500566e-04,5.124660080e-04,7.908445946e-05,5.915504674e-04,2.744632459e-04,1.602743401e-04,4.347375861e-04,3.753106407e-04,4.346849275e-05,4.187791334e-04,2.769426901e-04,1.952043664e-04,4.721470565e-04,2.541950744e-04,7.518327141e-05,3.293783458e-04,2.889010792e-04,9.932894237e-05,3.882300216e-04,-9.553219493e-06,9.229263954e-05,8.273942005e-05,1.118515851e-04,-1.939702075e-05,9.245456432e-05,-3.864494753e-05,-2.321339025e-04,-2.707788500e-04,-2.680894945e-04,-2.777940703e-05,-2.958689015e-04,-2.253793752e-04,4.386215042e-05,-1.815172248e-04,-2.960207789e-04,7.577915614e-05,-2.202416228e-04
-8.4,-8.230849780e-04,7.173828083e-04,-1.057021697e-04,-7.104883751e-04,2.902181819e-04,-4.202701932e-04,-6.720671510e-04,3.007158398e-04,-3.713513112e-04,-7.227969669e-04,2.463410220e-05,-6.981628647e-04,-3.017307133e-04,-8.588058665e-05,-3.876113000e-04,-3.590156033e-04,-3.113482801e-04,-6.703638834e-04,-5.482427588e-04,8.630137242e-05,-4.619413863e-04,-6.092931253e-04,1.306278211e-04,-4.786653042e-04,-7.743545466e-04,-9.036729754e-05,-8.647218441e-04,-5.082407618e-04,9.104263737e-05,-4.171981245e-04,-4.522219793e-04,2.457044864e-06,-4.497649344e-04,-1.813569873e-04,8.559581370e-05,-9.576117357e-05,1.480668520e-04,-2.117756479e-05,1.268892872e-04,-1.091264515e-04,1.558849581e-04,4.675850654e-05,8.443049484e-05,4.735944535e-05,1.317899402e-04,-2.446322046e-04,7.588962983e-05,-1.687425748e-04,-5.610677266e-04,1.536912895e-04,-4.073764371e-04,-3.072735764e-04,4.105878601e-05,-2.662147904e-04,-2.129256897e-04,5.347542841e-05,-1.594502613e-04,-1.479617894e-04,4.387079925e-05,-1.040909901e-04,-4.426165144e-04,1.274786313e-04,-3.151378831e-04,-4.996499242e-04,-6.025328587e-05,-5.599032101e-04,-3.448017355e-04,-1.014320118e-04,-4.462337472e-04,-5.425440697e-04,-2.641124355e-04,-8.066565052e-04,4.688057371e-04,7.057469269e-05,5.393804298e-04,2.612002579e-04,1.502629459e-04,4.114632038e-04,3.297447882e-04,3.930770374e-05,3.690524920e-04,2.647380681e-04,1.730946666e-04,4.378327346e-04,2.046991161e-04,7.357089200e-05,2.782700081e-04,2.270577671e-04,8.814902105e-05,3.152067882e-04,-5.286826530e-05,8.286457555e-05,2.999631025e-05,5.295707186e-05,-2.742269096e-05,2.553438090e-05,-9.308230230e-05,-2.250889765e-04,-3.181712788e-04,-2.848772462e-04,-3.735906619e-05,-3.222363124e-04,-2.595276774e-04,2.767530557e-05,-2.318523718e-04,-3.152433693e-04,7.299637592e-05,-2.422469934e-04
-8.3,-7.665767087e-04,7.036089674e-04,-6.296774133e-05,-6.625134284e-04,2.835030249e-04,-3.790104035e-04,-6.034824937e-04,2.979797026e-04,-3.055027911e-04,-6.636192803e-04,2.887756763e-05,-6.347417127e-04,-2.384513432e-04,-7.383572009e-05,-3.122870633e-04,-3.040320526e-04,-3.037178312e-04,-6.077498838e-04,-5.015624841e-04,8.616150232e-05,-4.154009818e-04,-5.868288140e-04,1.220560787e-04,-4.647727354e-04,-6.602610508e-04,-8.594949356e-05,-7.462105444e-04,-4.701066148e-04,9.468390475e-05,-3.754227101e-04,-3.745389657e-04,9.728686482e-06,-3.648102793e-04,-1.771693427e-04,7.229103655e-05,-1.048783062e-04,1.235062444e-04,-3.116539613e-05,9.234084827e-05,-9.875493278e-05,1.425869143e-04,4.383198153e-05,6.092873114e-05,3.694703788e-05,9.787576902e-05,-2.711677674e-04,6.932254634e-05,-2.018452210e-04,-5.735968557e-04,1.407614414e-04,-4.328354143e-04,-3.354379246e-04,3.529468997e-05,-3.001432346e-04,-2.329884108e-04,5.018918086e-05,-1.827992299e-04,-1.343129952e-04,3.998062296e-05,-9.433237220e-05,-4.008795214e-04,1.284895220e-04,-2.723899994e-04,-4.826699698e-04,-3.564121771e-05,-5.183111875e-04,-2.724780380e-04,-9.238833586e-05,-3.648663739e-04,-4.830015059e-04,-2.442425671e-04,-7.272440730e-04,4.261530425e-04,6.159154408e-05,4.877445866e-04,2.485238993e-04,1.398403052e-04,3.883642044e-04,2.847485557e-04,3.542478393e-05,3.201733396e-04,2.532259903e-04,1.502608099e-04,4.034868002e-04,1.555891523e-04,7.234268457e-05,2.279318368e-04,1.666361781e-04,7.739160731e-05,2.440277854e-04,-9.396669287e-05,7.319609507e-05,-2.077059780e-05,-3.445153469e-06,-3.513745690e-05,-3.858261036e-05,-1.475699496e-04,-2.154700923e-04,-3.630400420e-04,-2.996689982e-04,-4.664951860e-05,-3.463185168e-04,-2.907987225e-04,1.171064258e-05,-2.790880799e-04,-3.318874915e-04,6.967025915e-05,-2.622172324e-04
-8.2,-7.090672901e-04,6.895713987e-04,-1.949589142e-05,-6.129973139e-04,2.769034953e-04,-3.360938187e-04,-5.344088272e-04,2.951101105e-04,-2.392987168e-04,-6.024543729e-04,3.336002718e-05,-5.690943457e-04,-1.750184733e-04,-6.132631154e-05,-2.363447848e-04,-2.517428933e-04,-2.924576115e-04,-5.442005049e-04,-4.540191635e-04,8.650660018e-05,-3.675125634e-04,-5.621297321e-04,1.114344390e-04,-4.506952931e-04,-5.446733273e-04,-8.094826142e-05,-6.256215887e-04,-4.297769223e-04,9.846411488e-05,-3.313128074e-04,-2.954685018e-04,1.714130087e-05,-2.783272009e-04,-1.721049415e-04,5.930150272e-05,-1.128034387e-04,9.980392305e-05,-4.078521988e-05,5.901870317e-05,-8.762559897e-05,1.292263123e-04,4.160071329e-05,3.882795662e-05,2.662686685e-05,6.545482347e-05,-2.964744919e-04,6.311586808e-05,-2.333586239e-04,-5.853028009e-04,1.282983282e-04,-4.570044728e-04,-3.617962753e-04,2.997531257e-05,-3.318209627e-04,-2.527918332e-04,4.776705256e-05,-2.050247807e-04,-1.207279518e-04,3.593183463e-05,-8.479611719e-05,-3.565754275e-04,1.293594776e-04,-2.272159500e-04,-4.633839905e-04,-1.112239496e-05,-4.745063855e-04,-1.994743693e-04,-8.350499651e-05,-2.829793658e-04,-4.226507720e-04,-2.246995755e-04,-6.473503475e-04,3.849273652e-04,5.213105853e-05,4.370584237e-04,2.365837940e-04,1.290616042e-04,3.656453981e-04,2.407140538e-04,3.187391268e-05,2.725879665e-04,2.423981381e-04,1.268918784e-04,3.692900166e-04,1.071669064e-04,7.151951584e-05,1.786864223e-04,1.079171631e-04,6.719521221e-05,1.751123753e-04,-1.324312011e-04,6.325530699e-05,-6.917589410e-05,-5.701468138e-05,-4.247092813e-05,-9.948560951e-05,-2.015138594e-04,-2.035399827e-04,-4.050538422e-04,-3.122009014e-04,-5.564296366e-05,-3.678438650e-04,-3.189505421e-04,-3.981851840e-06,-3.229323940e-04,-3.457927689e-04,6.578797508e-05,-2.800047938e-04
-8.1,-6.505972619e-04,6.753100840e-04,2.471282212e-05,-5.621025924e-04,2.704848351e-04,-2.916177573e-04,-4.651998940e-04,2.921402012e-04,-1.730596928e-04,-5.396040873e-04,3.805179364e-05,-5.015522936e-04,-1.117750343e-04,-4.836543111e-05,-1.601404655e-04,-2.022761689e-04,-2.776645394e-04,-4.799407083e-04,-4.056941843e-04,8.732089366e-05,-3.183732907e-04,-5.352522692e-04,9.886889144e-05,-4.363833777e-04,-4.283443040e-04,-7.538724515e-05,-5.037315491e-04,-3.874688033e-04,1.023686276e-04,-2.851001757e-04,-2.155183297e-04,2.468797289e-05,-1.908303568e-04,-1.660229692e-04,4.667973714e-05,-1.193432321e-04,7.728051964e-05,-5.001159209e-05,2.726892755e-05,-7.564486491e-05,1.158501555e-04,4.020529059e-05,1.832903697e-05,1.646285769e-05,3.479189466e-05,-3.203365283e-04,5.731323377e-05,-2.630232945e-04,-5.959834284e-04,1.163790666e-04,-4.796043618e-04,-3.860767669e-04,2.520256685e-05,-3.608742001e-04,-2.721712352e-04,4.628932613e-05,-2.258819091e-04,-1.072600086e-04,3.177830620e-05,-7.548170242e-05,-3.099085656e-04,1.300902033e-04,-1.798183623e-04,-4.417535585e-04,1.310063245e-05,-4.286529260e-04,-1.262148413e-04,-7.476578916e-05,-2.009806304e-04,-3.616287612e-04,-2.054868614e-04,-5.671156226e-04,3.455276481e-04,4.219734937e-05,3.877249975e-04,2.255180256e-04,1.179853963e-04,3.435034218e-04,1.980099923e-04,2.871353806e-05,2.267235304e-04,2.322332754e-04,1.031804581e-04,3.354137335e-04,5.972250672e-05,7.112133531e-05,1.308438420e-04,5.116079238e-05,5.769182779e-05,1.088526202e-04,-1.678853311e-04,5.301907374e-05,-1.148662574e-04,-1.074406888e-04,-4.935159934e-05,-1.567922881e-04,-2.543166286e-04,-1.896001510e-04,-4.439167795e-04,-3.222383272e-04,-6.433552525e-05,-3.865738525e-04,-3.437694736e-04,-1.935715393e-05,-3.631266275e-04,-3.568309852e-04,6.133590449e-05,-2.954950807e-04
-8,-5.912238122e-04,6.608597751e-04,6.963596292e-05,-5.100052675e-04,2.643102890e-04,-2.456949784e-04,-3.962012574e-04,2.891021258e-04,-1.070991316e-04,-4.753811287e-04,4.292104030e-05,-4.324600884e-04,-4.905516031e-05,-3.496980820e-05,-8.402496851e-05,-1.557234178e-04,-2.594794974e-04,-4.152029152e-04,-3.566711071e-04,8.857747084e-05,-2.680936363e-04,-5.062770725e-04,8.450175855e-05,-4.217753140e-04,-3.120265846e-04,-6.929266582e-05,-3.813192504e-04,-3.434100525e-04,1.063811599e-04,-2.370288926e-04,-1.351988642e-04,3.236300560e-05,-1.028358586e-04,-1.587931066e-04,3.446859411e-05,-1.243245125e-04,5.623518236e-05,-5.881881986e-05,-2.583637491e-06,-6.273234638e-05,1.025068151e-04,3.977446871e-05,-3.905861215e-07,6.519095115e-06,6.128508993e-06,-3.425501520e-04,5.194836048e-05,-2.906017915e-04,-6.054338636e-04,1.050632477e-04,-5.003706158e-04,-4.080237272e-04,2.106345201e-05,-3.869602752e-04,-2.909623345e-04,4.581866937e-05,-2.451436651e-04,-9.394620122e-05,2.757598179e-05,-6.637021943e-05,-2.610961750e-04,1.306836976e-04,-1.304124774e-04,-4.177568175e-04,3.683266111e-05,-3.809241564e-04,-5.312259190e-05,-6.615477921e-05,-1.192773711e-04,-3.000768914e-04,-1.866074422e-04,-4.866843336e-04,3.083261545e-04,3.180353810e-05,3.401296926e-04,2.154525432e-04,1.066729618e-04,3.221255050e-04,1.569771520e-04,2.600501405e-05,1.829821661e-04,2.227020379e-04,7.932013784e-05,3.020221758e-04,1.353481429e-05,7.116391135e-05,8.469872564e-05,-3.392801558e-06,4.900467782e-05,4.561187627e-05,-1.999978740e-04,4.247663878e-05,-1.575212352e-04,-1.544420035e-04,-5.570776832e-05,-2.101497718e-04,-3.053830177e-04,-1.739846813e-04,-4.793676991e-04,-3.295774203e-04,-7.272523336e-05,-4.023026537e-04,-3.650695337e-04,-3.437373667e-05,-3.994432704e-04,-3.649063663e-04,5.630278162e-05,-3.086035847e-04
-7.9,-5.310208751e-04,6.462493768e-04,1.152285017e-04,-4.568939640e-04,2.584416413e-04,-1.984523227e-04,-3.277477707e-04,2.860261564e-04,-4.172161433e-05,-4.101070087e-04,4.793487159e-05,-3.621721371e-04,1.281736443e-05,-2.116033894e-05,-8.342974506e-06,-1.121365396e-04,-2.380901109e-04,-3.502266505e-04,-3.070354221e-04,9.023841183e-05,-2.167970103e-04,-4.753093490e-04,6.850992456e-05,-4.067994244e-04,-1.964643792e-04,-6.269274744e-05,-2.591571267e-04,-2.978375757e-04,1.104840852e-04,-1.873534905e-04,-5.501885919e-05,4.016137382e-05,-1.485748537e-05,-1.502962432e-04,2.270005504e-05,-1.275961882e-04,3.694237934e-05,-6.718049450e-05,-3.023811516e-05,-4.882135560e-05,8.924568282e-05,4.042432722e-05,-1.717667156e-05,-3.141574098e-06,-2.031824566e-05,-3.629257852e-04,4.704606134e-05,-3.158797239e-04,-6.134462884e-04,9.439280515e-05,-5.190534832e-04,-4.273995775e-04,1.762797696e-05,-4.097716005e-04,-3.089992545e-04,4.639677625e-05,-2.626024783e-04,-8.080723259e-05,2.338200308e-05,-5.742522952e-05,-2.103666680e-04,1.311417212e-04,-7.922494676e-05,-3.913922058e-04,5.989024349e-05,-3.315019624e-04,1.938365413e-05,-5.765689813e-05,-3.827324400e-05,-2.381424393e-04,-1.680643860e-04,-4.062068253e-04,2.736617687e-04,2.097350284e-05,2.946352716e-04,2.065000242e-04,9.518745505e-05,3.016874793e-04,1.179251874e-04,2.380987177e-05,1.417350592e-04,2.137704019e-04,5.550397093e-05,2.692743728e-04,-3.112867986e-05,7.165567168e-05,4.052699181e-05,-5.552276005e-05,4.124608373e-05,-1.427667632e-05,-2.284868419e-04,3.163339203e-05,-1.968534499e-04,-1.977675268e-04,-6.146846826e-05,-2.592359950e-04,-3.541274882e-04,-1.570521227e-04,-5.111796109e-04,-3.340463113e-04,-8.081013232e-05,-4.148564437e-04,-3.826919000e-04,-4.899247949e-05,-4.316843795e-04,-3.699567692e-04,5.068431153e-05,-3.192724577e-04
-7.8,-4.700793469e-04,6.315015243e-04,1.614221774e-04,-4.029694606e-04,2.529390402e-04,-1.500304204e-04,-2.601617351e-04,2.829398970e-04,2.277816192e-05,-3.441103038e-04,5.306029989e-05,-2.910500039e-04,7.352998887e-05,-6.962519590e-06,6.656746928e-05,-7.152621913e-05,-2.137307663e-04,-2.852569855e-04,-2.568747958e-04,9.225525957e-05,-1.646195362e-04,-4.424782707e-04,5.110244604e-05,-3.913758247e-04,-8.238631646e-05,-5.561725199e-05,-1.380035685e-04,-2.509961501e-04,1.146585894e-04,-1.363375607e-04,2.451824780e-05,4.807814541e-05,7.259639321e-05,-1.404263965e-04,1.139491944e-05,-1.290314770e-04,1.964838610e-05,-7.506899868e-05,-5.542061258e-05,-3.386005224e-05,7.611671232e-05,4.225666008e-05,-3.189864974e-05,-1.245894046e-05,-4.435759020e-05,-3.812908641e-04,4.262378562e-05,-3.386670784e-04,-6.198114406e-04,8.439207934e-05,-5.354193613e-04,-4.439870755e-04,1.494712126e-05,-4.290399543e-04,-3.261130783e-04,4.804139257e-05,-2.780716858e-04,-6.784826540e-05,1.925399791e-05,-4.859426749e-05,-1.579583725e-04,1.314651109e-04,-2.649326164e-05,-3.626818496e-04,8.210508651e-05,-2.805767631e-04,9.089231950e-05,-4.925848344e-05,4.163383606e-05,-1.759802983e-04,-1.498612553e-04,-3.258415536e-04,2.418324781e-04,9.744008977e-06,2.515764871e-04,1.987571939e-04,8.359303631e-05,2.823502302e-04,8.112964474e-05,2.218622661e-05,1.033158713e-04,2.054010746e-04,3.192364290e-05,2.373247175e-04,-7.401265899e-05,7.259499869e-05,-1.417660301e-06,-1.050275570e-04,3.451576247e-05,-7.051179448e-05,-2.531224752e-04,2.051334918e-05,-2.326091260e-04,-2.371971999e-04,-6.656456177e-05,-3.037617616e-04,-3.999838705e-04,-1.391757075e-04,-5.391595779e-04,-3.355063694e-04,-8.858661587e-05,-4.240929853e-04,-3.965049664e-04,-6.317606082e-05,-4.596810272e-04,-3.719560017e-04,4.448848020e-05,-3.274675215e-04
-7.7,-4.085074731e-04,6.166323506e-04,2.081248775e-04,-3.484445873e-04,2.478604946e-04,-1.005840927e-04,-1.937516971e-04,2.798675794e-04,8.611588229e-05,-2.777253716e-04,5.826518288e-05,-2.194601887e-04,1.327816138e-04,7.593175520e-06,1.403747894e-04,-3.386056574e-05,-1.866810116e-04,-2.205415773e-04,-2.062797781e-04,9.456973870e-05,-1.117100394e-04,-4.079355139e-04,3.251763405e-05,-3.754178799e-04,2.950101778e-05,-4.809709155e-05,-1.859607377e-05,-2.031373779e-04,1.188847564e-04,-8.425262149e-05,1.029174891e-04,5.610790972e-05,1.590253989e-04,-1.290934422e-04,5.633590833e-07,-1.285300832e-04,4.567944745e-06,-8.245527309e-05,-7.788732834e-05,-1.781266966e-05,6.316982210e-05,4.535715244e-05,-4.445060123e-05,-2.137659999e-05,-6.582720122e-05,-3.974930026e-04,3.869314911e-05,-3.587998535e-04,-6.243223388e-04,7.506929204e-05,-5.492530467e-04,-4.575920674e-04,1.305132352e-05,-4.445407439e-04,-3.421318580e-04,5.074428703e-05,-2.913875710e-04,-5.506041020e-05,1.524943461e-05,-3.981097559e-05,-1.041189478e-04,1.316531613e-04,2.753421349e-05,-3.316743175e-04,1.033265199e-04,-2.283477976e-04,1.610012574e-04,-4.094770438e-05,1.200535530e-04,-1.137549065e-04,-1.320025649e-04,-2.457574714e-04,2.130878587e-04,-1.833438463e-06,2.112544202e-04,1.923010930e-04,7.195422379e-05,2.642553168e-04,4.682916227e-05,2.118500655e-05,6.801416882e-05,1.975536576e-04,8.768829485e-06,2.063224871e-04,-1.148750347e-04,7.396818986e-05,-4.090684485e-05,-1.517255603e-04,2.889977810e-05,-1.228257822e-04,-2.737291042e-04,9.159883714e-06,-2.645692205e-04,-2.725434393e-04,-7.092974602e-05,-3.434731853e-04,-4.424161271e-04,-1.207324811e-04,-5.631486082e-04,-3.338533761e-04,-9.604818180e-05,-4.299015579e-04,-4.064050178e-04,-7.688827482e-05,-4.832932926e-04,-3.709164249e-04,3.774050756e-05,-3.331759173e-04
-7.6,-3.464311328e-04,6.016513998e-04,2.552202670e-04,-2.935437197e-04,2.432610339e-04,-5.028268575e-05,-1.288115243e-04,2.768294033e-04,1.480178790e-04,-2.112912056e-04,6.351903199e-05,-1.477721736e-04,1.902826091e-04,2.247091887e-05,2.127535279e-04,9.357822094e-07,-1.572623075e-04,-1.563265253e-04,-1.553446341e-04,9.711474429e-05,-5.822988983e-05,-3.718532055e-04,1.301972273e-05,-3.588334827e-04,1.385192320e-04,-4.016399992e-05,9.835523205e-05,-1.545184329e-04,1.231417406e-04,-3.137669225e-05,1.796955780e-04,6.424425425e-05,2.439398323e-04,-1.162257181e-04,-9.793869750e-06,-1.260195879e-04,-8.117982170e-06,-8.930908731e-05,-9.742706948e-05,-6.600793965e-07,5.045427821e-05,4.979419881e-05,-5.475203962e-05,-2.984268008e-05,-8.459471970e-05,-4.114021987e-04,3.526073219e-05,-3.761414665e-04,-6.267800107e-04,6.641990460e-05,-5.603601061e-04,-4.680463847e-04,1.194995896e-05,-4.560964258e-04,-3.568821219e-04,5.447073597e-05,-3.024113860e-04,-4.242254325e-05,1.142487766e-05,-3.099766559e-05,-4.910522613e-05,1.317032261e-04,8.259800000e-05,-2.984462420e-04,1.234232589e-04,-1.750229831e-04,2.293201267e-04,-3.271488869e-05,1.966052380e-04,-5.164178039e-05,-1.144942732e-04,-1.661360536e-04,1.876231821e-04,-1.369155657e-05,1.739316255e-04,1.871859268e-04,6.033547311e-05,2.475213999e-04,1.522365233e-05,2.084663233e-05,3.607028467e-05,1.901853129e-04,-1.377398697e-05,1.764113260e-04,-1.534875195e-04,7.574810491e-05,-7.773941462e-05,-1.954552088e-04,2.446995355e-05,-1.709852553e-04,-2.901856969e-04,-2.364920010e-06,-2.925506170e-04,-3.036523848e-04,-7.450140558e-05,-3.781537904e-04,-4.809284191e-04,-1.020922911e-04,-5.830207103e-04,-3.290181867e-04,-1.031847754e-04,-4.322029621e-04,-4.123169625e-04,-9.009272975e-05,-5.024096923e-04,-3.668901858e-04,3.048661890e-05,-3.364035669e-04
-7.5,-2.839936050e-04,5.865616564e-04,3.025680514e-04,-2.385005256e-04,2.391909158e-04,6.903901949e-07,-6.561930745e-05,2.738409479e-04,2.082216404e-04,-1.451498040e-04,6.879350153e-05,-7.635630245e-05,2.457553108e-04,3.762915419e-05,2.833844650e-04,3.297986017e-05,-1.258312664e-04,-9.285140627e-05,-1.041678960e-04,9.981569943e-05,-4.352196537e-06,-3.344212243e-04,-7.104924249e-06,-3.415261485e-04,2.440243321e-04,-3.185032756e-05,2.121740045e-04,-1.054001740e-04,1.274080904e-04,2.200791636e-05,2.543846953e-04,7.247926766e-05,3.268639630e-04,-1.017717161e-04,-1.968370385e-05,-1.214554200e-04,-1.826260466e-05,-9.559990113e-05,-1.138625058e-04,1.760068206e-05,3.801816848e-05,5.561885054e-05,-6.274773214e-05,-3.781021076e-05,-1.005579429e-04,-4.229112413e-04,3.232791539e-05,-3.905833259e-04,-6.270001567e-04,5.843134094e-05,-5.685688158e-04,-4.752102777e-04,1.163198667e-05,-4.635782910e-04,-3.701910402e-04,5.916071458e-05,-3.110303256e-04,-2.990312943e-05,7.835033278e-06,-2.206809615e-05,6.817068284e-06,1.316104711e-04,1.384275394e-04,-2.631021501e-04,1.422842995e-04,-1.208178506e-04,2.954732571e-04,-2.455280160e-05,2.709204555e-04,1.017188906e-05,-9.734426119e-05,-8.717237213e-05,1.655767349e-04,-2.574741274e-05,1.398293221e-04,1.834421372e-04,4.880086346e-05,2.322430006e-04,-1.352573551e-05,2.119850530e-05,7.672769794e-06,1.832533957e-04,-3.552394244e-05,1.477294533e-04,-1.896353021e-04,7.789342201e-05,-1.117418801e-04,-2.360740091e-04,2.128325476e-05,-2.147907543e-04,-3.024244883e-04,-1.398211619e-05,-3.164066045e-04,-3.304039395e-04,-7.722179919e-05,-4.076257387e-04,-5.150729506e-04,-8.360757471e-05,-5.986805253e-04,-3.209665399e-04,-1.099826205e-04,-4.309491604e-04,-4.141941870e-04,-1.027512172e-04,-5.169454041e-04,-3.599677921e-04,2.279616481e-05,-3.371716273e-04
-7.4,-2.213545681e-04,5.713597252e-04,3.500051570e-04,-1.835532473e-04,2.356924770e-04,5.213922969e-05,-4.435885774e-06,2.709127244e-04,2.664768386e-04,-7.964366764e-05,7.406248172e-05,-5.581185922e-06,2.989354330e-04,5.302028674e-05,3.519557198e-04,6.242457453e-05,-9.276888840e-05,-3.034431387e-05,-5.285252239e-05,1.025923160e-04,4.973979359e-05,-2.958436483e-04,-2.755234390e-05,-3.233959922e-04,3.454128668e-04,-2.318906388e-05,3.222238029e-04,-5.604459161e-05,1.316621005e-04,7.561750894e-05,3.265368217e-04,8.080299297e-05,4.073398146e-04,-8.570078234e-05,-2.911861634e-05,-1.148193987e-04,-2.575190327e-05,-1.012982854e-04,-1.270501886e-04,3.695758500e-05,2.590789948e-05,6.286548448e-05,-6.840645110e-05,-4.523750876e-05,-1.136439599e-04,-4.319345241e-04,2.989019632e-05,-4.020443278e-04,-6.248192924e-04,5.108816970e-05,-5.737311227e-04,-4.789740309e-04,1.206770240e-05,-4.669063285e-04,-3.818883219e-04,6.473134631e-05,-3.171569756e-04,-1.746201082e-05,4.531608496e-06,-1.293040233e-05,6.337404435e-05,1.313676739e-04,1.947417183e-04,-2.257724249e-04,1.598185719e-04,-6.595385294e-05,3.591028439e-04,-1.645690072e-05,3.426459432e-04,7.148773203e-05,-8.056270171e-05,-9.074969688e-06,1.470307589e-04,-3.790398430e-05,1.091267746e-04,1.810780087e-04,3.741381381e-05,2.184918225e-04,-3.929488117e-05,2.225344603e-05,-1.704143514e-05,1.767197359e-04,-5.630922236e-05,1.204105135e-04,-2.231162746e-04,8.034855063e-05,-1.427677240e-04,-2.734567106e-04,1.938091917e-05,-2.540757914e-04,-3.104273245e-04,-2.559908280e-05,-3.360264073e-04,-3.527102306e-04,-7.904013854e-05,-4.317503692e-04,-5.444554205e-04,-6.560427158e-05,-6.100596921e-04,-3.096980633e-04,-1.164243455e-04,-4.261224087e-04,-4.120172258e-04,-1.148226120e-04,-5.268398378e-04,-3.502739213e-04,1.476169243e-05,-3.355122289e-04
-7.3,-1.586884622e-04,5.560362013e-04,3.973477391e-04,-1.289384421e-04,2.327961668e-04,1.038577247e-04,5.449680537e-05,2.680498875e-04,3.225466929e-04,-1.511266689e-05,7.930196364e-05,6.418929675e-05,3.495742251e-04,6.859050930e-05,4.181647344e-04,8.945043633e-05,-5.846863322e-05,3.098180310e-05,-1.506004238e-06,1.053606304e-04,1.038546262e-04,-2.563345751e-04,-4.800650132e-05,-3.043410765e-04,4.421274293e-04,-1.421408840e-05,4.279133409e-04,-6.712051945e-06,1.358820163e-04,1.291699644e-04,3.957279892e-04,8.920280650e-05,4.849307957e-04,-6.800339459e-05,-3.811419421e-05,-1.061175888e-04,-3.050238332e-05,-1.063778070e-04,-1.368801903e-04,5.738460334e-05,1.416759148e-05,7.155219482e-05,-7.171939510e-05,-5.208883123e-05,-1.238082263e-04,-4.384061906e-04,2.793656686e-05,-4.104696237e-04,-6.200994107e-04,4.437680298e-05,-5.757226077e-04,-4.792590611e-04,1.321142651e-05,-4.660476346e-04,-3.918077682e-04,7.107983706e-05,-3.207279312e-04,-5.052376090e-06,1.562093523e-06,-3.490282567e-06,1.202846146e-04,1.309651163e-04,2.512497308e-04,-1.866102399e-04,1.759533767e-04,-1.065686318e-05,4.198718716e-04,-8.425551507e-06,4.114463201e-04,1.320974966e-04,-6.416224989e-05,6.793524672e-05,1.320146838e-04,-5.005307294e-05,8.196161091e-05,1.800823909e-04,2.623678940e-05,2.063191803e-04,-6.199402307e-05,2.400901706e-05,-3.798500601e-05,1.705544819e-04,-7.597030311e-05,9.458417876e-05,-2.537409604e-04,8.304447385e-05,-1.706964866e-04,-3.074939852e-04,1.878754884e-05,-2.887064364e-04,-3.142205229e-04,-3.711356078e-05,-3.513340837e-04,-3.705132926e-04,-7.991548220e-05,-4.504287748e-04,-5.687390389e-04,-4.837388216e-05,-6.171129210e-04,-2.952449352e-04,-1.224893842e-04,-4.177343194e-04,-4.057920465e-04,-1.262629077e-04,-5.320549542e-04,-3.379613653e-04,6.496591454e-06,-3.314647739e-04
-7.2,-9.618258915e-05,5.405761759e-04,4.443935868e-04,-7.488520923e-05,2.305170144e-04,1.556318052e-04,1.109571503e-04,2.652520460e-04,3.762091964e-04,4.810913319e-05,8.448994708e-05,1.325990803e-04,3.974407576e-04,8.427978543e-05,4.817205431e-04,1.142573487e-04,-2.332664888e-05,9.093069979e-05,4.975906270e-05,1.080351003e-04,1.577941630e-04,-2.161138132e-04,-6.814585690e-05,-2.842596701e-04,5.336608967e-04,-4.960500428e-06,5.287003962e-04,4.234105060e-05,1.400460474e-04,1.823870980e-04,4.615617368e-04,9.766281151e-05,5.592245483e-04,-4.869168129e-05,-4.668675735e-05,-9.537843864e-05,-3.245919488e-05,-1.108171742e-04,-1.432763691e-04,7.884179227e-05,2.838404765e-06,8.168019704e-05,-7.269919996e-05,-5.833514892e-05,-1.310343489e-04,-4.422785773e-04,2.644922262e-05,-4.158293547e-04,-6.127309886e-04,3.828868641e-05,-5.744423022e-04,-4.760191592e-04,1.500483371e-05,-4.610143255e-04,-3.997891488e-04,7.808638889e-05,-3.217027599e-04,7.376831331e-06,-1.031402793e-06,6.345428537e-06,1.772612725e-04,1.303906861e-04,3.076519586e-04,-1.457884974e-04,1.906321885e-04,4.484369109e-05,4.774662663e-04,-4.601918690e-07,4.770060744e-04,1.917846971e-04,-4.815804321e-05,1.436266539e-04,1.205086401e-04,-6.207901386e-05,5.842962624e-05,1.804266101e-04,1.533093667e-05,1.957575468e-04,-8.156529015e-05,2.644747560e-05,-5.511781455e-05,1.647377693e-04,-9.436211699e-05,7.037565230e-05,-2.813340759e-04,8.590074504e-05,-1.954333308e-04,-3.380925421e-04,1.951044035e-05,-3.185821018e-04,-3.138700214e-04,-4.841736020e-05,-3.622873816e-04,-3.837833009e-04,-7.981972398e-05,-4.636030249e-04,-5.876482012e-04,-3.216704806e-05,-6.198152493e-04,-2.776707448e-04,-1.281547101e-04,-4.058254548e-04,-3.955490356e-04,-1.370264711e-04,-5.325755068e-04,-3.232045274e-04,-1.869525169e-06,-3.250740526e-04
-7.1,-3.403526484e-05,5.249597598e-04,4.909244950e-04,-2.161160683e-05,2.288526248e-04,2.072410180e-04,1.647447436e-04,2.625131218e-04,4.272578654e-04,1.096963203e-04,8.960647065e-05,1.993027910e-04,4.423237679e-04,1.000219885e-04,5.423457563e-04,1.370578773e-04,1.226474055e-05,1.493226179e-04,1.008236628e-04,1.105306076e-04,2.113542704e-04,-1.754027579e-04,-8.765072573e-05,-2.630534837e-04,6.195591649e-04,4.535142654e-06,6.240943076e-04,9.086389397e-05,1.441322944e-04,2.349961883e-04,5.236714640e-04,1.061633679e-04,6.298348319e-04,-2.780047064e-05,-5.485126107e-05,-8.265173171e-05,-3.159534058e-05,-1.146023436e-04,-1.461976842e-04,1.012743644e-04,-8.042069485e-06,9.323229491e-05,-7.137986956e-05,-6.395466225e-05,-1.353345318e-04,-4.435215731e-04,2.540363966e-05,-4.181179334e-04,-6.026349850e-04,3.282149804e-05,-5.698134870e-04,-4.692420897e-04,1.738033721e-05,-4.518617524e-04,-4.056809230e-04,8.561703422e-05,-3.200638888e-04,1.987796854e-05,-3.213134683e-06,1.666483385e-05,2.340104454e-04,1.296301816e-04,3.636406270e-04,-1.034972709e-04,2.038124920e-04,1.003152212e-04,5.315962146e-04,7.434537991e-06,5.390307526e-04,2.503263314e-04,-3.256752578e-05,2.177588057e-04,1.124461018e-04,-7.386242513e-05,3.858367666e-05,1.820647806e-04,4.755533834e-06,1.868203144e-04,-9.798168655e-05,2.953649686e-05,-6.844518969e-05,1.592592028e-04,-1.113552108e-04,4.790399197e-05,-3.057377458e-04,8.882847375e-05,-2.169092721e-04,-3.651764888e-04,2.153919348e-05,-3.436372953e-04,-3.094782418e-04,-5.939910649e-05,-3.688773483e-04,-3.925181615e-04,-7.873997929e-05,-4.712581408e-04,-6.009725427e-04,-1.718919070e-05,-6.181617334e-04,-2.570697256e-04,-1.333959034e-04,-3.904656290e-04,-3.813431817e-04,-1.470681734e-04,-5.284113550e-04,-3.061938354e-04,-1.019679503e-05,-3.163906304e-04
-7,2.754589504e-05,5.091625866e-04,5.367084816e-04,3.067638895e-05,2.277828667e-04,2.584592557e-04,2.156807742e-04,2.598212834e-04,4.755020576e-04,1.693346652e-04,9.463361130e-05,2.639682765e-04,4.840329007e-04,1.157452171e-04,5.997781179e-04,1.580723097e-04,4.792085062e-05,2.059931604e-04,1.515605140e-04,1.127643020e-04,2.643248160e-04,-1.344206362e-04,-1.062109596e-04,-2.406315958e-04,6.994226554e-04,1.423471343e-05,7.136573688e-04,1.386122277e-04,1.481186557e-04,2.867308834e-04,5.817219360e-04,1.146807851e-04,6.964027211e-04,-5.388599312e-06,-6.261956434e-05,-6.800816365e-05,-2.791183040e-05,-1.177283648e-04,-1.456401952e-04,1.246114119e-04,-1.844030955e-05,1.061711024e-04,-6.781715862e-05,-6.893285577e-05,-1.367500144e-04,-4.421229153e-04,2.476894119e-05,-4.173539741e-04,-5.897650152e-04,2.797902250e-05,-5.617859927e-04,-4.589510000e-04,2.026382307e-05,-4.386871770e-04,-4.093437787e-04,9.352658839e-05,-3.158171903e-04,3.250139712e-05,-4.954488719e-06,2.754690840e-05,2.902325780e-04,1.286676641e-04,4.189002421e-04,-5.994181924e-05,2.154640968e-04,1.555222776e-04,5.819970050e-04,1.525069394e-05,5.972476989e-04,3.074947083e-04,-1.741011469e-05,2.900845936e-04,1.077158119e-04,-8.528335007e-05,2.243246185e-05,1.849332568e-04,-5.432869585e-06,1.795003872e-04,-1.112480871e-04,3.323113561e-05,-7.801695151e-05,1.541161390e-04,-1.268363993e-04,2.727973971e-05,-3.268155599e-04,9.173388578e-05,-2.350816741e-04,-3.886890442e-04,2.484550749e-05,-3.638435367e-04,-3.011826903e-04,-6.994644360e-05,-3.711291339e-04,-3.967442978e-04,-7.668013163e-05,-4.734244295e-04,-6.085713240e-04,-3.598379304e-06,-6.121697033e-04,-2.335660834e-04,-1.381884645e-04,-3.717545479e-04,-3.632551973e-04,-1.563457028e-04,-5.196009001e-04,-2.871315264e-04,-1.834143867e-05,-3.054729651e-04
-6.9,8.834570198e-05,4.931563750e-04,5.815020770e-04,8.178444857e-05,2.272705492e-04,3.090549978e-04,2.636082264e-04,2.571590148e-04,5.207672411e-04,2.267235805e-04,9.955528075e-05,3.262788612e-04,5.223996026e-04,1.313723128e-04,6.537719154e-04,1.775253231e-04,8.326664874e-05,2.607919719e-04,2.018323221e-04,1.146572405e-04,3.164895626e-04,-9.338132913e-05,-1.235333165e-04,-2.169146456e-04,7.729072635e-04,2.409842727e-05,7.970056907e-04,1.853493919e-04,1.519826612e-04,3.373320531e-04,6.354106092e-04,1.231870976e-04,7.585977068e-04,1.846036306e-05,-6.999918674e-05,-5.153882368e-05,-2.143784951e-05,-1.202009017e-04,-1.416387512e-04,1.487653286e-04,-2.832732041e-05,1.204380082e-04,-6.208849597e-05,-7.326214343e-05,-1.353506394e-04,-4.380887006e-04,2.450837433e-05,-4.135803262e-04,-5.741096069e-04,2.377022454e-05,-5.503393824e-04,-4.452049343e-04,2.357658734e-05,-4.216283470e-04,-4.106546912e-04,1.016620041e-04,-3.089926871e-04,4.529225298e-05,-6.234671421e-06,3.905758156e-05,3.456223928e-04,1.274857720e-04,4.731081649e-04,-1.534110754e-05,2.255683410e-04,2.102272335e-04,6.284299523e-04,2.297699277e-05,6.514069450e-04,3.630596740e-04,-2.706730565e-06,3.603529435e-04,1.061640536e-04,-9.622345133e-05,9.940602257e-06,1.889507250e-04,-1.518158840e-05,1.737691366e-04,-1.214028519e-04,3.747666453e-05,-8.392618739e-05,1.493118228e-04,-1.407093732e-04,8.602449658e-06,-3.444563954e-04,9.452217223e-05,-2.499342231e-04,-4.085936999e-04,2.938314115e-05,-3.792105588e-04,-2.891550688e-04,-7.994821909e-05,-3.691032879e-04,-3.965179092e-04,-7.366159870e-05,-4.701795079e-04,-6.103770977e-04,8.494750103e-06,-6.018823476e-04,-2.073128878e-04,-1.425091937e-04,-3.498220814e-04,-3.413927379e-04,-1.648214703e-04,-5.062142082e-04,-2.662279376e-04,-2.616200773e-05,-2.923899454e-04
-6.8,1.481434297e-04,4.769096375e-04,6.250530672e-04,1.315295652e-04,2.272623341e-04,3.587918994e-04,3.083923410e-04,2.545033240e-04,5.628956649e-04,2.815789133e-04,1.043566977e-04,3.859356110e-04,5.572781547e-04,1.468215389e-04,7.040996936e-04,1.956440891e-04,1.179375339e-04,3.135816229e-04,2.514908549e-04,1.161358086e-04,3.676266635e-04,-5.249085421e-05,-1.393478765e-04,-1.918387307e-04,8.397254318e-04,3.408466609e-05,8.738100979e-04,2.308480708e-04,1.557011654e-04,3.865492362e-04,6.844694499e-04,1.316498440e-04,8.161192939e-04,4.363897464e-05,-7.699283058e-05,-3.335385594e-05,-1.222978308e-05,-1.220374319e-04,-1.342672150e-04,1.736327372e-04,-3.767910501e-05,1.359536322e-04,-5.429173531e-05,-7.694120839e-05,-1.312329437e-04,-4.314430739e-04,2.457974856e-05,-4.068633253e-04,-5.556923722e-04,2.020673639e-05,-5.354856358e-04,-4.280981670e-04,2.723700967e-05,-4.008611573e-04,-4.095109431e-04,1.098661771e-04,-2.996447660e-04,5.828768922e-05,-7.041435956e-06,5.124625326e-05,3.998697955e-04,1.260660789e-04,5.259358744e-04,3.007347777e-05,2.341183317e-04,2.641918095e-04,6.706837735e-04,3.059888739e-05,7.012826609e-04,4.167914704e-04,1.152076116e-05,4.283122315e-04,1.075985156e-04,-1.065673577e-04,1.031157883e-06,1.940200917e-04,-2.444292653e-05,1.695771652e-04,-1.285176835e-04,4.221114066e-05,-8.630654287e-05,1.448542065e-04,-1.528955738e-04,-8.041367274e-06,-3.585771837e-04,9.710136602e-05,-2.614758177e-04,-4.248744042e-04,3.508811680e-05,-3.897862874e-04,-2.735993238e-04,-8.929690046e-05,-3.628962242e-04,-3.919260720e-04,-6.972339191e-05,-4.616494639e-04,-6.063972511e-04,1.902536877e-05,-5.873718823e-04,-1.784900482e-04,-1.463374065e-04,-3.248274547e-04,-3.158907653e-04,-1.724641328e-04,-4.883548981e-04,-2.436970656e-04,-3.352541769e-05,-2.772224833e-04
-6.7,2.067153806e-04,4.603885146e-04,6.671038952e-04,1.797406814e-04,2.276897719e-04,4.074304533e-04,3.499215612e-04,2.518260271e-04,6.017475882e-04,3.336363498e-04,1.090234416e-04,4.426597913e-04,5.885471696e-04,1.620073211e-04,7.505544907e-04,2.126575042e-04,1.515791513e-04,3.642366556e-04,3.003771748e-04,1.171329538e-04,4.175101286e-04,-1.194523255e-05,-1.534133879e-04,-1.653586204e-04,8.996475209e-04,4.414970308e-05,9.437972240e-04,2.748929447e-04,1.592499507e-04,4.341428954e-04,7.286673712e-04,1.400318629e-04,8.686992341e-04,7.001866955e-05,-8.359888440e-05,-1.358021486e-05,-3.686305059e-07,-1.232680869e-04,-1.236367174e-04,1.990968033e-04,-4.647711008e-05,1.526196933e-04,-4.454278355e-05,-7.997410700e-05,-1.245168906e-04,-4.222267375e-04,2.493593001e-05,-3.972908075e-04,-5.345684049e-04,1.729809945e-05,-5.172703055e-04,-4.077584880e-04,3.116240301e-05,-3.765960850e-04,-4.058331362e-04,1.179816835e-04,-2.878514527e-04,7.151476258e-05,-7.371782268e-06,6.414298031e-05,4.526615894e-04,1.243896102e-04,5.770511996e-04,7.605974851e-05,2.411195709e-04,3.171793194e-04,7.085762685e-04,3.809873574e-05,7.466750042e-04,4.684640981e-04,2.525011730e-05,4.937142155e-04,1.117940385e-04,-1.162035819e-04,-4.409543359e-06,2.000320666e-04,-3.317501169e-05,1.668570549e-04,-1.326948190e-04,4.736710819e-05,-8.532771084e-05,1.407555468e-04,-1.633353299e-04,-2.257978311e-05,-3.691242644e-04,9.938567484e-05,-2.697385896e-04,-4.375349704e-04,4.187914044e-05,-3.956558300e-04,-2.547477289e-04,-9.789153695e-05,-3.526392659e-04,-3.830875908e-04,-6.492145639e-05,-4.480090472e-04,-5.967127360e-04,2.797164769e-05,-5.687410884e-04,-1.473014142e-04,-1.496557628e-04,-2.969571770e-04,-2.869108409e-04,-1.792501092e-04,-4.661609500e-04,-2.197513127e-04,-4.031239193e-05,-2.600637046e-04
-6.6,2.638378981e-04,4.435576336e-04,7.073955318e-04,2.262597874e-04,2.284709342e-04,4.547307216e-04,3.881087276e-04,2.490940682e-04,6.372027958e-04,3.826551824e-04,1.135401556e-04,4.961953379e-04,6.161113756e-04,1.768409962e-04,7.929523718e-04,2.287955965e-04,1.838468389e-04,4.126424354e-04,3.483227527e-04,1.175892565e-04,4.659120092e-04,2.807170994e-05,-1.655221736e-04,-1.374504637e-04,9.525029745e-04,5.424743379e-05,1.006750408e-03,3.172835938e-04,1.626033829e-04,4.798869767e-04,7.678126624e-04,1.482911932e-04,9.161038556e-04,9.745360227e-05,-8.981281837e-05,7.640783899e-06,1.404345134e-05,-1.239360471e-04,-1.098925957e-04,2.250298902e-04,-5.470855163e-05,1.703213385e-04,-3.297294651e-05,-8.236922332e-05,-1.153421698e-04,-4.104951236e-04,2.552576488e-05,-3.849693588e-04,-5.108176977e-04,1.504568620e-05,-4.957720115e-04,-3.843447969e-04,3.527090951e-05,-3.490738874e-04,-3.995665266e-04,1.258537907e-04,-2.737127359e-04,8.498888120e-05,-7.232474653e-06,7.775640655e-05,5.036837406e-04,1.224374695e-04,6.261212101e-04,1.223668229e-04,2.465899185e-04,3.689567414e-04,7.419557522e-04,4.545599637e-05,7.874117486e-04,5.178587078e-04,3.845921393e-05,5.563179218e-04,1.184989470e-04,-1.250254624e-04,-6.526515416e-06,2.068690948e-04,-4.134236735e-05,1.655267274e-04,-1.340625818e-04,5.287278754e-05,-8.118979428e-05,1.370318213e-04,-1.719888862e-04,-3.495706493e-05,-3.760734882e-04,1.012976142e-04,-2.747758740e-04,-4.465983297e-04,4.965801602e-05,-3.969403137e-04,-2.328555915e-04,-1.056411880e-04,-3.384967796e-04,-3.701539299e-04,-5.932723990e-05,-4.294811698e-04,-5.814742797e-04,3.535131752e-05,-5.461229622e-04,-1.139716615e-04,-1.524506556e-04,-2.664223171e-04,-2.546401982e-04,-1.851650964e-04,-4.398052946e-04,-1.945968406e-04,-4.642161651e-05,-2.410184571e-04
-6.5,3.192904271e-04,4.263809450e-04,7.456713722e-04,2.709424502e-04,2.295130520e-04,5.004555022e-04,4.228919950e-04,2.462699191e-04,6.691619141e-04,4.284217613e-04,1.178892042e-04,5.463109655e-04,6.399031117e-04,1.912316184e-04,8.311347301e-04,2.442875737e-04,2.144061063e-04,4.586936800e-04,3.951508724e-04,1.174537794e-04,5.126046518e-04,6.739081611e-05,-1.755052607e-04,-1.081144446e-04,9.981805413e-04,6.432924267e-05,1.062509784e-03,3.578366915e-04,1.657342201e-04,5.235709116e-04,8.017545441e-04,1.563811360e-04,9.581356800e-04,1.257844034e-04,-9.562911673e-05,3.015528667e-05,3.088594911e-05,-1.240973162e-04,-9.321136705e-05,2.512954370e-04,-6.236657722e-05,1.889288597e-04,-1.972694915e-05,-8.413817711e-05,-1.038651263e-04,-3.963175457e-04,2.629581249e-05,-3.700217333e-04,-4.845376624e-04,1.343695248e-05,-4.711007099e-04,-3.580444259e-04,3.948310071e-05,-3.185613252e-04,-3.906813639e-04,1.333328431e-04,-2.573485208e-04,9.871264052e-05,-6.640334205e-06,9.207230631e-05,5.526237155e-04,1.201914035e-04,6.728151190e-04,1.687372814e-04,2.505584387e-04,4.192957201e-04,7.707017137e-04,5.264741515e-05,8.233491288e-04,5.647664733e-04,5.112645401e-05,6.158929273e-04,1.274401238e-04,-1.329325337e-04,-5.492409893e-06,2.144081876e-04,-4.891642667e-05,1.654917609e-04,-1.327710003e-04,5.865345095e-05,-7.411754932e-05,1.337008174e-04,-1.788369354e-04,-4.513611798e-05,-3.794297106e-04,1.027687762e-04,-2.766609343e-04,-4.521063272e-04,5.830996890e-05,-3.937963583e-04,-2.081963937e-04,-1.124678518e-04,-3.206642454e-04,-3.533104337e-04,-5.302553791e-05,-4.063359716e-04,-5.608967354e-04,4.121770350e-05,-5.196790319e-04,-7.874365297e-05,-1.547123664e-04,-2.334560193e-04,-2.192917267e-04,-1.902050774e-04,-4.094968041e-04,-1.684313837e-04,-5.177185057e-05,-2.202032343e-04
-6.4,3.728581807e-04,4.088225872e-04,7.816807679e-04,3.136573615e-04,2.307158672e-04,5.443732287e-04,4.542350405e-04,2.433121216e-04,6.975471622e-04,4.707519960e-04,1.220496270e-04,5.928016230e-04,6.598829829e-04,2.050868841e-04,8.649698670e-04,2.593571177e-04,2.429356023e-04,5.022927199e-04,4.406778738e-04,1.166846115e-04,5.573624853e-04,1.058601048e-04,-1.832375368e-04,-7.737743195e-05,1.036627160e-03,7.434406339e-05,1.110971223e-03,3.963868815e-04,1.686136310e-04,5.650005125e-04,8.303833824e-04,1.642504769e-04,9.946338593e-04,1.548411834e-04,-1.010433569e-04,5.379782649e-05,5.002083488e-05,-1.238195985e-04,-7.379876360e-05,2.777486765e-04,-6.945027441e-05,2.082984021e-04,-4.961900360e-06,-8.529484867e-05,-9.025674903e-05,-3.797778759e-04,2.719282304e-05,-3.525850528e-04,-4.558364005e-04,1.244100191e-05,-4.433953986e-04,-3.290705284e-04,4.372315494e-05,-2.853473734e-04,-3.791738235e-04,1.402768477e-04,-2.388969758e-04,1.126748654e-04,-5.622329043e-06,1.070525363e-04,5.991725202e-04,1.176342199e-04,7.168067401e-04,2.149089325e-04,2.530634242e-04,4.679723567e-04,7.947245255e-04,5.964724331e-05,8.543717688e-04,6.089906327e-04,6.323112236e-05,6.722217550e-04,1.383261324e-04,-1.398327562e-04,-1.506623779e-06,2.225220755e-04,-5.587599946e-05,1.666460761e-04,-1.289888468e-04,6.463351628e-05,-6.435533052e-05,1.307787051e-04,-1.838806673e-04,-5.310196220e-05,-3.792264096e-04,1.037396741e-04,-2.754867355e-04,-4.541204754e-04,6.770418962e-05,-3.864162858e-04,-1.810587697e-04,-1.183079656e-04,-2.993667353e-04,-3.327776134e-04,-4.611179700e-05,-3.788894104e-04,-5.352520936e-04,4.565479518e-05,-4.895972984e-04,-4.187646657e-05,-1.564352386e-04,-1.983117052e-04,-1.811051835e-04,-1.943763168e-04,-3.754815003e-04,-1.414454126e-04,-5.630157138e-05,-1.977469840e-04
-6.3,4.243342038e-04,3.908478149e-04,8.151820187e-04,3.542853542e-04,2.319748112e-04,5.862601654e-04,4.821264777e-04,2.401759490e-04,7.223024268e-04,5.094925931e-04,1.259965792e-04,6.354891723e-04,6.760394711e-04,2.183141508e-04,8.943536219e-04,2.742147969e-04,2.691324878e-04,5.433472847e-04,4.847141456e-04,1.152490791e-04,5.999632247e-04,1.433469512e-04,-1.886420427e-04,-4.529509151e-05,1.067845649e-03,8.423862255e-05,1.152084272e-03,4.327864447e-04,1.712114370e-04,6.039978817e-04,8.536297247e-04,1.718438657e-04,1.025473590e-03,1.844458208e-04,-1.060541469e-04,7.839167390e-05,7.129127677e-05,-1.231801115e-04,-5.188883473e-05,3.042366213e-04,-7.596450104e-05,2.282721202e-04,1.115338366e-05,-8.585478820e-05,-7.470140454e-05,-3.609761392e-04,2.816632376e-05,-3.328098155e-04,-4.248274890e-04,1.200554784e-05,-4.128219411e-04,-2.976596821e-04,4.791968320e-05,-2.497399989e-04,-3.650682318e-04,1.465547849e-04,-2.185134469e-04,1.268496624e-04,-4.215358640e-06,1.226343038e-04,6.430263864e-04,1.147501307e-04,7.577765171e-04,2.606161186e-04,2.541502092e-04,5.147663279e-04,8.139644749e-04,6.642754366e-05,8.803920185e-04,6.503477539e-04,7.475372463e-05,7.251014785e-04,1.508493320e-04,-1.456459462e-04,5.203385726e-06,2.310790702e-04,-6.220752069e-05,1.688715496e-04,-1.229023639e-04,7.073939876e-05,-5.216296517e-05,1.282760894e-04,-1.871418256e-04,-5.886573617e-05,-3.755256324e-04,1.041592949e-04,-2.713663375e-04,-4.527234321e-04,7.769506998e-05,-3.750283621e-04,-1.517451120e-04,-1.231126351e-04,-2.748577470e-04,-3.088119804e-04,-3.868907696e-05,-3.475010574e-04,-5.048616630e-04,4.877103500e-05,-4.560906280e-04,-3.643802480e-06,-1.576179536e-04,-1.612617561e-04,-1.403489169e-04,-1.976942037e-04,-3.380431206e-04,-1.138257374e-04,-5.996649573e-05,-1.737922331e-04
-6.2,4.735209807e-04,3.724239169e-04,8.459448976e-04,3.927185641e-04,2.331833014e-04,6.259018655e-04,5.065787427e-04,2.368140897e-04,7.433928323e-04,5.445211439e-04,1.297012992e-04,6.742224431e-04,6.883877194e-04,2.308214796e-04,9.192091990e-04,2.890492206e-04,2.927184782e-04,5.817676988e-04,5.270651590e-04,1.131236817e-04,6.401888407e-04,1.797399494e-04,-1.916927427e-04,-1.195279329e-05,1.091891751e-03,9.395783230e-05,1.185849583e-03,4.669044965e-04,1.734965053e-04,6.404010018e-04,8.714627906e-04,1.791023639e-04,1.050565155e-03,2.144140039e-04,-1.106647194e-04,1.037492845e-04,9.451942047e-05,-1.222624952e-04,-2.774307477e-05,3.305982225e-04,-8.191950034e-05,2.486787222e-04,2.843963869e-05,-8.583521256e-05,-5.739557387e-05,-3.400299672e-04,2.917063563e-05,-3.108593316e-04,-3.916262767e-04,1.205507253e-05,-3.795712042e-04,-2.640695331e-04,5.200622421e-05,-2.120633089e-04,-3.484197168e-04,1.520503729e-04,-1.963693440e-04,1.411954838e-04,-2.465605763e-06,1.387298780e-04,6.838884486e-04,1.115251122e-04,7.954135608e-04,3.055907263e-04,2.538695255e-04,5.594602518e-04,8.283907225e-04,7.295858214e-05,9.013493046e-04,6.886686452e-04,8.567631139e-05,7.743449566e-04,1.646886509e-04,-1.503082694e-04,1.438038156e-05,2.399427355e-04,-6.790503992e-05,1.720376956e-04,-1.147147006e-04,7.690270832e-05,-3.781199233e-05,1.261949612e-04,-1.886631446e-04,-6.246818337e-05,-3.684178343e-04,1.039848809e-04,-2.644329535e-04,-4.480203195e-04,8.812432961e-05,-3.598959899e-04,-1.205705144e-04,-1.268473822e-04,-2.474178966e-04,-2.817057207e-04,-3.086492537e-05,-3.125706461e-04,-4.700881990e-04,5.069225518e-05,-4.193959439e-04,3.566782905e-05,-1.582638626e-04,-1.225960335e-04,-9.732094473e-05,-2.001810964e-04,-2.975020411e-04,-8.575924326e-05,-6.273616506e-05,-1.484954083e-04
-6.1,5.202319868e-04,3.535210050e-04,8.737529918e-04,4.288602245e-04,2.342340567e-04,6.630942812e-04,5.276268913e-04,2.331772890e-04,7.608041803e-04,5.757455951e-04,1.331315188e-04,7.088771139e-04,6.969680093e-04,2.425186594e-04,9.394866687e-04,3.040192435e-04,3.134448616e-04,6.174641051e-04,5.675330580e-04,1.102938512e-04,6.778269091e-04,2.149507788e-04,-1.924157618e-04,2.253501693e-05,1.108871083e-03,1.034452696e-04,1.212316352e-03,4.986265782e-04,1.754371504e-04,6.740637285e-04,8.838891304e-04,1.859641425e-04,1.069853273e-03,2.445575791e-04,-1.148840539e-04,1.296735252e-04,1.195050024e-04,-1.211532131e-04,-1.648210632e-06,3.566655597e-04,-8.733038776e-05,2.693351720e-04,4.670963903e-05,-8.525553871e-05,-3.854589968e-05,-3.170751716e-04,3.016618313e-05,-2.869089884e-04,-3.563472902e-04,1.249044853e-05,-3.438568417e-04,-2.285759034e-04,5.592132418e-05,-1.726545792e-04,-3.293157690e-04,1.566656058e-04,-1.726501631e-04,1.556545982e-04,-4.275757175e-07,1.552270225e-04,7.214709992e-04,1.079472181e-04,8.294182173e-04,3.495633140e-04,2.522768545e-04,6.018401685e-04,8.380007591e-04,7.920925229e-05,9.172100114e-04,7.237994344e-04,9.598276746e-05,8.197822018e-04,1.795141929e-04,-1.537769698e-04,2.573722312e-05,2.489727259e-04,-7.297001116e-05,1.760027147e-04,-1.046448351e-04,8.306333952e-05,-2.158149559e-05,1.245273524e-04,-1.885087279e-04,-6.398137552e-05,-3.580210714e-04,1.031822161e-04,-2.548388553e-04,-4.401388640e-04,9.882378714e-05,-3.413150768e-04,-8.786090466e-05,-1.294919296e-04,-2.173528343e-04,-2.517844455e-04,-2.274864596e-05,-2.745330915e-04,-4.313287867e-04,5.155468568e-05,-3.797741010e-04,7.576168811e-05,-1.583811684e-04,-8.261948027e-05,-5.234835234e-05,-2.018636163e-04,-2.542119687e-04,-5.743468280e-05,-6.459100624e-05,-1.220256890e-04
-6,5.642935293e-04,3.341126260e-04,8.984061554e-04,4.626252692e-04,2.350197891e-04,6.976450583e-04,5.453275956e-04,2.292149703e-04,7.745425659e-04,6.031036751e-04,1.362521148e-04,7.393557899e-04,7.018444016e-04,2.533182090e-04,9.551626105e-04,3.192488127e-04,3.310960864e-04,6.503448991e-04,6.059191653e-04,1.067536163e-04,7.126727817e-04,2.489160580e-04,-1.908892676e-04,5.802679047e-05,1.118936179e-03,1.126436422e-04,1.231579822e-03,5.278549905e-04,1.770014072e-04,7.048563977e-04,8.909517191e-04,1.923652558e-04,1.083316975e-03,2.746874139e-04,-1.187275397e-04,1.559598743e-04,1.460257620e-04,-1.199378951e-04,2.608786697e-05,3.822662317e-04,-9.221673419e-05,2.900494975e-04,6.577184876e-05,-8.413823666e-05,-1.836638790e-05,-2.922651741e-04,3.112037213e-05,-2.611448020e-04,-3.191026069e-04,1.319090986e-05,-3.059116970e-04,-1.914688725e-04,5.960829986e-05,-1.318605727e-04,-3.078756369e-04,1.603234319e-04,-1.475522049e-04,1.701534135e-04,1.836904740e-06,1.719903182e-04,7.554986554e-04,1.040067161e-04,8.595053715e-04,3.922649219e-04,2.494324968e-04,6.416974186e-04,8.428204188e-04,8.514750647e-05,9.279679252e-04,7.556030156e-04,1.056590595e-04,8.612620751e-04,1.949935904e-04,-1.560341332e-04,3.895945720e-05,2.580274335e-04,-7.741082342e-05,1.806166101e-04,-9.292553491e-05,8.917207472e-05,-3.753460187e-06,1.232554638e-04,-1.867634037e-04,-6.350793987e-05,-3.444794349e-04,1.017263089e-04,-2.427531259e-04,-4.292280488e-04,1.096183596e-04,-3.196096892e-04,-5.395003072e-05,-1.310401414e-04,-1.849901721e-04,-2.194026752e-04,-1.444946683e-05,-2.338521420e-04,-3.890088487e-04,5.149887542e-05,-3.375099733e-04,1.163341975e-04,-1.579825982e-04,-4.164840074e-05,-5.784589831e-06,-2.027701006e-04,-2.085546904e-04,-2.904207572e-05,-6.552064027e-05,-9.456271599e-05
-5.9,6.055468288e-04,3.141762525e-04,9.197230812e-04,4.939414086e-04,2.354337775e-04,7.293751861e-04,5.597582247e-04,2.248758708e-04,7.846340954e-04,6.265624634e-04,1.390257528e-04,7.655882162e-04,7.031035728e-04,2.631363423e-04,9.662399151e-04,3.348245840e-04,3.454929258e-04,6.803175099e-04,6.420272431e-04,1.025052014e-04,7.445324445e-04,2.815981984e-04,-1.872417000e-04,9.435649845e-05,1.122283303e-03,1.214951786e-04,1.243778481e-03,5.545094728e-04,1.781571114e-04,7.326665842e-04,8.927290999e-04,1.982404271e-04,1.090969527e-03,3.046163772e-04,-1.222172524e-04,1.823991248e-04,1.738393314e-04,-1.186980445e-04,5.514128698e-05,4.072262250e-04,-9.660238649e-05,3.106238385e-04,8.543447885e-05,-8.250978171e-05,2.924697145e-06,-2.657694108e-04,3.200819883e-05,-2.337612119e-04,-2.800016331e-04,1.401910552e-05,-2.659825275e-04,-1.530481245e-04,6.301513416e-05,-9.003299036e-05,-2.842476916e-04,1.629692830e-04,-1.212784086e-04,1.846036420e-04,4.259697323e-06,1.888633393e-04,7.857122006e-04,9.969605543e-05,8.854082560e-04,4.334297464e-04,2.454017377e-04,6.788314841e-04,8.429039513e-04,9.074081016e-05,9.336447615e-04,7.839605845e-04,1.146934478e-04,8.986540323e-04,2.107988339e-04,-1.570886063e-04,5.371022763e-05,2.669676457e-04,-8.124203482e-05,1.857256109e-04,-7.980047592e-05,9.519211696e-05,1.539164104e-05,1.223524284e-04,-1.835306235e-04,-6.117819506e-05,-3.279611183e-04,9.960207305e-05,-2.283590452e-04,-4.154560156e-04,1.203291073e-04,-2.951269083e-04,-1.917582798e-05,-1.314999725e-04,-1.506758005e-04,-1.849375533e-04,-6.075606350e-06,-1.910131596e-04,-3.435771569e-04,5.066505830e-05,-2.929120987e-04,1.570786569e-04,-1.570844158e-04,-5.758877737e-09,4.199483065e-05,-2.029287566e-04,-1.609339259e-04,-7.707100295e-07,-6.552335532e-05,-6.629406535e-05
-5.8,6.438499101e-04,2.936937231e-04,9.375436332e-04,5.227499924e-04,2.353706188e-04,7.581206112e-04,5.710155933e-04,2.201086825e-04,7.911242758e-04,6.461179275e-04,1.414133108e-04,7.875312383e-04,7.008534273e-04,2.718938635e-04,9.727472908e-04,3.507951272e-04,3.564969080e-04,7.072920352e-04,6.756668570e-04,9.755859943e-05,7.732254564e-04,3.129836046e-04,-1.816474630e-04,1.313361416e-04,1.119148588e-03,1.299420047e-04,1.249090592e-03,5.785274482e-04,1.788718571e-04,7.573993054e-04,8.893339320e-04,2.035238678e-04,1.092857800e-03,3.341616136e-04,-1.253817416e-04,2.087798720e-04,2.026857526e-04,-1.175083631e-04,8.517738947e-05,4.313722272e-04,-1.005154032e-04,3.308568240e-04,1.055089356e-04,-8.040151081e-05,2.510742475e-05,-2.377711662e-04,3.281248191e-05,-2.049586843e-04,-2.391529119e-04,1.482888915e-05,-2.243240227e-04,-1.136185644e-04,6.609498874e-05,-4.752357566e-05,-2.586060035e-04,1.645715349e-04,-9.403446864e-05,1.989039205e-04,6.767702480e-06,2.056716229e-04,8.118725585e-04,9.500982895e-05,9.068823875e-04,4.727982800e-04,2.402547252e-04,7.130530052e-04,8.383335941e-04,9.595662095e-05,9.342902150e-04,8.087727848e-04,1.230766526e-04,9.318494374e-04,2.266120783e-04,-1.569759715e-04,6.963610687e-05,2.756595808e-04,-8.448351260e-05,1.911760682e-04,-6.552069565e-05,1.010990024e-04,3.557830675e-05,1.217831051e-04,-1.789295385e-04,-5.714643335e-05,-3.086567104e-04,9.680479104e-05,-2.118519194e-04,-3.990082362e-04,1.307764085e-04,-2.682318277e-04,1.612292931e-05,-1.308929425e-04,-1.147700131e-04,-1.487818075e-04,2.266277250e-06,-1.465155303e-04,-2.955014828e-04,4.919015163e-05,-2.463113312e-04,1.976886794e-04,-1.557050809e-04,4.198359852e-05,9.059725849e-05,-2.023665128e-04,-1.117692543e-04,2.719311813e-05,-6.460632052e-05,-3.741320239e-05
-5.7,6.790788789e-04,2.726516098e-04,9.517304886e-04,5.490062162e-04,2.347269996e-04,7.837332159e-04,5.792140032e-04,2.148626686e-04,7.940766718e-04,6.617942138e-04,1.433739972e-04,8.051682110e-04,6.952210131e-04,2.795169759e-04,9.747379890e-04,3.671702376e-04,3.640167456e-04,7.311869832e-04,7.066561880e-04,9.193120342e-05,7.985873914e-04,3.430774218e-04,-1.743193532e-04,1.687580686e-04,1.109803360e-03,1.379266368e-04,1.247729997e-03,5.998632222e-04,1.791130002e-04,7.789762224e-04,8.809105832e-04,2.081501967e-04,1.089060780e-03,3.631454315e-04,-1.282551227e-04,2.348903088e-04,2.322900288e-04,-1.164346494e-04,1.158553794e-04,4.545328416e-04,-1.039878658e-04,3.505449758e-04,1.258120016e-04,-7.785024633e-05,4.796175530e-05,-2.084654001e-04,3.352358152e-05,-1.749418186e-04,-1.966682381e-04,1.547438311e-05,-1.811938550e-04,-7.348704457e-05,6.880743137e-05,-4.679613196e-06,-2.311471782e-04,1.651209724e-04,-6.602620573e-05,2.129416579e-04,9.284879615e-06,2.222265375e-04,8.337645567e-04,8.994482224e-05,9.237093789e-04,5.101204239e-04,2.340658671e-04,7.441862910e-04,8.292184643e-04,1.007628542e-04,9.299813186e-04,8.299601512e-04,1.308019494e-04,9.607621006e-04,2.421296524e-04,-1.557569404e-04,8.637271205e-05,2.839762048e-04,-8.715974068e-05,1.968164641e-04,-5.034079015e-05,1.068789747e-04,5.653818452e-05,1.215049365e-04,-1.730923389e-04,-5.158740243e-05,-2.867781178e-04,9.334051709e-05,-1.934376007e-04,-3.800863290e-04,1.407833596e-04,-2.393029694e-04,5.160918815e-05,-1.292526721e-04,-7.764348392e-05,-1.113367899e-04,1.047168149e-05,-1.008651084e-04,-2.452645946e-04,4.720627496e-05,-1.980583196e-04,2.378610628e-04,-1.538640843e-04,8.399697857e-05,1.396178218e-04,-2.011082504e-04,-6.149042859e-05,5.466810546e-05,-6.278620759e-05,-8.118102129e-06
-5.6,7.111284510e-04,2.510414412e-04,9.621698922e-04,5.726786139e-04,2.334023407e-04,8.060809546e-04,5.844824989e-04,2.090882673e-04,7.935707662e-04,6.736425373e-04,1.448653656e-04,8.185079029e-04,6.863495978e-04,2.859380343e-04,9.722876321e-04,3.839191533e-04,3.680160782e-04,7.519352315e-04,7.348240784e-04,8.564754272e-05,8.204716211e-04,3.718958492e-04,-1.654981384e-04,2.063977108e-04,1.094548756e-03,1.453926400e-04,1.239941396e-03,6.184860535e-04,1.788478066e-04,7.973338601e-04,8.676319022e-04,2.120554748e-04,1.079687377e-03,3.913948084e-04,-1.308755013e-04,2.605193071e-04,2.623643984e-04,-1.155319656e-04,1.468324327e-04,4.765389967e-04,-1.070554786e-04,3.694835182e-04,1.461667774e-04,-7.489862883e-05,7.126814856e-05,-1.780568046e-04,3.413858395e-05,-1.439182207e-04,-1.526688272e-04,1.581861424e-05,-1.368502130e-04,-3.296023061e-05,7.111998432e-05,3.815975371e-05,-2.020873038e-04,1.646291159e-04,-3.745818800e-05,2.265953235e-04,1.173486744e-05,2.383301909e-04,8.512005240e-04,8.450004351e-05,9.357005675e-04,5.451585179e-04,2.269125741e-04,7.720710920e-04,8.156930111e-04,1.051283103e-04,9.208213214e-04,8.474628302e-04,1.378651956e-04,9.853280258e-04,2.570643208e-04,-1.535144053e-04,1.035499155e-04,2.917969063e-04,-8.929931058e-05,2.024975958e-04,-3.451542782e-05,1.125263319e-04,7.801090404e-05,1.214689702e-04,-1.661622183e-04,-4.469324814e-05,-2.625579902e-04,8.922655737e-05,-1.733314328e-04,-3.589070297e-04,1.501793220e-04,-2.087277077e-04,8.694962553e-05,-1.266226143e-04,-3.967298876e-05,-7.300597810e-05,1.843908830e-05,-5.456688980e-05,-1.933604145e-04,4.484039165e-05,-1.485200229e-04,2.772982838e-04,-1.515812974e-04,1.257169863e-04,1.886444174e-04,-1.991763285e-04,-1.053191104e-05,8.147955472e-05,-6.008984751e-05,2.138970721e-05
-5.5,7.399118693e-04,2.288597842e-04,9.687716535e-04,5.937479614e-04,2.312996182e-04,8.250475796e-04,5.869616024e-04,2.027377250e-04,7.896993274e-04,6.817396441e-04,1.458435975e-04,8.275832416e-04,6.743951687e-04,2.910962873e-04,9.654914560e-04,4.009670378e-04,3.685216893e-04,7.694887271e-04,7.600116065e-04,7.873909566e-05,8.387507022e-04,3.994579511e-04,-1.554408431e-04,2.440171080e-04,1.073710105e-03,1.522853671e-04,1.225995472e-03,6.343775912e-04,1.780437237e-04,8.124213149e-04,8.496957253e-04,2.151782703e-04,1.064873996e-03,4.187402890e-04,-1.332830761e-04,2.854572129e-04,2.926103076e-04,-1.148428377e-04,1.777674699e-04,4.972244114e-04,-1.097570198e-04,3.874673915e-04,1.664029064e-04,-7.159504875e-05,9.480785764e-05,-1.467577837e-04,3.465996244e-05,-1.120978212e-04,-1.072926752e-04,1.574072840e-05,-9.155194681e-05,7.657055228e-06,7.300937105e-05,8.066642628e-05,-1.716582198e-04,1.631254513e-04,-8.532768497e-06,2.397375006e-04,1.404382990e-05,2.537813305e-04,8.640239396e-04,7.867661974e-05,9.427005594e-04,5.776905739e-04,2.188733243e-04,7.965638982e-04,7.979154843e-04,1.090230978e-04,9.069385821e-04,8.612398542e-04,1.442648377e-04,1.005504692e-03,2.711463842e-04,-1.503492372e-04,1.207971470e-04,2.990064570e-04,-9.093437955e-05,2.080720774e-04,-1.829627271e-05,1.180400172e-04,9.974374450e-05,1.216208908e-04,-1.582913872e-04,-3.667049642e-05,-2.362489441e-04,8.449180480e-05,-1.517571393e-04,-3.357004042e-04,1.588033336e-04,-1.768970706e-04,1.218167638e-04,-1.230535523e-04,-1.236788443e-06,-3.418902625e-05,2.607130506e-05,-8.117721187e-06,-1.402897736e-04,4.221430402e-05,-9.807546963e-05,3.157111441e-04,-1.488768603e-04,1.668342839e-04,2.372633138e-04,-1.965906082e-04,4.067270559e-05,1.074606217e-04,-5.655432600e-05,5.090629570e-05
-5.4,7.653605019e-04,2.061082309e-04,9.714687328e-04,6.122060685e-04,2.283266992e-04,8.405327678e-04,5.868000338e-04,1.957657736e-04,7.825658074e-04,6.861860616e-04,1.462642425e-04,8.324503041e-04,6.595229189e-04,2.949386115e-04,9.544615304e-04,4.181906630e-04,3.656312888e-04,7.838219518e-04,7.820737122e-04,7.124409476e-05,8.533178069e-04,4.257786763e-04,-1.444097563e-04,2.813689201e-04,1.047631726e-03,1.585526270e-04,1.206184353e-03,6.475294915e-04,1.766686947e-04,8.241981862e-04,8.273217923e-04,2.174606427e-04,1.044782435e-03,4.450153546e-04,-1.355183688e-04,3.094969859e-04,3.227206582e-04,-1.143956905e-04,2.083249676e-04,5.164268368e-04,-1.121336552e-04,4.042931816e-04,1.863566629e-04,-6.799297672e-05,1.183636862e-04,-1.147857580e-04,3.509373988e-05,-7.969201810e-05,-6.070149806e-05,1.514161239e-05,-4.555988568e-05,4.806378531e-05,7.446202731e-05,1.225258126e-04,-1.401026107e-04,1.606540732e-04,2.055146251e-05,2.522386231e-04,1.614324756e-05,2.683818707e-04,8.721131564e-04,7.247766818e-05,9.445908246e-04,6.075137825e-04,2.100253943e-04,8.175391768e-04,7.760667809e-04,1.124191084e-04,8.884858893e-04,8.712683628e-04,1.500019580e-04,1.021270321e-03,2.841246176e-04,-1.463752490e-04,1.377493687e-04,3.054944565e-04,-9.209992313e-05,2.133945334e-04,-1.929075951e-06,1.234194986e-04,1.214904226e-04,1.219022526e-04,-1.496386285e-04,-2.773637590e-05,-2.081217938e-04,7.917654643e-05,-1.289452474e-04,-3.107067991e-04,1.665070135e-04,-1.441997856e-04,1.558917566e-04,-1.186012969e-04,3.729045966e-05,4.723628794e-06,3.327757492e-05,3.800120371e-05,-8.655476861e-05,3.944409756e-05,-4.711067105e-05,3.528220830e-04,-1.457714652e-04,2.070506178e-04,2.850657644e-04,-1.933690199e-04,9.169674455e-05,1.324534771e-04,-5.222603339e-05,8.022744376e-05
-5.3,7.874234539e-04,1.827932717e-04,9.702167256e-04,6.280552581e-04,2.243980307e-04,8.524532889e-04,5.841518886e-04,1.881303265e-04,7.722822151e-04,6.871043771e-04,1.460833537e-04,8.331877307e-04,6.419043108e-04,2.974201758e-04,9.393244866e-04,4.354156249e-04,3.595190731e-04,7.949346980e-04,8.008811991e-04,6.320721446e-05,8.640884136e-04,4.508643115e-04,-1.326639084e-04,3.182004030e-04,1.016672630e-03,1.641451902e-04,1.180817820e-03,6.579418216e-04,1.746914638e-04,8.326332854e-04,8.007494048e-04,2.188490045e-04,1.019598409e-03,4.700568176e-04,-1.376207976e-04,3.324360200e-04,3.523831010e-04,-1.142041088e-04,2.381789922e-04,5.339900221e-04,-1.142280102e-04,4.197620118e-04,2.058711572e-04,-6.414963757e-05,1.417215196e-04,-8.235951100e-05,3.544734104e-05,-4.691216996e-05,-1.308534888e-05,1.394786842e-05,8.625195342e-07,8.796529312e-05,7.547383537e-05,1.634391285e-04,-1.076679477e-04,1.572701437e-04,4.960219599e-05,2.639708503e-04,1.797253675e-05,2.819433870e-04,8.753848510e-04,6.590838022e-05,9.412932312e-04,6.344478148e-04,2.004428282e-04,8.348906429e-04,7.503496139e-04,1.152905412e-04,8.656401552e-04,8.775430073e-04,1.550803667e-04,1.032623374e-03,2.957679185e-04,-1.417141883e-04,1.540537302e-04,3.111559644e-04,-9.283282999e-05,2.183231344e-04,1.434872540e-05,1.286602973e-04,1.430090227e-04,1.222523356e-04,-1.403664813e-04,-1.811414576e-05,-1.784626491e-04,7.333158435e-05,-1.051310648e-04,-2.841730368e-04,1.731567458e-04,-1.110162910e-04,1.888678921e-04,-1.133247637e-04,7.554312840e-05,4.335542751e-05,3.997628538e-05,8.333171289e-05,-3.265133321e-05,3.663868531e-05,3.987352102e-06,3.883691686e-04,-1.422868350e-04,2.460823336e-04,3.316552448e-04,-1.895283364e-04,1.421269085e-04,1.563107947e-04,-4.715882965e-05,1.091519651e-04
-5.2,8.060673170e-04,1.589259797e-04,9.649932967e-04,6.413089671e-04,2.194362102e-04,8.607451773e-04,5.791744131e-04,1.797931650e-04,7.589675781e-04,6.846374031e-04,1.452589678e-04,8.298963709e-04,6.217149503e-04,2.985049748e-04,9.202199251e-04,4.524173261e-04,3.504367055e-04,8.028540316e-04,8.163229382e-04,5.467902471e-05,8.710019629e-04,4.747106110e-04,-1.204535228e-04,3.542570882e-04,9.812030919e-04,1.690171543e-04,1.150220246e-03,6.656221977e-04,1.720818947e-04,8.377040924e-04,7.702355649e-04,2.192949116e-04,9.895304764e-04,4.937058018e-04,-1.396274717e-04,3.540783300e-04,3.812842840e-04,-1.142673076e-04,2.670169764e-04,5.497655458e-04,-1.160829180e-04,4.336826278e-04,2.247964313e-04,-6.012428564e-05,1.646721456e-04,-4.969501680e-05,3.572753021e-05,-1.396748659e-05,3.533596490e-05,1.211388877e-05,4.744985367e-05,1.270761319e-04,7.604932232e-05,2.031254542e-04,-7.459989110e-05,1.530360533e-04,7.843616222e-05,2.748114878e-04,1.948128817e-05,2.942927760e-04,8.737966419e-04,5.897636932e-05,9.327730112e-04,6.583371418e-04,1.901950234e-04,8.485321651e-04,7.209875685e-04,1.176144079e-04,8.386019764e-04,8.800754690e-04,1.595066936e-04,1.039582163e-03,3.058675824e-04,-1.364915947e-04,1.693759877e-04,3.158928361e-04,-9.317106379e-05,2.227217723e-04,3.030905060e-05,1.337500116e-04,1.640590622e-04,1.226103625e-04,-1.306383293e-04,-8.027966771e-06,-1.475695448e-04,6.701676488e-05,-8.055277988e-05,-2.563490260e-04,1.786351922e-04,-7.771383378e-05,2.204542512e-04,-1.072846467e-04,1.131696044e-04,8.134719968e-05,4.609772954e-05,1.274449292e-04,2.093899201e-05,3.389787531e-05,5.483686732e-05,4.221100154e-04,-1.384461054e-04,2.836639100e-04,3.766540183e-04,-1.850847464e-04,1.915692719e-04,1.788977772e-04,-4.141222781e-05,1.374855494e-04
-5.1,8.212758793e-04,1.345215192e-04,9.557973985e-04,6.519930335e-04,2.133731873e-04,8.653662208e-04,5.720261898e-04,1.707206153e-04,7.427468052e-04,6.789458056e-04,1.437529721e-04,8.226987777e-04,5.991330398e-04,2.981662526e-04,8.972992923e-04,4.689276642e-04,3.387071141e-04,8.076347782e-04,8.283076900e-04,4.571515860e-05,8.740228486e-04,4.973026167e-04,-1.080163785e-04,3.892862382e-04,9.416017265e-04,1.731262701e-04,1.114727997e-03,6.705850622e-04,1.688113843e-04,8.393964465e-04,7.360530080e-04,2.187558407e-04,9.548088487e-04,5.158083719e-04,-1.415720281e-04,3.742363438e-04,4.091139166e-04,-1.145715003e-04,2.945424163e-04,5.636135165e-04,-1.177398847e-04,4.458736317e-04,2.429889272e-04,-5.597648395e-05,1.870124432e-04,-1.700170454e-05,3.593882826e-05,1.893712373e-05,8.431385989e-05,9.621860850e-06,9.393572074e-05,1.651225319e-04,7.620062895e-05,2.413231609e-04,-4.113648763e-05,1.480172977e-04,1.068808100e-04,2.846455766e-04,2.063084057e-05,3.052764172e-04,8.673484183e-04,5.169207281e-05,9.190404911e-04,6.790517931e-04,1.793458803e-04,8.583976734e-04,6.882235918e-04,1.193709756e-04,8.075945674e-04,8.788938726e-04,1.632904326e-04,1.042184305e-03,3.142391201e-04,-1.308337376e-04,1.834053826e-04,3.196144519e-04,-9.315313124e-05,2.264613206e-04,4.573272957e-05,1.386655006e-04,1.843982302e-04,1.229172957e-04,-1.206156665e-04,2.301629181e-06,-1.157494450e-04,6.029905804e-05,-5.545038696e-05,-2.274856748e-04,1.828422279e-04,-4.464344690e-05,2.503786938e-04,-1.005428114e-04,1.498358825e-04,1.183591625e-04,5.158636885e-05,1.699455314e-04,7.375637954e-05,3.131050752e-05,1.050668871e-04,4.538244272e-04,-1.342738173e-04,3.195506099e-04,4.197075756e-04,-1.800540804e-04,2.396534952e-04,2.000946522e-04,-3.505068826e-05,1.650439639e-04
-5,8.330495250e-04,1.095986225e-04,9.426481475e-04,6.601466000e-04,2.061512303e-04,8.662978303e-04,5.628654863e-04,1.608842458e-04,7.237497321e-04,6.702049963e-04,1.415332841e-04,8.117382803e-04,5.743380110e-04,2.963868981e-04,8.707249092e-04,4.846485977e-04,3.247093849e-04,8.093579827e-04,8.367649929e-04,3.637527690e-05,8.731402698e-04,5.186149767e-04,-9.557459562e-05,4.230403811e-04,8.982528020e-04,1.764343071e-04,1.074687109e-03,6.728505549e-04,1.648534118e-04,8.377039667e-04,6.984877795e-04,2.171959487e-04,9.156837282e-04,5.362152207e-04,-1.434834944e-04,3.927317263e-04,4.355675606e-04,-1.150914579e-04,3.204761027e-04,5.754017905e-04,-1.192374734e-04,4.561643171e-04,2.603099860e-04,-5.176464648e-05,2.085453396e-04,1.552001588e-05,3.608253022e-05,5.160254610e-05,1.335731404e-04,6.479481720e-06,1.400526221e-04,2.018439004e-04,7.594643123e-05,2.777903316e-04,-7.504673084e-06,1.422787783e-04,1.347741052e-04,2.933674657e-04,2.139509229e-05,3.147625580e-04,8.560821775e-04,4.406902087e-05,9.001511984e-04,6.964865583e-04,1.679532188e-04,8.644397772e-04,6.523177633e-04,1.205441744e-04,7.728619377e-04,8.740419457e-04,1.664439445e-04,1.040485890e-03,3.207223197e-04,-1.248650966e-04,1.958572231e-04,3.222368144e-04,-9.281790614e-05,2.294189083e-04,6.040881889e-05,1.433708732e-04,2.037796921e-04,1.231168250e-04,-1.104558525e-04,1.266097247e-05,-8.331597867e-05,5.325031954e-05,-3.006565913e-05,-1.978342226e-04,1.856952884e-04,-1.213893430e-05,2.783895991e-04,-9.316209390e-05,1.852275052e-04,1.540713754e-04,5.640229064e-05,2.104736661e-04,1.253676010e-04,2.895305040e-05,1.543206514e-04,4.833148929e-04,-1.297953724e-04,3.535195205e-04,4.604863128e-04,-1.744518309e-04,2.860344818e-04,2.197993565e-04,-2.814458691e-05,1.916547696e-04
-4.9,8.414042281e-04,8.417918084e-05,9.255834089e-04,6.658217013e-04,1.977237588e-04,8.635454601e-04,5.518486839e-04,1.502615711e-04,7.021102550e-04,6.586015813e-04,1.385759832e-04,7.971775645e-04,5.475091154e-04,2.931598432e-04,8.406689586e-04,4.992709002e-04,3.088565723e-04,8.081274724e-04,8.416449583e-04,2.672199493e-05,8.683669532e-04,5.386124310e-04,-8.333125411e-05,4.552811769e-04,8.515438458e-04,1.789074936e-04,1.030451339e-03,6.724429457e-04,1.601841861e-04,8.326271318e-04,6.578364940e-04,2.145867698e-04,8.724232639e-04,5.547804266e-04,-1.453851420e-04,4.093952846e-04,4.603480078e-04,-1.157918734e-04,3.445561344e-04,5.850042631e-04,-1.206098591e-04,4.643944040e-04,2.766235650e-04,-4.754484352e-05,2.290787215e-04,4.767971947e-05,3.615616676e-05,8.383588622e-05,1.828149216e-04,2.715299499e-06,1.855302211e-04,2.369933429e-04,7.531078172e-05,3.123041246e-04,2.608029687e-05,1.358822952e-04,1.619625921e-04,3.008814751e-04,2.176064081e-05,3.226421159e-04,8.400804789e-04,3.612403004e-05,8.762045090e-04,7.105591443e-04,1.560684362e-04,8.666275805e-04,6.135445736e-04,1.211220253e-04,7.346665989e-04,8.655779792e-04,1.689824459e-04,1.034560425e-03,3.251789559e-04,-1.187056866e-04,2.064732693e-04,3.236800210e-04,-9.220461735e-05,2.314754036e-04,7.413529360e-05,1.478153722e-04,2.219506658e-04,1.231557219e-04,-1.003105097e-04,2.284521220e-05,-5.058764465e-05,4.594492573e-05,-4.642718922e-06,-1.676464746e-04,1.871291762e-04,1.948270156e-05,3.042564515e-04,-8.520616985e-05,2.190502817e-04,1.881830400e-04,6.052185731e-05,2.487048974e-04,1.753675919e-04,2.688925717e-05,2.022568490e-04,5.104049502e-04,-1.250360085e-04,3.853689418e-04,4.986849103e-04,-1.682932270e-04,3.303916833e-04,2.379301433e-04,-2.077276967e-05,2.171573736e-04
-4.8,8.463703405e-04,5.828795880e-05,9.046582993e-04,6.690814603e-04,1.880558212e-04,8.571372815e-04,5.391289334e-04,1.388366939e-04,6.779656272e-04,6.443299883e-04,1.348669002e-04,7.791968885e-04,5.188240746e-04,2.884884002e-04,8.073124748e-04,5.124939760e-04,2.915713585e-04,8.040653345e-04,8.429173042e-04,1.681991960e-05,8.597372238e-04,5.572509131e-04,-7.146727743e-05,4.857836357e-04,8.018638349e-04,1.805170409e-04,9.823808758e-04,6.693891815e-04,1.547833033e-04,8.241724848e-04,6.144038178e-04,2.109078339e-04,8.253116516e-04,5.713598238e-04,-1.472932004e-04,4.240666234e-04,4.831659001e-04,-1.166285521e-04,3.665373480e-04,5.922993641e-04,-1.218856796e-04,4.704136845e-04,2.917938943e-04,-4.336972377e-05,2.484241705e-04,7.929678096e-05,3.615323560e-05,1.154500166e-04,2.317199661e-04,-1.627038939e-06,2.300929271e-04,2.703378021e-04,7.432167602e-05,3.446594781e-04,5.941320033e-05,1.288852920e-04,1.882984923e-04,3.071021096e-04,2.172630711e-05,3.288284167e-04,8.194639907e-04,2.787747078e-05,8.473414615e-04,7.212078132e-04,1.437369936e-04,8.649448068e-04,5.721902797e-04,1.210970866e-04,6.932873663e-04,8.535738688e-04,1.709239861e-04,1.024497855e-03,3.274889119e-04,-1.124681448e-04,2.150207672e-04,3.238651924e-04,-9.135278051e-05,2.325124119e-04,8.672163129e-05,1.519311289e-04,2.386527602e-04,1.229840262e-04,-9.032452309e-05,3.265950312e-05,-1.788582633e-05,3.845750679e-05,2.057168046e-05,-1.371750281e-04,1.870955437e-04,4.992051558e-05,3.277701567e-04,-7.673977765e-05,2.510303791e-04,2.204114393e-04,6.393770342e-05,2.843491427e-04,2.233778212e-04,2.517149207e-05,2.485493132e-04,5.349363379e-04,-1.200195221e-04,4.149168159e-04,5.340207161e-04,-1.615935475e-04,3.724271686e-04,2.544282046e-04,-1.302618215e-05,2.414020224e-04
-4.7,8.479916244e-04,3.195232232e-05,8.799439468e-04,6.699977529e-04,1.771239534e-04,8.471217062e-04,5.248553830e-04,1.266008085e-04,6.514561916e-04,6.275898909e-04,1.304024083e-04,7.579922992e-04,4.884581959e-04,2.823864675e-04,7.708446633e-04,5.240431992e-04,2.732639529e-04,7.973071521e-04,8.405703175e-04,6.734895052e-06,8.473052125e-04,5.744797019e-04,-6.013907010e-05,5.143406318e-04,7.496023156e-04,1.812397080e-04,9.308420235e-04,6.637183641e-04,1.486343182e-04,8.123526823e-04,5.685008318e-04,2.061471997e-04,7.746480314e-04,5.858098238e-04,-1.492153635e-04,4.365944602e-04,5.037404846e-04,-1.175493967e-04,3.861910879e-04,5.971698640e-04,-1.230871374e-04,4.740827266e-04,3.056840008e-04,-3.928748233e-05,2.663965185e-04,1.101997959e-04,3.606317186e-05,1.462629678e-04,2.799517058e-04,-6.493044370e-06,2.734586614e-04,3.016587135e-04,7.300916079e-05,3.746678743e-04,9.229641215e-05,1.213404316e-04,2.136368437e-04,3.119544044e-04,2.130201293e-05,3.332564174e-04,7.943888929e-04,1.935358076e-05,8.137424736e-04,7.283887919e-04,1.310005195e-04,8.593893114e-04,5.285509717e-04,1.204668582e-04,6.490178299e-04,8.381146463e-04,1.722893780e-04,1.010404024e-03,3.275466996e-04,-1.062550920e-04,2.212916076e-04,3.227125153e-04,-9.030199685e-05,2.324105184e-04,9.799277065e-05,1.556316741e-04,2.536244447e-04,1.225554960e-04,-8.063545633e-05,4.192003965e-05,1.446806305e-05,3.086096451e-05,4.532902756e-05,-1.066725177e-04,1.855622625e-04,7.888974484e-05,3.487440674e-04,-6.782971653e-05,2.809143509e-04,2.504914975e-04,6.665814011e-05,3.171496376e-04,2.690426827e-04,2.384375352e-05,2.928864362e-04,5.567662204e-04,-1.147670019e-04,4.419992186e-04,5.662328697e-04,-1.543686969e-04,4.118641728e-04,2.692605386e-04,-5.011607494e-06,2.642489311e-04
-4.6,8.463249639e-04,5.201908345e-06,8.515268723e-04,6.686495222e-04,1.649154639e-04,8.335649861e-04,5.091732942e-04,1.135525558e-04,6.227258500e-04,6.085847937e-04,1.251895195e-04,7.337743132e-04,4.565844051e-04,2.748785884e-04,7.314629935e-04,5.336829724e-04,2.543144999e-04,7.879974723e-04,8.346104232e-04,-3.466520587e-06,8.311439026e-04,5.902443543e-04,-4.947679263e-05,5.407675617e-04,6.951495469e-04,1.810582771e-04,8.762078241e-04,6.554626522e-04,1.417251736e-04,7.971878258e-04,5.204446250e-04,2.003018545e-04,7.207464796e-04,5.979873174e-04,-1.511491576e-04,4.468381598e-04,5.218012077e-04,-1.184950482e-04,4.033061596e-04,5.995043833e-04,-1.242293019e-04,4.752750814e-04,3.181557032e-04,-3.534099690e-05,2.828147063e-04,1.402263897e-04,3.587157681e-05,1.760979665e-04,3.271590144e-04,-1.181854917e-05,3.153404652e-04,3.307538300e-04,7.140306600e-05,4.021568960e-04,1.245379157e-04,1.132956751e-04,2.378335909e-04,3.153747180e-04,2.050707818e-05,3.358817962e-04,7.650447823e-04,1.058061624e-05,7.756253986e-04,7.320737905e-04,1.179005529e-04,8.499743434e-04,4.829315901e-04,1.192340868e-04,6.021656770e-04,8.192987297e-04,1.731020545e-04,9.924007841e-04,3.252601883e-04,-1.001571358e-04,2.251030524e-04,3.201415858e-04,-8.909164035e-05,2.310499454e-04,1.077939201e-04,1.588117581e-04,2.666056781e-04,1.218281806e-04,-7.137290057e-05,5.045528008e-05,4.615645763e-05,2.322489074e-05,6.938134837e-05,-7.638954057e-05,1.825128136e-04,1.061232731e-04,3.670158334e-04,-5.854621099e-05,3.084696224e-04,2.781766189e-04,6.870588358e-05,3.468825025e-04,3.120257623e-04,2.294571817e-05,3.349714805e-04,5.757653470e-04,-1.092957090e-04,4.664696380e-04,5.950833650e-04,-1.466358886e-04,4.484474764e-04,2.824226357e-04,3.145769314e-06,2.855684050e-04
-4.5,8.414408188e-04,-2.193170383e-05,8.195091149e-04,6.651224480e-04,1.514273543e-04,8.165498023e-04,4.922250127e-04,9.969823992e-05,5.919232527e-04,5.875217013e-04,1.192455448e-04,7.067672460e-04,4.233742817e-04,2.659998966e-04,6.893741782e-04,5.412250373e-04,2.350606669e-04,7.762857042e-04,8.250625982e-04,-1.371743855e-05,8.113451596e-04,6.044896488e-04,-3.958302876e-05,5.649066201e-04,6.388972779e-04,1.799618133e-04,8.188590912e-04,6.446593571e-04,1.340484782e-04,7.787078353e-04,4.705588124e-04,1.933779032e-04,6.639367156e-04,6.077506122e-04,-1.530803825e-04,4.546702297e-04,5.370902682e-04,-1.193993243e-04,4.176909439e-04,5.991999433e-04,-1.253196532e-04,4.738802902e-04,3.290709262e-04,-3.156730771e-05,2.975036185e-04,1.692237402e-04,3.556067597e-05,2.047844162e-04,3.729800999e-04,-1.752871256e-05,3.554513874e-04,3.574401166e-04,6.953076656e-05,4.269708832e-04,1.559504031e-04,1.047946751e-04,2.607450782e-04,3.173118439e-04,1.936826766e-05,3.366801116e-04,7.316531503e-04,1.590718066e-06,7.332438684e-04,7.322480454e-04,1.044829470e-04,8.367309924e-04,4.356454904e-04,1.174069696e-04,5.530524600e-04,7.972386649e-04,1.733878844e-04,9.706265493e-04,3.205516068e-04,-9.425141874e-05,2.263001881e-04,3.160738078e-04,-8.776048400e-05,2.283133238e-04,1.159957484e-04,1.613483591e-04,2.773441075e-04,1.207644793e-04,-6.265731571e-05,5.810716357e-05,7.686990658e-05,1.561435030e-05,9.248425688e-05,-4.657204712e-05,1.779458686e-04,1.313738215e-04,3.824493416e-04,-4.896370954e-05,3.334856320e-04,3.032406639e-04,7.011609189e-05,3.733567558e-04,3.520078400e-04,2.251656892e-05,3.745244090e-04,5.918171477e-04,-1.036181290e-04,4.881990187e-04,6.203596237e-04,-1.384141654e-04,4.819454582e-04,2.939398100e-04,1.130196503e-05,3.052417750e-04
-4.4,8.334240140e-04,-4.941522978e-05,7.840087842e-04,6.595096997e-04,1.366650387e-04,7.961747384e-04,4.741513575e-04,8.505187111e-05,5.592032286e-04,5.646112968e-04,1.125975204e-04,6.772088172e-04,3.889996436e-04,2.557959442e-04,6.447955879e-04,5.465323437e-04,2.157900447e-04,7.623223884e-04,8.119712786e-04,-2.395103818e-05,7.880202405e-04,6.171619413e-04,-3.053198471e-05,5.866299566e-04,5.812394444e-04,1.779457350e-04,7.591851794e-04,6.313534558e-04,1.256016469e-04,7.569551027e-04,4.191741815e-04,1.853905377e-04,6.045647191e-04,6.149607944e-04,-1.549819339e-04,4.599788605e-04,5.493655106e-04,-1.201898564e-04,4.291756542e-04,5.961643741e-04,-1.263579347e-04,4.698064394e-04,3.382935024e-04,-2.799745530e-05,3.102960471e-04,1.970494801e-04,3.510994410e-05,2.321594242e-04,4.170487973e-04,-2.353711644e-05,3.935116809e-04,3.815568814e-04,6.741538254e-05,4.489722640e-04,1.863515916e-04,9.587715260e-05,2.822287442e-04,3.177280308e-04,1.791802567e-05,3.356460564e-04,6.944659320e-04,-7.580391432e-06,6.868855406e-04,7.289089562e-04,9.080181720e-05,8.197107734e-04,3.870138110e-04,1.149992834e-04,5.020130944e-04,7.720618141e-04,1.731750135e-04,9.452368276e-04,3.133590839e-04,-8.860053508e-05,2.247585488e-04,3.104351634e-04,-8.634630193e-05,2.240888614e-04,1.224990450e-04,1.631025328e-04,2.856015777e-04,1.193301897e-04,-5.459856865e-05,6.473162106e-05,1.063107598e-04,8.088798346e-06,1.143995581e-04,-1.745949628e-05,1.718752102e-04,1.544157140e-04,3.949360024e-04,-3.916077668e-05,3.557752258e-04,3.254801557e-04,7.093389812e-05,3.964140538e-04,3.886878933e-04,2.259703471e-05,4.112849280e-04,6.048171940e-04,-9.774124947e-05,5.070759445e-04,6.418769284e-04,-1.297245633e-04,5.121523651e-04,3.038660807e-04,1.929631841e-05,3.231623991e-04
-4.3,8.223743138e-04,-7.721385648e-05,7.451604574e-04,6.519126856e-04,1.206411720e-04,7.725538576e-04,4.550928767e-04,6.963496854e-05,5.247278452e-04,5.400679280e-04,1.052814181e-04,6.453493460e-04,3.536340051e-04,2.443223708e-04,5.979563759e-04,5.495186630e-04,1.967369070e-04,7.462555700e-04,7.954011388e-04,-3.410109803e-05,7.613000407e-04,6.282105036e-04,-2.236939787e-05,6.058411057e-04,5.225722017e-04,1.750118689e-04,6.975840706e-04,6.155996494e-04,1.163869858e-04,7.319866352e-04,3.666287186e-04,1.763638835e-04,5.429926022e-04,6.194828135e-04,-1.568132436e-04,4.626695698e-04,5.584027178e-04,-1.207891271e-04,4.376135906e-04,5.903177472e-04,-1.273363058e-04,4.629814414e-04,3.456905617e-04,-2.465654797e-05,3.210340137e-04,2.235723082e-04,3.449680311e-05,2.580691113e-04,4.590030135e-04,-2.974644042e-05,4.292565731e-04,4.029681239e-04,6.507454795e-05,4.680426719e-04,2.155655641e-04,8.657880806e-05,3.021443722e-04,3.165995200e-04,1.619311169e-05,3.327926317e-04,6.537635615e-04,-1.689371333e-05,6.368698482e-04,7.220650383e-04,7.692242502e-05,7.989874633e-04,3.373641314e-04,1.120304373e-04,4.493945687e-04,7.439105200e-04,1.724937459e-04,9.164042658e-04,3.036367384e-04,-8.325183646e-05,2.203849019e-04,3.031575050e-04,-8.488543116e-05,2.182720738e-04,1.272376679e-04,1.639217743e-04,2.911594422e-04,1.174924170e-04,-4.729474739e-05,7.019766964e-05,1.341956601e-04,7.009191049e-07,1.348965792e-04,1.071554881e-05,1.643298791e-04,1.750454279e-04,4.043949810e-04,-2.921952222e-05,3.751754588e-04,3.447157026e-04,7.121169605e-05,4.159273987e-04,4.217873578e-04,2.322840308e-05,4.450157609e-04,6.146724729e-04,-9.166614118e-05,5.230063317e-04,6.594793779e-04,-1.205899810e-04,5.388893969e-04,3.122800183e-04,2.695608241e-05,3.392361007e-04
-4.2,8.084064353e-04,-1.052914804e-04,7.031149549e-04,6.424405931e-04,1.033752244e-04,7.458158175e-04,4.351906306e-04,5.347612983e-05,4.886667604e-04,5.141090974e-04,9.734102016e-05,6.114501176e-04,3.174534489e-04,2.316443891e-04,5.490978380e-04,5.501441276e-04,1.780831914e-04,7.282273190e-04,7.754372553e-04,-4.410268692e-05,7.313345683e-04,6.375872002e-04,-1.511301265e-05,6.224741875e-04,4.632930991e-04,1.711686165e-04,6.344617157e-04,5.974633654e-04,1.064118847e-04,7.038752500e-04,3.132666980e-04,1.663308300e-04,4.795975280e-04,6.211859081e-04,-1.585203295e-04,4.626655786e-04,5.639966805e-04,-1.211157655e-04,4.428809150e-04,5.815927656e-04,-1.282397510e-04,4.533530146e-04,3.511331265e-04,-2.156397562e-05,3.295691509e-04,2.486718202e-04,3.369724985e-05,2.823690701e-04,4.984938630e-04,-3.605088354e-05,4.624429795e-04,4.215634934e-04,6.251971029e-05,4.840832037e-04,2.434245084e-04,7.693071462e-05,3.203552230e-04,3.139164747e-04,1.423350552e-05,3.281499802e-04,6.098523660e-04,-2.630731817e-05,5.835450478e-04,7.117350274e-04,6.292266915e-05,7.746576966e-04,2.870283726e-04,1.085254132e-04,3.955537859e-04,7.129416028e-04,1.713764126e-04,8.843180153e-04,2.913525249e-04,-7.823713272e-05,2.131153922e-04,2.941777099e-04,-8.341224139e-05,2.107654685e-04,1.301788069e-04,1.636430832e-04,2.938218901e-04,1.152164234e-04,-4.083132275e-05,7.438510065e-05,1.602568559e-04,-6.504554489e-06,1.537523014e-04,3.772668424e-05,1.553541797e-04,1.930808640e-04,4.107721619e-04,-1.922503326e-05,3.915471286e-04,3.607923144e-04,7.100627879e-05,4.317985932e-04,4.510566389e-04,2.444861193e-05,4.755052508e-04,6.213002820e-04,-8.538783523e-05,5.359124467e-04,6.730391084e-04,-1.110349470e-04,5.620041615e-04,3.192774427e-04,3.410322568e-05,3.533806684e-04
-4.1,7.916494328e-04,-1.336110538e-04,6.580383790e-04,6.312080163e-04,8.489445710e-05,7.161024734e-04,4.145864484e-04,3.661048344e-05,4.511969318e-04,4.869546296e-04,8.882643418e-05,5.757810638e-04,2.806368482e-04,2.178361224e-04,4.984729707e-04,5.484077383e-04,1.599632808e-04,7.083710190e-04,7.521845658e-04,-5.389297374e-05,6.982915920e-04,6.452440239e-04,-8.753428300e-06,6.364905956e-04,4.037995909e-04,1.664311871e-04,5.702307779e-04,5.770206581e-04,9.568920781e-05,6.727098659e-04,2.594370163e-04,1.553328506e-04,4.147698669e-04,6.199435045e-04,-1.600362964e-04,4.599072081e-04,5.659611267e-04,-1.210858317e-04,4.448752950e-04,5.699346675e-04,-1.290467259e-04,4.408879416e-04,3.544962535e-04,-1.873380543e-05,3.357624481e-04,2.722375504e-04,3.268626623e-05,3.049238167e-04,5.351942416e-04,-4.233992558e-05,4.928543160e-04,4.372578716e-04,5.975598611e-05,4.970138577e-04,2.697699211e-04,6.695876339e-05,3.367286845e-04,3.096824462e-04,1.208130194e-05,3.217637482e-04,5.630615423e-04,-3.577690689e-05,5.272846354e-04,6.979473596e-04,4.889292446e-05,7.468402840e-04,2.363402903e-04,1.045145888e-04,3.408548791e-04,6.793253669e-04,1.698571813e-04,8.491825481e-04,2.764844291e-04,-7.357258324e-05,2.029118458e-04,2.834354139e-04,-8.195845322e-05,2.014769607e-04,1.313200766e-04,1.620977877e-04,2.934178644e-04,1.124617610e-04,-3.528001513e-05,7.718174590e-05,1.842429050e-04,-1.349181087e-05,1.707510941e-04,6.335268606e-05,1.450071736e-04,2.083598597e-04,4.140381566e-04,-9.264940920e-06,4.047732157e-04,3.735792252e-04,7.037581786e-05,4.439550431e-04,4.762819603e-04,2.628709721e-05,5.025690575e-04,6.246270456e-04,-7.889552483e-05,5.457315208e-04,6.824544352e-04,-1.010854673e-04,5.813689679e-04,3.249618269e-04,4.056266261e-05,3.655244895e-04
-4,7.722456057e-04,-1.621349415e-04,6.101106642e-04,6.183308802e-04,6.523633801e-05,6.835672182e-04,3.934228675e-04,1.907913483e-05,4.125020023e-04,4.588258589e-04,7.979240169e-05,5.386182606e-04,2.433656870e-04,2.029798431e-04,4.463455302e-04,5.443389258e-04,1.424711268e-04,6.868100526e-04,7.257669476e-04,-6.341208342e-05,6.623548642e-04,6.511290955e-04,-3.255566876e-06,6.478735286e-04,3.444873259e-04,1.608217313e-04,5.053090572e-04,5.543576105e-04,8.423777470e-05,6.385953852e-04,2.054913423e-04,1.434197201e-04,3.489110624e-04,6.156333417e-04,-1.612822912e-04,4.543510505e-04,5.641283293e-04,-1.206138962e-04,4.435144331e-04,5.553015150e-04,-1.297299903e-04,4.255715247e-04,3.556595851e-04,-1.617540958e-05,3.394841755e-04,2.941677620e-04,3.143794285e-05,3.256057048e-04,5.688066830e-04,-4.850298157e-05,5.203037014e-04,4.499901965e-04,5.678256145e-05,5.067727579e-04,2.944529640e-04,5.668375983e-05,3.511367238e-04,3.039136340e-04,9.779434377e-06,3.136930684e-04,5.137401080e-04,-4.525660440e-05,4.684835036e-04,6.807405729e-04,3.493424846e-05,7.156748213e-04,1.856331198e-04,1.000334936e-04,2.856666134e-04,6.432445562e-04,1.679718057e-04,8.112163619e-04,2.590164848e-04,-6.925854039e-05,1.897579444e-04,2.708708041e-04,-8.055229043e-05,1.903185137e-04,1.306837781e-04,1.591191483e-04,2.898029264e-04,1.091785259e-04,-3.069681725e-05,7.848170869e-05,2.059197705e-04,-2.023465675e-05,1.856851137e-04,8.737742118e-05,1.333614687e-04,2.207388899e-04,4.141864386e-04,5.707341254e-07,4.147571728e-04,3.829701880e-04,6.937683628e-05,4.523470243e-04,4.972908631e-04,2.876049968e-05,5.260513628e-04,6.245878259e-04,-7.217328802e-05,5.524145379e-04,6.876481946e-04,-9.076922138e-05,5.968789732e-04,3.294344350e-04,4.617068423e-05,3.756051192e-04
-3.9,7.503492898e-04,-1.908251820e-04,5.595241079e-04,6.039219722e-04,4.445158771e-05,6.483735599e-04,3.718431517e-04,9.286067650e-07,3.727717585e-04,4.299451610e-04,7.029656509e-05,5.002417261e-04,2.058239086e-04,1.871651189e-04,3.929890275e-04,5.379908130e-04,1.256670509e-04,6.636578639e-04,6.963264673e-04,-7.260390671e-05,6.237225605e-04,6.551828913e-04,1.438587246e-06,6.566214786e-04,2.857486714e-04,1.543692527e-04,4.401179241e-04,5.295701296e-04,7.208277375e-05,6.016529034e-04,1.517827164e-04,1.306490355e-04,2.824317519e-04,6.081389551e-04,-1.621691669e-04,4.459697882e-04,5.583496106e-04,-1.196139335e-04,4.387356771e-04,5.376656354e-04,-1.302575541e-04,4.074080814e-04,3.545091357e-04,-1.389427324e-05,3.406148625e-04,3.143688056e-04,2.992538786e-05,3.442941935e-04,5.990710575e-04,-5.443443931e-05,5.446366182e-04,4.597226112e-04,5.359335976e-05,5.133159710e-04,3.173347603e-04,4.612225817e-05,3.634570185e-04,2.966382258e-04,7.370248109e-06,3.040084739e-04,4.622541164e-04,-5.469976758e-05,4.075543488e-04,6.601652921e-04,2.115537328e-05,6.813206654e-04,1.352378624e-04,9.512254303e-05,2.303604055e-04,6.048937413e-04,1.657573388e-04,7.706510802e-04,2.389364204e-04,-6.527938860e-05,1.736570318e-04,2.564240596e-04,-7.921756667e-05,1.772064929e-04,1.283096498e-04,1.545523392e-04,2.828619890e-04,1.053049000e-04,-2.711947438e-05,7.818542560e-05,2.250732169e-04,-2.671707946e-05,1.983561374e-04,1.095915436e-04,1.205013689e-04,2.300929125e-04,4.112327056e-04,1.018920959e-05,4.214219152e-04,3.888847548e-04,6.806155475e-05,4.569463095e-04,5.139557221e-04,3.187043485e-05,5.458261570e-04,6.211273481e-04,-6.520139783e-05,5.559259502e-04,6.885675332e-04,-8.011629740e-05,6.084512358e-04,3.327862965e-04,5.078263421e-05,3.835689307e-04
-3.8,7.261259731e-04,-2.196436953e-04,5.064822777e-04,5.880877514e-04,2.260673372e-05,6.106944852e-04,3.499917169e-04,-1.778979153e-05,3.322019254e-04,4.005359976e-04,6.039774175e-05,4.609337393e-04,1.681981689e-04,1.704878414e-04,3.386860103e-04,5.294369802e-04,1.095816665e-04,6.390186467e-04,6.640232076e-04,-8.141677072e-05,5.826064369e-04,6.573362711e-04,5.405780419e-06,6.627420515e-04,2.279716011e-04,1.471092894e-04,3.750808906e-04,5.027645977e-04,5.925609114e-05,5.620206889e-04,9.866482131e-05,1.170855393e-04,2.157503606e-04,5.973531778e-04,-1.625999964e-04,4.347531814e-04,5.484975183e-04,-1.180002883e-04,4.304972301e-04,5.170163143e-04,-1.305937267e-04,3.864225876e-04,3.509404352e-04,-1.189282588e-05,3.390476094e-04,3.327555743e-04,2.812063467e-05,3.608762089e-04,6.257725164e-04,-6.003870060e-05,5.657338158e-04,4.664409322e-04,5.017760592e-05,5.166185381e-04,3.382876396e-04,3.528783158e-05,3.735754712e-04,2.878960581e-04,4.894035473e-06,2.927900935e-04,4.089842028e-04,-6.405960193e-05,3.449246009e-04,6.362880545e-04,7.669083948e-06,6.439571384e-04,8.548224836e-05,8.982672066e-05,1.753089690e-04,5.644793029e-04,1.632518335e-04,7.277311364e-04,2.162361758e-04,-6.160368591e-05,1.546324899e-04,2.400372628e-04,-7.797288081e-05,1.620643820e-04,1.242478177e-04,1.482648659e-04,2.725126836e-04,1.007666558e-04,-2.456529087e-05,7.620136489e-05,2.415125001e-04,-3.293369889e-05,2.085788013e-04,1.297959802e-04,1.065205994e-04,2.363165796e-04,4.052155253e-04,1.949421605e-05,4.247097414e-04,3.912702416e-04,6.647596865e-05,4.577462102e-04,5.261956699e-04,3.560316876e-05,5.617988386e-04,6.142026845e-04,-5.795781959e-05,5.562448649e-04,6.851853412e-04,-6.916026155e-05,6.160250797e-04,3.350929955e-04,5.427937703e-05,3.893723725e-04
-3.7,6.997519122e-04,-2.485525736e-04,4.511993386e-04,5.709272312e-04,-2.146936856e-07,5.707125375e-04,3.280148986e-04,-3.702067900e-05,2.909942196e-04,3.708232794e-04,5.015426843e-05,4.209775478e-04,1.306784975e-04,1.530491442e-04,2.837276417e-04,5.187713711e-04,9.421642226e-05,6.129877934e-04,6.290355888e-04,-8.980392954e-05,5.392316593e-04,6.575103758e-04,8.736610454e-06,6.662469863e-04,1.715386270e-04,1.390834481e-04,3.106220752e-04,4.740590282e-04,4.579661893e-05,5.198556471e-04,4.649149526e-05,1.028003027e-04,1.492917979e-04,5.831831839e-04,-1.624732141e-04,4.207099698e-04,5.344691703e-04,-1.156888989e-04,4.187802714e-04,4.933629111e-04,-1.307002978e-04,3.626626133e-04,3.448622525e-04,-1.017110756e-05,3.346911450e-04,3.492528062e-04,2.599480747e-05,3.752476137e-04,6.487494647e-04,-6.523525859e-05,5.835142061e-04,4.701565558e-04,4.652015857e-05,5.166767144e-04,3.571975639e-04,2.419234089e-05,3.813899048e-04,2.777385273e-04,2.387675726e-06,2.801262031e-04,3.543232656e-04,-7.328962579e-05,2.810336398e-04,6.091963963e-04,-5.411619678e-06,6.037847766e-04,3.668986094e-05,8.419514210e-05,1.208850030e-04,5.222196840e-04,1.604940517e-04,6.827137357e-04,1.909149184e-04,-5.818495713e-05,1.327299613e-04,2.216580566e-04,-7.683110329e-05,1.448269533e-04,1.185529590e-04,1.401553221e-04,2.587082811e-04,9.547833062e-05,-2.302997855e-05,7.244835207e-05,2.550742762e-04,-3.888987274e-05,2.161844034e-04,1.478062136e-04,9.151981564e-05,2.393260292e-04,3.961972028e-04,2.838581396e-05,4.245830168e-04,3.901034867e-04,6.465880021e-05,4.547622869e-04,5.339776829e-04,3.993019269e-05,5.739078756e-04,6.037867439e-04,-5.041933433e-05,5.533674096e-04,6.775022733e-04,-5.793920640e-05,6.195630669e-04,3.364119591e-04,5.657218258e-05,3.929841416e-04
-3.6,6.714139372e-04,-2.775144894e-04,3.938994479e-04,5.525325337e-04,-2.391275832e-05,5.286197753e-04,3.060615894e-04,-5.670533742e-05,2.493562520e-04,3.410333941e-04,3.962263769e-05,3.806560318e-04,9.345891972e-05,1.349542698e-04,2.284131895e-04,5.061091815e-04,7.954303168e-05,5.856522132e-04,5.915605863e-04,-9.772389782e-05,4.938366885e-04,6.556173969e-04,1.153098546e-05,6.671483824e-04,1.168252676e-04,1.303388705e-04,2.471641381e-04,4.435839564e-04,3.175051026e-05,4.753344667e-04,-4.384266080e-06,8.786981839e-05,8.348555231e-05,5.655557815e-04,-1.616860672e-04,4.038697142e-04,5.161893127e-04,-1.125987072e-04,4.035906055e-04,4.667371725e-04,-1.305378366e-04,3.361993360e-04,3.361997434e-04,-8.727139559e-06,3.274726039e-04,3.637963640e-04,2.351869431e-05,3.873150583e-04,6.679000342e-04,-6.996352416e-05,5.979365100e-04,4.709088321e-04,4.260172678e-05,5.135105588e-04,3.739671761e-04,1.284680879e-05,3.868139849e-04,2.662283451e-04,-1.165170571e-07,2.661118280e-04,2.986738987e-04,-8.234415852e-05,2.163297402e-04,5.790040303e-04,-1.797745128e-05,5.610265790e-04,-1.082124582e-05,7.828048870e-05,6.745924287e-05,4.783453381e-04,1.575232241e-04,6.358685622e-04,1.629827222e-04,-5.496345454e-05,1.080192676e-04,2.012432107e-04,-7.579933019e-05,1.254438805e-04,1.112797109e-04,1.301595036e-04,2.414392145e-04,8.934521365e-05,-2.248781533e-05,6.685739832e-05,2.656254233e-04,-4.460117358e-05,2.210242497e-04,1.634560597e-04,7.560410267e-05,2.390601624e-04,3.842635664e-04,3.676170121e-05,4.210252676e-04,3.853915175e-04,6.264126161e-05,4.480327791e-04,5.373168783e-04,4.480905012e-05,5.821259284e-04,5.898712393e-04,-4.256216878e-05,5.473090705e-04,6.655479071e-04,-4.649663528e-05,6.190512718e-04,3.367810032e-04,5.760571272e-05,3.943867159e-04
-3.5,6.413088779e-04,-3.064930919e-04,3.348157859e-04,5.329900439e-04,-4.837325297e-05,4.846167910e-04,2.842832431e-04,-7.678240941e-05,2.075008336e-04,3.113931693e-04,2.885665057e-05,3.402498198e-04,5.673747949e-05,1.163114258e-04,1.730489053e-04,4.915858772e-04,6.550569242e-05,5.570915696e-04,5.518131400e-04,-1.051406792e-04,4.466724608e-04,6.515615979e-04,1.389405991e-05,6.654556578e-04,6.419773071e-05,1.209276725e-04,1.851254032e-04,4.114825197e-04,1.717124682e-05,4.286537666e-04,-5.361237970e-05,7.237503065e-05,1.876265094e-05,5.444216813e-04,-1.601381636e-04,3.842835177e-04,4.936121201e-04,-1.086532341e-04,3.849588860e-04,4.371939334e-04,-1.300670513e-04,3.071268821e-04,3.248961606e-04,-7.556930510e-06,3.173392301e-04,3.763336343e-04,2.066369480e-05,3.969973292e-04,6.831842408e-04,-7.418610013e-05,6.089981406e-04,4.687664762e-04,3.839916549e-05,5.071656417e-04,3.885186559e-04,1.261771148e-06,3.897804270e-04,2.534386932e-04,-2.591693270e-06,2.508469999e-04,2.424451536e-04,-9.117886627e-05,1.512662873e-04,5.458549253e-04,-2.992656218e-05,5.159283631e-04,-5.674079539e-05,7.213836885e-05,1.539757346e-05,4.330979137e-04,1.543789197e-04,5.874768334e-04,1.324629221e-04,-5.186884639e-05,8.059407567e-05,1.787605643e-04,-7.487933507e-05,1.038812292e-04,1.024790124e-04,1.182538756e-04,2.207328880e-04,8.226514316e-05,-2.289283780e-05,5.937230536e-05,2.730640783e-04,-5.009219411e-05,2.229718842e-04,1.766000642e-04,5.888074477e-05,2.354808090e-04,3.695219925e-04,4.452001118e-05,4.140420037e-04,3.771706452e-04,6.044744496e-05,4.376180902e-04,5.362751723e-04,5.018457665e-05,5.864597490e-04,5.724683045e-04,-3.436255376e-05,5.381057507e-04,6.493800350e-04,-3.488199840e-05,6.144980366e-04,3.362166792e-04,5.735923797e-05,3.935759172e-04
-3.4,6.096422308e-04,-3.354532429e-04,2.741889879e-04,5.123810449e-04,-7.347047613e-05,4.389105688e-04,2.628330399e-04,-9.718856848e-05,1.656444715e-04,2.821274900e-04,1.790706353e-05,3.000345536e-04,2.071534141e-05,9.723061539e-05,1.179459568e-04,4.753518751e-04,5.202870265e-05,5.273805778e-04,5.100244053e-04,-1.120239316e-04,3.980004736e-04,6.452407998e-04,1.593201826e-05,6.611728180e-04,1.400980417e-05,1.109063995e-04,1.249162037e-04,3.779096356e-04,2.119428883e-06,3.800290644e-04,-1.008489125e-04,5.640035472e-05,-4.444855780e-05,5.197581657e-04,-1.577349519e-04,3.620232138e-04,4.667219090e-04,-1.037824724e-04,3.629394367e-04,4.048101611e-04,-1.292501039e-04,2.755600572e-04,3.109128146e-04,-6.654029293e-06,3.042587853e-04,3.868226775e-04,1.740299542e-05,4.042256729e-04,6.946199843e-04,-7.788930685e-05,6.167306775e-04,4.638270367e-04,3.388601646e-05,4.977130532e-04,4.007957115e-04,-1.055268959e-05,3.902430219e-04,2.394515492e-04,-5.017038607e-06,2.344345106e-04,1.860483820e-04,-9.975121066e-05,8.629717136e-05,5.099254366e-04,-4.116749076e-05,4.687579458e-04,-1.007693255e-04,6.582666220e-05,-3.494266331e-05,3.867285531e-04,1.511010491e-04,5.378296022e-04,9.939201257e-05,-4.882310224e-05,5.056891033e-05,1.541889164e-04,-7.406823677e-05,8.012067966e-05,9.219506743e-05,1.044566367e-04,1.966517042e-04,7.412922891e-05,-2.418035450e-05,4.994887441e-05,2.773189129e-04,-5.539487819e-05,2.219240347e-04,1.871143961e-04,4.145749532e-05,2.285718914e-04,3.520978071e-04,5.156266910e-05,4.036604762e-04,3.655040024e-04,5.809508747e-05,4.235990899e-04,5.309578443e-04,5.599049143e-05,5.869483357e-04,5.516108293e-04,-2.579765200e-05,5.258131773e-04,6.290818609e-04,-2.315050245e-05,6.059313584e-04,3.347117961e-04,5.584652647e-05,3.905583226e-04
