Time,S1D1HbO,S1D1HbR,S1D1HbT,S2D2HbO,S2D2HbR,S2D2HbT,S3D3HbO,S3D3HbR,S3D3HbT,S4D4HbO,S4D4HbR,S4D4HbT,S5D5HbO,S5D5HbR,S5D5HbT,S6D6HbO,S6D6HbR,S6D6HbT,S7D7HbO,S7D7HbR,S7D7HbT,S8D8HbO,S8D8HbR,S8D8HbT,S9D9HbO,S9D9HbR,S9D9HbT,S10D10HbO,S10D10HbR,S10D10HbT,S11D11HbO,S11D11HbR,S11D11HbT,S12D12HbO,S12D12HbR,S12D12HbT,S13D13HbO,S13D13HbR,S13D13HbT,S14D14HbO,S14D14HbR,S14D14HbT,S15D15HbO,S15D15HbR,S15D15HbT,S16D16HbO,S16D16HbR,S16D16HbT,S17D17HbO,S17D17HbR,S17D17HbT,S18D18HbO,S18D18HbR,S18D18HbT,S19D19HbO,S19D19HbR,S19D19HbT,S20D20HbO,S20D20HbR,S20D20HbT,S21D21HbO,S21D21HbR,S21D21HbT,S22D22HbO,S22D22HbR,S22D22HbT,S23D23HbO,S23D23HbR,S23D23HbT,S24D24HbO,S24D24HbR,S24D24HbT,S25D25HbO,S25D25HbR,S25D25HbT,S26D26HbO,S26D26HbR,S26D26HbT,S27D27HbO,S27D27HbR,S27D27HbT,S28D28HbO,S28D28HbR,S28D28HbT,S29D29HbO,S29D29HbR,S29D29HbT,S30D30HbO,S30D30HbR,S30D30HbT,S31D31HbO,S31D31HbR,S31D31HbT,S32D32HbO,S32D32HbR,S32D32HbT,S33D33HbO,S33D33HbR,S33D33HbT,S34D34HbO,S34D34HbR,S34D34HbT,S35D35HbO,S35D35HbR,S35D35HbT,S36D36HbO,S36D36HbR,S36D36HbT,
-10,1.509395221e-03,3.245770896e-04,1.833972311e-03,8.724453854e-04,2.580893017e-04,1.130534687e-03,1.057247273e-03,-2.243224072e-04,8.329248656e-04,-2.875611063e-04,1.555965442e-04,-1.319645620e-04,-1.008348602e-03,6.860517580e-04,-3.222968439e-04,8.591554344e-04,-2.527274967e-04,6.064279377e-04,6.968070612e-04,2.689736982e-04,9.657807594e-04,1.952043579e-03,-2.964601747e-04,1.655583404e-03,-5.894697358e-04,8.105263067e-05,-5.084171051e-04,1.114239368e-03,-3.292928800e-05,1.081310080e-03,2.470421648e-04,4.120277616e-04,6.590699264e-04,2.045139595e-03,-2.361354764e-05,2.021526047e-03,1.231308913e-03,-7.681010464e-04,4.632078664e-04,1.239016928e-03,-5.363173674e-04,7.026995601e-04,9.169275436e-04,-7.770881892e-04,1.398393544e-04,9.537533679e-04,-4.464013457e-04,5.073520222e-04,1.472747316e-03,-7.440453238e-04,7.287019917e-04,1.163173134e-03,-2.990710118e-04,8.641021219e-04,-3.072664984e-04,4.468927722e-05,-2.625772212e-04,1.375856848e-03,-2.155609622e-04,1.160295885e-03,3.184050308e-04,-7.670439185e-05,2.417006390e-04,1.304407449e-03,-1.630991308e-04,1.141308318e-03,1.140670815e-03,1.056829579e-04,1.246353773e-03,2.241153341e-04,-2.825232304e-04,-5.840789630e-05,1.273843058e-03,-4.592865669e-04,8.145564908e-04,7.264667662e-04,-5.970801584e-05,6.667587504e-04,6.585147618e-04,4.018578506e-04,1.060372612e-03,8.169302725e-04,-5.201162325e-05,7.649186492e-04,9.170892124e-04,1.420257291e-04,1.059114941e-03,1.109593973e-03,2.590616992e-04,1.368655673e-03,1.070438536e-03,4.038225702e-04,1.474261106e-03,-9.802137932e-04,6.753513415e-04,-3.048624517e-04,3.952043968e-04,8.841384801e-04,1.279342877e-03,-4.281637229e-04,9.628067736e-04,5.346430507e-04,1.196189857e-03,-1.031273626e-03,1.649162304e-04,6.507196187e-04,1.764348598e-04,8.271544785e-04
-9.9,1.599298758e-03,3.310039076e-04,1.930302666e-03,9.484175150e-04,2.584595439e-04,1.206877059e-03,1.116007521e-03,-2.118081743e-04,9.041993469e-04,-2.114883259e-04,1.535009055e-04,-5.798742049e-05,-9.240943212e-04,6.649515897e-04,-2.591427314e-04,8.923304555e-04,-2.403846665e-04,6.519457891e-04,7.705273433e-04,2.646627457e-04,1.035190089e-03,2.019024988e-03,-2.921410052e-04,1.726883983e-03,-5.416275323e-04,6.955851707e-05,-4.720690152e-04,1.196195983e-03,-4.157634834e-05,1.154619634e-03,2.964281456e-04,4.008018930e-04,6.972300386e-04,2.136433495e-03,-1.372052447e-04,1.999228250e-03,1.241202340e-03,-7.515710161e-04,4.896313243e-04,1.283705363e-03,-5.332494473e-04,7.504559156e-04,9.897939878e-04,-7.502400865e-04,2.395539013e-04,1.004700546e-03,-4.348327662e-04,5.698677802e-04,1.526123717e-03,-7.122744098e-04,8.138493070e-04,1.209282037e-03,-2.952818793e-04,9.140001574e-04,-2.106438174e-04,6.541478415e-05,-1.452290333e-04,1.461803259e-03,-2.001196724e-04,1.261683586e-03,3.864911228e-04,-7.840762429e-05,3.080834985e-04,1.381341092e-03,-1.617386668e-04,1.219602425e-03,1.143823464e-03,1.087810831e-04,1.252604547e-03,2.428390735e-04,-2.805258043e-04,-3.768673081e-05,1.343303274e-03,-4.577984828e-04,8.855047916e-04,7.832023750e-04,-6.365541279e-05,7.195469622e-04,7.278184364e-04,3.943885867e-04,1.122207023e-03,9.418508140e-04,-9.476376059e-05,8.470870534e-04,9.679122868e-04,1.437316342e-04,1.111643921e-03,1.170605067e-03,2.509469369e-04,1.421552004e-03,1.158868976e-03,3.885836787e-04,1.547452655e-03,-6.131630392e-04,5.337336614e-04,-7.942937784e-05,4.837981502e-04,8.369617879e-04,1.320759938e-03,-2.651136484e-04,8.497773646e-04,5.846637162e-04,1.195255691e-03,-9.738609875e-04,2.213947036e-04,7.451784075e-04,2.174314470e-04,9.626098545e-04
-9.8,1.683810857e-03,3.357484557e-04,2.019559312e-03,1.021601717e-03,2.581904505e-04,1.279792167e-03,1.171412762e-03,-1.990402372e-04,9.723725244e-04,-1.368857801e-04,1.505918918e-04,1.370611170e-05,-8.408936685e-04,6.432483811e-04,-1.976452873e-04,9.235973336e-04,-2.270903520e-04,6.965069816e-04,8.401912413e-04,2.597057157e-04,1.099896957e-03,2.082027616e-03,-2.873144398e-04,1.794713176e-03,-4.930666332e-04,5.835148731e-05,-4.347151459e-04,1.275929628e-03,-5.023761550e-05,1.225692013e-03,3.442039345e-04,3.892091205e-04,7.334130550e-04,2.235537689e-03,-2.661447096e-04,1.969392980e-03,1.246692375e-03,-7.324796580e-04,5.142127171e-04,1.324820271e-03,-5.293199780e-04,7.955002934e-04,1.063575827e-03,-7.240008054e-04,3.395750215e-04,1.053901084e-03,-4.231977815e-04,6.307033024e-04,1.575345056e-03,-6.784260470e-04,8.969190092e-04,1.251435242e-03,-2.903343284e-04,9.611009135e-04,-1.168070121e-04,8.532049606e-05,-3.148651603e-05,1.543302244e-03,-1.835107262e-04,1.359791518e-03,4.517795405e-04,-7.951257025e-05,3.722669703e-04,1.454026041e-03,-1.602080635e-04,1.293817978e-03,1.144066597e-03,1.116500910e-04,1.255716688e-03,2.624191079e-04,-2.776689713e-04,-1.524986334e-05,1.412066860e-03,-4.566214027e-04,9.554454578e-04,8.390109199e-04,-6.775270620e-05,7.712582137e-04,7.963141721e-04,3.853116223e-04,1.181625794e-03,1.062774006e-03,-1.364980874e-04,9.262759184e-04,1.016022202e-03,1.457109279e-04,1.161733130e-03,1.228344093e-03,2.426290370e-04,1.470973130e-03,1.245530575e-03,3.724306810e-04,1.617961256e-03,-2.469149846e-04,3.912645568e-04,1.443495722e-04,5.727959195e-04,7.884259174e-04,1.361221837e-03,-1.035088053e-04,7.352225255e-04,6.317137202e-04,1.191376093e-03,-9.142279556e-04,2.771481374e-04,8.389815027e-04,2.549523359e-04,1.093933839e-03
-9.7,1.762588409e-03,3.387847353e-04,2.101373144e-03,1.091680815e-03,2.572604157e-04,1.348941231e-03,1.223265641e-03,-1.860414726e-04,1.037224168e-03,-6.398023734e-05,1.468543165e-04,8.287407916e-05,-7.589458535e-04,6.209755680e-04,-1.379702855e-04,9.528306530e-04,-2.130042663e-04,7.398263867e-04,9.054521626e-04,2.540942075e-04,1.159546370e-03,2.140735438e-03,-2.820599434e-04,1.858675495e-03,-4.438098025e-04,4.746872995e-05,-3.963410725e-04,1.353052988e-03,-5.886262112e-05,1.294190367e-03,3.901462994e-04,3.772601363e-04,7.674064357e-04,2.341821047e-03,-4.093549277e-04,1.932466119e-03,1.248214169e-03,-7.109230234e-04,5.372911455e-04,1.362205293e-03,-5.245312477e-04,8.376740454e-04,1.137930513e-03,-6.984429587e-04,4.394875538e-04,1.101010249e-03,-4.115056957e-04,6.895045535e-04,1.620233913e-03,-6.427362746e-04,9.774976387e-04,1.289402264e-03,-2.843240788e-04,1.005078185e-03,-2.605652059e-05,1.042189328e-04,7.816241218e-05,1.620164179e-03,-1.660545029e-04,1.454109676e-03,5.138812545e-04,-7.997097613e-05,4.339102784e-04,1.521935719e-03,-1.584876830e-04,1.363448037e-03,1.141437056e-03,1.142997567e-04,1.255736813e-03,2.825399321e-04,-2.740132688e-04,8.526663258e-06,1.479735160e-03,-4.557119372e-04,1.024023223e-03,8.936718770e-04,-7.202821835e-05,8.216436586e-04,8.637189284e-04,3.745623084e-04,1.238281237e-03,1.179210132e-03,-1.770062717e-04,1.002203860e-03,1.061122212e-03,1.479063283e-04,1.209028540e-03,1.282355125e-03,2.341321876e-04,1.516487313e-03,1.329870297e-03,3.555491949e-04,1.685419492e-03,1.141493021e-04,2.509352978e-04,3.650845999e-04,6.616505114e-04,7.387016897e-04,1.400352201e-03,5.437645277e-05,6.211813545e-04,6.755578073e-04,1.184621983e-03,-8.527123552e-04,3.319096273e-04,9.310879434e-04,2.887374825e-04,1.219825426e-03
-9.6,1.835317077e-03,3.401009805e-04,2.175418057e-03,1.158344443e-03,2.556507219e-04,1.413995165e-03,1.271376831e-03,-1.728407060e-04,1.098536125e-03,7.016308753e-06,1.422806761e-04,1.492969849e-04,-6.784420251e-04,5.981685285e-04,-8.027349663e-05,9.799141326e-04,-1.983028742e-04,7.816112584e-04,9.659942201e-04,2.478288529e-04,1.213823073e-03,2.194831732e-03,-2.764618539e-04,1.918369878e-03,-3.939002935e-04,3.694207356e-05,-3.569582199e-04,1.427177298e-03,-6.740104235e-05,1.359776255e-03,4.340367732e-04,3.649661726e-04,7.990029458e-04,2.454343907e-03,-5.655520077e-04,1.888791899e-03,1.246230401e-03,-6.869931902e-04,5.592372105e-04,1.395739337e-03,-5.189110427e-04,8.768282942e-04,1.212487340e-03,-6.736329175e-04,5.388544223e-04,1.145664613e-03,-3.997595365e-04,7.459050766e-04,1.660635373e-03,-6.054648433e-04,1.055170529e-03,1.322955341e-03,-2.773473156e-04,1.045608025e-03,6.131430877e-05,1.219348052e-04,1.832491140e-04,1.692230088e-03,-1.480973186e-04,1.544132770e-03,5.724292327e-04,-7.974927182e-05,4.926799609e-04,1.584581145e-03,-1.565659332e-04,1.428015212e-03,1.135973359e-03,1.167349640e-04,1.252708323e-03,3.028836307e-04,-2.696250559e-04,3.325857485e-05,1.545872680e-03,-4.550159385e-04,1.090856742e-03,9.469593954e-04,-7.650788300e-05,8.704515124e-04,9.297231307e-04,3.621121329e-04,1.291835264e-03,1.290686575e-03,-2.160761523e-04,1.074610422e-03,1.102920489e-03,1.502644377e-04,1.253184927e-03,1.332210101e-03,2.254645375e-04,1.557674638e-03,1.411318709e-03,3.381297039e-04,1.749448413e-03,4.656577965e-04,1.156691478e-04,5.813269443e-04,7.497987269e-04,6.879127806e-04,1.437711508e-03,2.062819013e-04,5.095962098e-04,7.158781111e-04,1.175075572e-03,-7.896700230e-04,3.854055494e-04,1.020483820e-03,3.184874859e-04,1.338971306e-03
-9.5,1.901715267e-03,3.397000659e-04,2.241415333e-03,1.221293425e-03,2.533460837e-04,1.474639509e-03,1.315566072e-03,-1.594726376e-04,1.156093434e-03,7.590787344e-05,1.368721453e-04,2.127800187e-04,-5.995643111e-04,5.748641930e-04,-2.470011809e-05,1.004738814e-03,-1.831719722e-04,8.215668415e-04,1.021535663e-03,2.409191454e-04,1.262454808e-03,2.244003313e-03,-2.706076004e-04,1.973395712e-03,-3.434025158e-04,2.679742334e-05,-3.166050925e-04,1.497915696e-03,-7.580343704e-05,1.422112259e-03,4.756634991e-04,3.523388477e-04,8.280023468e-04,2.571887063e-03,-7.332573648e-04,1.838629699e-03,1.241224701e-03,-6.607908502e-04,5.804338511e-04,1.425332368e-03,-5.125103127e-04,9.128220556e-04,1.286856172e-03,-6.496412223e-04,6.372149499e-04,1.187488114e-03,-3.879583147e-04,7.995297997e-04,1.696424173e-03,-5.668912886e-04,1.129532885e-03,1.351873638e-03,-2.694985370e-04,1.082375101e-03,1.450208200e-04,1.383096919e-04,2.833305119e-04,1.759362141e-03,-1.299968652e-04,1.629365275e-03,6.270819484e-04,-7.882790575e-05,5.482540426e-04,1.641517539e-03,-1.544369917e-04,1.487080548e-03,1.127715311e-03,1.189555663e-04,1.246670877e-03,3.231354636e-04,-2.645748453e-04,5.856061829e-05,1.610014122e-03,-4.544709227e-04,1.155543199e-03,9.986441094e-04,-8.121457001e-05,9.174295393e-04,9.939885794e-04,3.479743416e-04,1.341962921e-03,1.396744196e-03,-2.534908381e-04,1.143253358e-03,1.141134816e-03,1.527336742e-04,1.293868490e-03,1.377508452e-03,2.166220535e-04,1.594130505e-03,1.489303791e-03,3.203596006e-04,1.809663392e-03,8.033492589e-04,-1.174627167e-05,7.916029872e-04,8.366736506e-04,6.361369497e-04,1.472810600e-03,3.500545525e-04,4.022206946e-04,7.522752471e-04,1.162834059e-03,-7.254779350e-04,4.373561242e-04,1.106203260e-03,3.438702221e-04,1.450073482e-03
-9.4,1.961536720e-03,3.375996693e-04,2.299136389e-03,1.280243304e-03,2.503351500e-04,1.530578454e-03,1.355661699e-03,-1.459776977e-04,1.209684001e-03,1.425138956e-04,1.306392739e-04,2.731531695e-04,-5.224866876e-04,5.511007093e-04,2.861402167e-05,1.027199820e-03,-1.677987092e-04,8.594011113e-04,1.071830835e-03,2.333829647e-04,1.305213799e-03,2.287942474e-03,-2.645848406e-04,2.023357633e-03,-2.924030920e-04,1.705458700e-05,-2.753485050e-04,1.564885517e-03,-8.402180493e-05,1.480863713e-03,5.148217118e-04,3.393900972e-04,8.542118090e-04,2.692982976e-03,-9.108065059e-04,1.782176470e-03,1.233690614e-03,-6.324329268e-04,6.012576874e-04,1.450918865e-03,-5.053982020e-04,9.455206634e-04,1.360633614e-03,-6.265530578e-04,7.340805564e-04,1.226098214e-03,-3.761007076e-04,8.499975060e-04,1.727508957e-03,-5.273120104e-04,1.200196947e-03,1.375944655e-03,-2.608674880e-04,1.115077167e-03,2.247899850e-04,1.532029548e-04,3.779929398e-04,1.821432744e-03,-1.121080419e-04,1.709324702e-03,6.775251366e-04,-7.719971859e-05,6.003254180e-04,1.692348661e-03,-1.520992638e-04,1.540249398e-03,1.116703554e-03,1.209565531e-04,1.237660107e-03,3.429877350e-04,-2.589356728e-04,8.405206216e-05,1.671671024e-03,-4.540086675e-04,1.217662357e-03,1.048493596e-03,-8.616734975e-05,9.623262458e-04,1.056148626e-03,3.322050265e-04,1.388353652e-03,1.496930708e-03,-2.890273834e-04,1.207903324e-03,1.175494938e-03,1.552618620e-04,1.330756800e-03,1.417876145e-03,2.075923198e-04,1.625468465e-03,1.563263081e-03,3.024154372e-04,1.865678518e-03,1.123170660e-03,-1.287248069e-04,9.944458533e-04,9.217129691e-04,5.834111292e-04,1.505124098e-03,4.837411589e-04,3.005394030e-04,7.842805618e-04,1.148007641e-03,-6.605349643e-04,4.874726770e-04,1.187342094e-03,3.645355219e-04,1.551877616e-03
-9.3,2.014571574e-03,3.338320335e-04,2.348403608e-03,1.334927032e-03,2.466107966e-04,1.581537829e-03,1.391499679e-03,-1.324018188e-04,1.259097860e-03,2.066676107e-04,1.236022338e-04,3.302698445e-04,-4.473768744e-04,5.269171630e-04,7.954028868e-05,1.047192745e-03,-1.523639713e-04,8.948287734e-04,1.116671011e-03,2.252458468e-04,1.341916858e-03,2.326347169e-03,-2.584779845e-04,2.067869184e-03,-2.410118389e-04,7.727403683e-06,-2.332844352e-04,1.627710100e-03,-9.200999519e-05,1.535700105e-03,5.513135688e-04,3.261321979e-04,8.774457667e-04,2.815949596e-03,-1.096363533e-03,1.719586063e-03,1.224118818e-03,-6.020568619e-04,6.220619557e-04,1.472452424e-03,-4.976563175e-04,9.747961065e-04,1.433405829e-03,-6.044757190e-04,8.289301105e-04,1.261111822e-03,-3.641893124e-04,8.969225094e-04,1.753835029e-03,-4.870397333e-04,1.266795296e-03,1.394964539e-03,-2.515364440e-04,1.143428095e-03,3.003639770e-04,1.664895751e-04,4.668535521e-04,1.878313988e-03,-9.477008094e-05,1.783543907e-03,7.234728608e-04,-7.486814713e-05,6.486047137e-04,1.736730350e-03,-1.495560608e-04,1.587174289e-03,1.102979516e-03,1.227284081e-04,1.225707924e-03,3.621428363e-04,-2.527816644e-04,1.093611719e-04,1.730338476e-03,-4.535578084e-04,1.276780668e-03,1.096271929e-03,-9.138061732e-05,1.004891312e-03,1.115811527e-03,3.149003480e-04,1.430711875e-03,1.590794974e-03,-3.224573907e-04,1.268337583e-03,1.205743073e-03,1.577946876e-04,1.363537760e-03,1.452965784e-03,1.983574837e-04,1.651323267e-03,1.632654372e-03,2.844560042e-04,1.917110377e-03,1.421366996e-03,-2.329433390e-04,1.188423657e-03,1.004363104e-03,5.297405440e-04,1.534103648e-03,6.056671303e-04,2.057119263e-04,8.113790566e-04,1.130714497e-03,-5.952607343e-04,5.354537623e-04,1.263064685e-03,3.801371466e-04,1.643201832e-03
-9.2,2.060646218e-03,3.284432195e-04,2.389089438e-03,1.385097179e-03,2.421701633e-04,1.627267342e-03,1.422923480e-03,-1.187960372e-04,1.304127443e-03,2.682146155e-04,1.157906137e-04,3.840052292e-04,-3.743979322e-04,5.023533550e-04,1.279554228e-04,1.064610675e-03,-1.370355913e-04,9.275750838e-04,1.155884764e-03,2.165400985e-04,1.372424863e-03,2.358920811e-03,-2.523647339e-04,2.106556077e-03,-1.893619857e-04,-1.176075334e-06,-1.905380610e-04,1.686021033e-03,-9.972410596e-05,1.586296927e-03,5.849484384e-04,3.125777973e-04,8.975262357e-04,2.938922713e-03,-1.287939558e-03,1.650983155e-03,1.212988319e-03,-5.698255787e-04,6.431627404e-04,1.489903895e-03,-4.893737627e-04,1.000530133e-03,1.504748229e-03,-5.835401009e-04,9.212081276e-04,1.292151947e-03,-3.522347963e-04,9.399171511e-04,1.775385424e-03,-4.464046435e-04,1.328980781e-03,1.408740477e-03,-2.415799919e-04,1.167160485e-03,3.715038346e-04,1.780568994e-04,5.495607340e-04,1.929869680e-03,-7.829593536e-05,1.851573745e-03,7.646691395e-04,-7.184612180e-05,6.928230177e-04,1.774374433e-03,-1.468186380e-04,1.627555795e-03,1.086586180e-03,1.242575804e-04,1.210843761e-03,3.803163746e-04,-2.461868733e-04,1.341295013e-04,1.785502496e-03,-4.530460329e-04,1.332456463e-03,1.141739289e-03,-9.686308326e-05,1.044876206e-03,1.172567669e-03,2.961902390e-04,1.468757908e-03,1.677884253e-03,-3.535496211e-04,1.324334632e-03,1.231634051e-03,1.602752460e-04,1.391909297e-03,1.482458601e-03,1.888962042e-04,1.671354805e-03,1.696964894e-03,2.666178287e-04,1.963582723e-03,1.694559091e-03,-3.223969389e-04,1.372162152e-03,1.084078985e-03,4.751124884e-04,1.559191473e-03,7.144899796e-04,1.185474658e-04,8.330374454e-04,1.111077276e-03,-5.300946659e-04,5.809826103e-04,1.332607533e-03,3.903572496e-04,1.722964782e-03
-9.1,2.099622416e-03,3.214918788e-04,2.421114295e-03,1.430527952e-03,2.370145473e-04,1.667542499e-03,1.449785773e-03,-1.052158788e-04,1.344569894e-03,3.270126055e-04,1.072427948e-04,4.342554003e-04,-3.037084713e-04,4.774496185e-04,1.737411472e-04,1.079343648e-03,-1.219637088e-04,9.573799396e-04,1.189338492e-03,2.073038043e-04,1.396642296e-03,2.385373541e-03,-2.463134444e-04,2.139060097e-03,-1.376091024e-04,-9.653562316e-06,-1.472626647e-04,1.739461591e-03,-1.071230223e-04,1.632338569e-03,6.155444750e-04,2.987398643e-04,9.142843393e-04,3.059884086e-03,-1.483408453e-03,1.576475634e-03,1.200763670e-03,-5.359340173e-04,6.648296529e-04,1.503262196e-03,-4.806427593e-04,1.022619437e-03,1.574224014e-03,-5.638955224e-04,1.010328491e-03,1.318856381e-03,-3.402592951e-04,9.785970863e-04,1.792180105e-03,-4.057558358e-04,1.386424269e-03,1.417097027e-03,-2.310685076e-04,1.186028520e-03,4.379929767e-04,1.878020577e-04,6.257950344e-04,1.975952035e-03,-6.296466805e-05,1.912987367e-03,8.008906022e-04,-6.815575203e-05,7.327348502e-04,1.805052858e-03,-1.439101721e-04,1.661142686e-03,1.067569619e-03,1.255270551e-04,1.193096674e-03,3.972407591e-04,-2.392242578e-04,1.580165013e-04,1.836647989e-03,-4.524011056e-04,1.384246883e-03,1.184652423e-03,-1.026165601e-04,1.082035863e-03,1.225999457e-03,2.762300671e-04,1.502229524e-03,1.757745085e-03,-3.820734223e-04,1.375671663e-03,1.252936555e-03,1.626440807e-04,1.415580636e-03,1.506067923e-03,1.791849773e-04,1.685252900e-03,1.755718339e-03,2.490147921e-04,2.004733131e-03,1.939808582e-03,-3.954492608e-04,1.544359322e-03,1.160322161e-03,4.195125300e-04,1.579834691e-03,8.092235539e-04,3.950785607e-05,8.487314100e-04,1.089223109e-03,-4.654957018e-04,6.237274070e-04,1.395283915e-03,3.949272829e-04,1.790211198e-03
-9,2.131395989e-03,3.130476434e-04,2.444443633e-03,1.471016974e-03,2.311493370e-04,1.702166311e-03,1.471951798e-03,-9.172057397e-05,1.380231224e-03,3.829323550e-04,9.800492552e-05,4.809372806e-04,-2.354614157e-04,4.522466657e-04,2.167852501e-04,1.091281981e-03,-1.072797919e-04,9.840021889e-04,1.216937201e-03,1.975797309e-04,1.414516932e-03,2.405426149e-03,-2.403817257e-04,2.165044423e-03,-8.592879301e-05,-1.770859528e-05,-1.036373883e-04,1.787691279e-03,-1.141691118e-04,1.673522167e-03,6.429313514e-04,2.846316090e-04,9.275629604e-04,3.176688142e-03,-1.680518742e-03,1.496169399e-03,1.187893637e-03,-5.006123780e-04,6.872812590e-04,1.512534656e-03,-4.715537586e-04,1.040980898e-03,1.641383814e-03,-5.457003622e-04,1.095683452e-03,1.340888593e-03,-3.282984957e-04,1.012590098e-03,1.804275427e-03,-3.654628242e-04,1.438812602e-03,1.419884649e-03,-2.200737221e-04,1.199810927e-03,4.996400520e-04,1.956307936e-04,6.952708455e-04,2.016403571e-03,-4.901716453e-05,1.967386406e-03,8.319494510e-04,-6.382804875e-05,7.681214023e-04,1.828600664e-03,-1.408687237e-04,1.687731940e-03,1.045980659e-03,1.265170023e-04,1.172497661e-03,4.126688843e-04,-2.319646411e-04,1.807042431e-04,1.883266281e-03,-4.515501685e-04,1.431716113e-03,1.224766036e-03,-1.086345412e-04,1.116131495e-03,1.275691409e-03,2.551922792e-04,1.530883688e-03,1.829928000e-03,-4.078022156e-04,1.422125784e-03,1.269435679e-03,1.648395013e-04,1.434275180e-03,1.523542282e-03,1.691998377e-04,1.692742119e-03,1.808478818e-03,2.317420553e-04,2.040220873e-03,2.154673262e-03,-4.508785921e-04,1.703794670e-03,1.232562881e-03,3.629373232e-04,1.595500204e-03,8.892398288e-04,-3.126971396e-05,8.579701149e-04,1.065284687e-03,-4.019401767e-04,6.633445103e-04,1.450491539e-03,3.936420134e-04,1.844133553e-03
-8.9,2.155895032e-03,3.031891948e-04,2.459084226e-03,1.506386502e-03,2.245840167e-04,1.730970519e-03,1.489303220e-03,-7.837216657e-05,1.410931054e-03,4.358590411e-04,8.812958560e-05,5.239886267e-04,-1.698023434e-04,4.267854792e-04,2.569831358e-04,1.100322814e-03,-9.309927484e-05,1.007223540e-03,1.238624901e-03,1.874141730e-04,1.426039074e-03,2.418816120e-03,-2.346159792e-04,2.184200141e-03,-3.451378801e-05,-2.535039038e-05,-5.986417840e-05,1.830390554e-03,-1.208289490e-04,1.709561605e-03,6.669531245e-04,2.702665114e-04,9.372196359e-04,3.287093355e-03,-1.876907814e-03,1.410185540e-03,1.174803216e-03,-4.641191175e-04,7.106840985e-04,1.517744731e-03,-4.621899744e-04,1.055554757e-03,1.705767361e-03,-5.291120526e-04,1.176655308e-03,1.357949308e-03,-3.164021475e-04,1.041547160e-03,1.811767182e-03,-3.259180171e-04,1.485849165e-03,1.416986889e-03,-2.086732642e-04,1.208313624e-03,5.562804249e-04,2.014573238e-04,7.577377487e-04,2.051062642e-03,-3.665513022e-05,2.014407512e-03,8.576954632e-04,-5.890196548e-05,7.987934977e-04,1.844916107e-03,-1.377478739e-04,1.707168233e-03,1.021875969e-03,1.272054474e-04,1.149081417e-03,4.263771637e-04,-2.244756620e-04,2.019015018e-04,1.924861625e-03,-4.504181379e-04,1.474443487e-03,1.261834588e-03,-1.149009270e-04,1.146933661e-03,1.321238574e-03,2.332590421e-04,1.554497616e-03,1.893995530e-03,-4.305171542e-04,1.463478375e-03,1.280935846e-03,1.667985684e-04,1.447734415e-03,1.534666413e-03,1.589194465e-04,1.693585860e-03,1.854851431e-03,2.148823415e-04,2.069733773e-03,2.337253543e-03,-4.879134614e-04,1.849340082e-03,1.300287880e-03,3.054006883e-04,1.605688568e-03,9.542595241e-04,-9.393985573e-05,8.603196684e-04,1.039399299e-03,-3.399155113e-04,6.994837872e-04,1.497722645e-03,3.863662045e-04,1.884088849e-03
-8.8,2.173077498e-03,2.920020812e-04,2.465079580e-03,1.536483823e-03,2.173320868e-04,1.753815910e-03,1.501741140e-03,-6.523453787e-05,1.436506602e-03,4.856927453e-04,7.767434722e-05,5.633670925e-04,-1.068686134e-04,4.011072948e-04,2.942386814e-04,1.106377357e-03,-7.952630948e-05,1.026851048e-03,1.254383829e-03,1.768558245e-04,1.431239654e-03,2.425304226e-03,-2.290516127e-04,2.196252613e-03,1.642884504e-05,-3.259327731e-05,-1.616443227e-05,1.867264627e-03,-1.270738939e-04,1.740190733e-03,6.874701464e-04,2.556585453e-04,9.431286917e-04,3.388804557e-03,-2.070126778e-03,1.318677779e-03,1.161874836e-03,-4.267225493e-04,7.351522867e-04,1.518927615e-03,-4.526226835e-04,1.066304931e-03,1.766907324e-03,-5.142783011e-04,1.252629023e-03,1.369786544e-03,-3.046331369e-04,1.065153408e-03,1.814797181e-03,-2.875393051e-04,1.527257876e-03,1.408324508e-03,-1.969525353e-04,1.211371973e-03,6.077756232e-04,2.052046071e-04,8.129802303e-04,2.079769781e-03,-2.604261241e-05,2.053727168e-03,8.780162612e-04,-5.342276081e-05,8.245935004e-04,1.853956945e-03,-1.346146567e-04,1.719342289e-03,9.953182276e-04,1.275689283e-04,1.122887156e-03,4.381673439e-04,-2.168208262e-04,2.213465176e-04,1.960957202e-03,-4.489271997e-04,1.512030002e-03,1.295613962e-03,-1.213894506e-04,1.174224512e-03,1.362252225e-03,2.106166986e-04,1.572868924e-03,1.949532352e-03,-4.500116922e-04,1.499520659e-03,1.287263064e-03,1.684587620e-04,1.455721826e-03,1.539260044e-03,1.483294744e-04,1.687589519e-03,1.894480338e-03,1.985118910e-04,2.092992229e-03,2.486225309e-03,-5.062500331e-04,1.979975276e-03,1.363008786e-03,2.469358281e-04,1.609944614e-03,1.004336272e-03,-1.489084317e-04,8.554278405e-04,1.011704276e-03,-2.799093575e-04,7.317949182e-04,1.536574644e-03,3.730352302e-04,1.909609874e-03
-8.7,2.182928134e-03,2.795764579e-04,2.462504592e-03,1.561180597e-03,2.094108378e-04,1.770591435e-03,1.509187615e-03,-5.237234881e-05,1.456815266e-03,5.323475026e-04,6.670044323e-05,5.990479459e-04,-4.678982580e-05,3.752537127e-04,3.284638869e-04,1.109376187e-03,-6.665880748e-05,1.042717379e-03,1.264232305e-03,1.659547224e-04,1.430187027e-03,2.424680403e-03,-2.237140815e-04,2.200966322e-03,6.668005450e-05,-3.945578580e-05,2.722426870e-05,1.898045802e-03,-1.328804310e-04,1.765165371e-03,7.043596048e-04,2.408225418e-04,9.451821466e-04,3.479528499e-03,-2.257680164e-03,1.221848335e-03,1.149423460e-03,-3.886787221e-04,7.607447377e-04,1.516125416e-03,-4.429083341e-04,1.073217082e-03,1.824335124e-03,-5.013297332e-04,1.323005391e-03,1.376202573e-03,-2.930653386e-04,1.083137235e-03,1.813558764e-03,-2.507690485e-04,1.562789716e-03,1.393857369e-03,-1.850045029e-04,1.208852866e-03,6.540105033e-04,2.068049680e-04,8.608154713e-04,2.102372287e-03,-1.730840456e-05,2.085063883e-03,8.928359926e-04,-4.744034268e-05,8.453956500e-04,1.855733383e-03,-1.315452566e-04,1.724188127e-03,9.663754566e-04,1.275831695e-04,1.093958626e-03,4.478670495e-04,-2.090587383e-04,2.388083112e-04,1.991101312e-03,-4.469985224e-04,1.544102789e-03,1.325862732e-03,-1.280639786e-04,1.197798754e-03,1.398361974e-03,1.874534127e-04,1.585815386e-03,1.996156198e-03,-4.660974461e-04,1.530058752e-03,1.288266245e-03,1.697596623e-04,1.458025908e-03,1.537175867e-03,1.374270789e-04,1.674602946e-03,1.927045791e-03,1.827046214e-04,2.109750412e-03,2.600854574e-03,-5.060482965e-04,2.094806277e-03,1.420266337e-03,1.875976529e-04,1.607863990e-03,1.039828712e-03,-1.967785798e-04,8.430501319e-04,9.823279299e-04,-2.223942285e-04,7.599337013e-04,1.566758553e-03,3.536525552e-04,1.920411108e-03
-8.6,2.185454947e-03,2.660049729e-04,2.451459920e-03,1.580371134e-03,2.008410366e-04,1.781212170e-03,1.511585774e-03,-3.984993637e-05,1.471735838e-03,5.757491037e-04,5.527163155e-05,6.310207352e-04,1.031069455e-05,3.492669241e-04,3.595776187e-04,1.109271205e-03,-5.459216704e-05,1.054679038e-03,1.268221673e-03,1.547612800e-04,1.422982953e-03,2.416768418e-03,-2.186206409e-04,2.198147777e-03,1.160108888e-04,-4.595959890e-05,7.005128992e-05,1.922494599e-03,-1.382302612e-04,1.784264338e-03,7.175150618e-04,2.257745811e-04,9.432896429e-04,3.557037403e-03,-2.437076016e-03,1.119961387e-03,1.137674323e-03,-3.502151716e-04,7.874591511e-04,1.509382746e-03,-4.330870605e-04,1.076295685e-03,1.877587807e-03,-4.903737212e-04,1.387214085e-03,1.377057264e-03,-2.817802350e-04,1.095277029e-03,1.808296613e-03,-2.160666766e-04,1.592229937e-03,1.373585292e-03,-1.729285570e-04,1.200656735e-03,6.948891262e-04,2.062014471e-04,9.010905733e-04,2.118726257e-03,-1.054764156e-05,2.108178616e-03,9.021131114e-04,-4.100817607e-05,8.611049353e-04,1.850299307e-03,-1.286192914e-04,1.721680016e-03,9.351200091e-04,1.272238063e-04,1.062343815e-03,4.553295422e-04,-2.012425424e-04,2.540869998e-04,2.014873820e-03,-4.445555482e-04,1.570318272e-03,1.352343068e-03,-1.348793502e-04,1.217463718e-03,1.429214524e-03,1.639602896e-04,1.593174814e-03,2.033528631e-03,-4.786106256e-04,1.554918006e-03,1.283818145e-03,1.706441158e-04,1.454462261e-03,1.528298204e-03,1.262243541e-04,1.654522559e-03,1.952261707e-03,1.675344169e-04,2.119796124e-03,2.680994823e-03,-4.879093575e-04,2.193085465e-03,1.471632198e-03,1.274648848e-04,1.599097083e-03,1.061353983e-03,-2.382800574e-04,8.230739254e-04,9.513760885e-04,-1.678076390e-04,7.835684495e-04,1.588102548e-03,3.282877302e-04,1.916390278e-03
-8.5,2.180685726e-03,2.513809365e-04,2.432066662e-03,1.593970027e-03,1.916464630e-04,1.785616490e-03,1.508899329e-03,-2.773024587e-05,1.481169083e-03,6.158324981e-04,4.345329781e-05,6.592857960e-04,6.431433450e-05,3.231899934e-04,3.875043279e-04,1.106034572e-03,-4.342076572e-05,1.062613806e-03,1.266433074e-03,1.433254765e-04,1.409758551e-03,2.401429481e-03,-2.137821755e-04,2.187647306e-03,1.641847483e-04,-5.212854268e-05,1.120562056e-04,1.940400515e-03,-1.431101648e-04,1.797290351e-03,7.268458644e-04,2.105323741e-04,9.373782385e-04,3.619231819e-03,-2.605876615e-03,1.013355203e-03,1.126748270e-03,-3.115239056e-04,8.152243639e-04,1.498743261e-03,-4.231817484e-04,1.075561513e-03,1.926215092e-03,-4.814892364e-04,1.444725855e-03,1.372268290e-03,-2.708624762e-04,1.101405814e-03,1.799300394e-03,-1.838964278e-04,1.615403967e-03,1.347548273e-03,-1.608287429e-04,1.186719530e-03,7.303314553e-04,2.033501913e-04,9.336816465e-04,2.128696900e-03,-5.821825065e-06,2.122875075e-03,9.058379399e-04,-3.418249927e-05,8.716554407e-04,1.837743087e-03,-1.259130448e-04,1.711830042e-03,9.016278411e-04,1.264671129e-04,1.028094954e-03,4.604334524e-04,-1.934196267e-04,2.670138257e-04,2.031893158e-03,-4.415280660e-04,1.590365092e-03,1.374821784e-03,-1.417822993e-04,1.233039484e-03,1.454471440e-03,1.403339301e-04,1.594805371e-03,2.061365216e-03,-4.874178245e-04,1.573947392e-03,1.273816789e-03,1.710588694e-04,1.444875659e-03,1.512543371e-03,1.147505023e-04,1.627293873e-03,1.969875112e-03,1.530758840e-04,2.122950996e-03,2.727070156e-03,-4.528393287e-04,2.274230827e-03,1.516713355e-03,6.663902952e-05,1.583352384e-03,1.069726436e-03,-2.741906739e-04,7.955357619e-04,9.189169750e-04,-1.165295113e-04,8.023874637e-04,1.600549479e-03,2.970776293e-04,1.897627108e-03
-8.4,2.168665200e-03,2.357968238e-04,2.404462023e-03,1.601910014e-03,1.818531257e-04,1.783763140e-03,1.501112588e-03,-1.607387930e-05,1.485038708e-03,6.525398970e-04,3.131184887e-05,6.838517458e-04,1.151066993e-04,2.970671344e-04,4.121738337e-04,1.099656271e-03,-3.323735197e-05,1.066418919e-03,1.258974684e-03,1.316963415e-04,1.390671026e-03,2.378565525e-03,-2.092044798e-04,2.169361046e-03,2.109602207e-04,-5.798771092e-05,1.529725097e-04,1.951583396e-03,-1.475116697e-04,1.804071726e-03,7.322773535e-04,1.951156568e-04,9.273930103e-04,3.664197381e-03,-2.761742986e-03,9.024543954e-04,1.116655312e-03,-2.727609907e-04,8.438943211e-04,1.484248129e-03,-4.131976415e-04,1.071050488e-03,1.969786974e-03,-4.747233182e-04,1.495063656e-03,1.361809684e-03,-2.603951633e-04,1.101414520e-03,1.786894774e-03,-1.547140825e-04,1.632180692e-03,1.315826046e-03,-1.488111106e-04,1.167014935e-03,7.602728326e-04,1.982238669e-04,9.584966995e-04,2.132158525e-03,-3.157690370e-06,2.129000834e-03,9.040307108e-04,-2.702126445e-05,8.770094464e-04,1.818178677e-03,-1.234919109e-04,1.694686766e-03,8.659785952e-04,1.252906337e-04,9.912692289e-04,4.630830423e-04,-1.856316155e-04,2.774514267e-04,2.041824716e-03,-4.378571412e-04,1.603967575e-03,1.393072394e-03,-1.487122111e-04,1.244360183e-03,1.473809245e-03,1.167774245e-04,1.590586670e-03,2.079444987e-03,-4.924205135e-04,1.587024474e-03,1.258188189e-03,1.709546482e-04,1.429142838e-03,1.489862267e-03,1.030525166e-04,1.592914783e-03,1.979668028e-03,1.394039445e-04,2.119071972e-03,2.740046036e-03,-4.022063909e-04,2.337839645e-03,1.555160996e-03,5.238936808e-06,1.560399933e-03,1.065894791e-03,-3.052662263e-04,7.606285645e-04,8.849688516e-04,-6.886056006e-05,8.161082916e-04,1.604149572e-03,2.602317559e-04,1.864381328e-03
-8.3,2.149453313e-03,2.193431698e-04,2.368796483e-03,1.604140785e-03,1.714882111e-04,1.775628996e-03,1.488231613e-03,-4.938302621e-06,1.483293310e-03,6.858202570e-04,1.891437258e-05,7.047346296e-04,1.625788520e-04,2.709439419e-04,4.335227939e-04,1.090141759e-03,-2.413077347e-05,1.066010985e-03,1.245979673e-03,1.199218416e-04,1.365901514e-03,2.348122672e-03,-2.048886934e-04,2.143233978e-03,2.560946258e-04,-6.356279197e-05,1.925318338e-04,1.955895828e-03,-1.514306007e-04,1.804465227e-03,7.337522480e-04,1.795465795e-04,9.132988275e-04,3.690251212e-03,-2.902469209e-03,7.877820029e-04,1.107295919e-03,-2.340493275e-04,8.732465916e-04,1.465936550e-03,-4.031229564e-04,1.062813593e-03,2.007902655e-03,-4.700904672e-04,1.537812188e-03,1.345710467e-03,-2.504556836e-04,1.095254784e-03,1.771427421e-03,-1.289544145e-04,1.642473007e-03,1.278537076e-03,-1.369803723e-04,1.141556704e-03,7.846668500e-04,1.908156771e-04,9.754825272e-04,2.128995451e-03,-2.546206819e-06,2.126449245e-03,8.967408839e-04,-1.958302647e-05,8.771578574e-04,1.791738100e-03,-1.214031114e-04,1.670334988e-03,8.282564929e-04,1.236736741e-04,9.519301670e-04,4.632088867e-04,-1.779145776e-04,2.852943091e-04,2.044390583e-03,-4.335007064e-04,1.610889877e-03,1.406878644e-03,-1.556016828e-04,1.251276961e-03,1.486923747e-03,9.349815473e-05,1.580421901e-03,2.087619614e-03,-4.935585950e-04,1.594061019e-03,1.236890260e-03,1.702856799e-04,1.407175940e-03,1.460245242e-03,9.119345622e-05,1.551438698e-03,1.981461365e-03,1.265925115e-04,2.108053876e-03,2.721390521e-03,-3.376970129e-04,2.383693508e-03,1.586681216e-03,-5.660719097e-05,1.530074025e-03,1.050889536e-03,-3.321901755e-04,7.186993608e-04,8.494939798e-04,-2.500532822e-05,8.244886516e-04,1.599051661e-03,2.180391502e-04,1.817090811e-03
-8.2,2.123124599e-03,2.021079377e-04,2.325232537e-03,1.600628910e-03,1.605790666e-04,1.761207976e-03,1.470285993e-03,5.622766885e-06,1.475908760e-03,7.156298478e-04,6.328457008e-06,7.219583049e-04,2.066298604e-04,2.448675627e-04,4.514974231e-04,1.077509783e-03,-1.618237903e-05,1.061327404e-03,1.227604557e-03,1.080490975e-04,1.335653654e-03,2.310094640e-03,-2.008310859e-04,2.109263554e-03,2.993479630e-04,-6.887958717e-05,2.304683758e-04,1.953226110e-03,-1.548665772e-04,1.798359533e-03,7.312326908e-04,1.638500163e-04,8.950827071e-04,3.695972168e-03,-3.026002417e-03,6.699697510e-04,1.098469118e-03,-1.954828921e-04,9.029862262e-04,1.443847003e-03,-3.929303547e-04,1.050916649e-03,2.040200411e-03,-4.675753558e-04,1.572625055e-03,1.324053600e-03,-2.411121603e-04,1.082941439e-03,1.753255105e-03,-1.070183763e-04,1.646236728e-03,1.235836832e-03,-1.254366672e-04,1.110400165e-03,8.034903068e-04,1.811433480e-04,9.846336548e-04,2.119104702e-03,-3.943093610e-06,2.115161609e-03,8.840478847e-04,-1.192659734e-05,8.721212874e-04,1.758566353e-03,-1.196699294e-04,1.638896424e-03,7.885514941e-04,1.215977289e-04,9.101492230e-04,4.607682641e-04,-1.702993250e-04,2.904689392e-04,2.039378886e-03,-4.284385037e-04,1.610940382e-03,1.416039007e-03,-1.623769245e-04,1.253662083e-03,1.493538047e-03,7.070283117e-05,1.564240878e-03,2.085822542e-03,-4.908140710e-04,1.595008471e-03,1.209916937e-03,1.690091103e-04,1.378926048e-03,1.423728283e-03,7.924785738e-05,1.502976140e-03,1.975119576e-03,1.147122149e-04,2.089831791e-03,2.673029551e-03,-2.612742970e-04,2.411755254e-03,1.611042575e-03,-1.187679626e-04,1.492274612e-03,1.025784507e-03,-3.555450531e-04,6.702394538e-04,8.124005384e-04,1.493711666e-05,8.273376551e-04,1.585495895e-03,1.708720521e-04,1.756367947e-03
-8.1,2.089768293e-03,1.841763499e-04,2.273944643e-03,1.591358557e-03,1.491524938e-04,1.740511051e-03,1.447330025e-03,1.555977580e-05,1.462889801e-03,7.419328371e-04,-6.377906144e-06,7.355549310e-04,2.471694069e-04,2.188868033e-04,4.660562102e-04,1.061789888e-03,-9.462206445e-06,1.052327682e-03,1.204027410e-03,9.612464203e-05,1.300152052e-03,2.264525253e-03,-1.970228105e-04,2.067502442e-03,3.404866884e-04,-7.396358616e-05,2.665231023e-04,1.943500812e-03,-1.578224802e-04,1.785678332e-03,7.247019244e-04,1.480537608e-04,8.727556852e-04,3.680213529e-03,-3.130449356e-03,5.497641734e-04,1.089886019e-03,-1.571324552e-04,9.327535633e-04,1.418017900e-03,-3.825786416e-04,1.035439258e-03,2.066366922e-03,-4.671375061e-04,1.599229416e-03,1.296973908e-03,-2.324201674e-04,1.064553741e-03,1.732728798e-03,-8.925965459e-05,1.643469144e-03,1.187914586e-03,-1.142729850e-04,1.073641601e-03,8.167474806e-04,1.692526404e-04,9.860001210e-04,2.102400520e-03,-7.271596866e-06,2.095128924e-03,8.660622903e-04,-4.111824848e-06,8.619504655e-04,1.718818761e-03,-1.182879655e-04,1.600530796e-03,7.469600525e-04,1.190469530e-04,8.660070055e-04,4.557445871e-04,-1.628117408e-04,2.929328463e-04,2.026650564e-03,-4.226751742e-04,1.603975390e-03,1.420370883e-03,-1.689580177e-04,1.251412866e-03,1.493412534e-03,4.859062094e-05,1.542003155e-03,2.074077200e-03,-4.842154580e-04,1.589861742e-03,1.177301367e-03,1.670849038e-04,1.344386271e-03,1.380398735e-03,6.729547049e-05,1.447694206e-03,1.960554598e-03,1.038270685e-04,2.064381666e-03,2.597295336e-03,-1.751358286e-04,2.422159507e-03,1.628076111e-03,-1.811084233e-04,1.446967688e-03,9.916727404e-04,-3.758052506e-04,6.158674898e-04,7.735526901e-04,5.097177881e-05,8.245244689e-04,1.563807045e-03,1.191842335e-04,1.682991278e-03
-8,2.049488830e-03,1.656310136e-04,2.215119844e-03,1.576332519e-03,1.372344021e-04,1.713566921e-03,1.419442450e-03,2.482755665e-05,1.444270007e-03,7.647010033e-04,-1.913638172e-05,7.455646216e-04,2.841193885e-04,1.930521726e-04,4.771715610e-04,1.043019353e-03,-4.026546255e-06,1.038992807e-03,1.175445596e-03,8.419442164e-05,1.259640018e-03,2.211509261e-03,-1.934501617e-04,2.018059100e-03,3.792868616e-04,-7.883942003e-05,3.004474416e-04,1.926686218e-03,-1.603038890e-04,1.766382329e-03,7.141648356e-04,1.321886629e-04,8.463534984e-04,3.642103726e-03,-3.214078236e-03,4.280254899e-04,1.081188005e-03,-1.190541397e-04,9.621338648e-04,1.388487763e-03,-3.720145933e-04,1.016473170e-03,2.086144253e-03,-4.687157348e-04,1.617428519e-03,1.264654017e-03,-2.244198116e-04,1.040234206e-03,1.710179416e-03,-7.597176281e-05,1.634207653e-03,1.134988160e-03,-1.035731939e-04,1.031414966e-03,8.244712648e-04,1.552203188e-04,9.796915836e-04,2.078819928e-03,-1.242774134e-05,2.066392187e-03,8.429262639e-04,3.798722886e-06,8.467249868e-04,1.672660076e-03,-1.172235870e-04,1.555436489e-03,7.035851303e-04,1.160086811e-04,8.195938114e-04,4.481457641e-04,-1.554731729e-04,2.926725912e-04,2.006142680e-03,-4.162415626e-04,1.589901118e-03,1.419713617e-03,-1.752592140e-04,1.244454403e-03,1.486355738e-03,2.734432624e-05,1.513700064e-03,2.052502344e-03,-4.738421369e-04,1.578660207e-03,1.139117461e-03,1.644765216e-04,1.303593982e-03,1.330398960e-03,5.541539860e-05,1.385814359e-03,1.937728486e-03,9.398987956e-05,2.031718365e-03,2.496863014e-03,-8.166458632e-05,2.415198427e-03,1.637666669e-03,-2.434811849e-04,1.394185484e-03,9.496556848e-04,-3.933494019e-04,5.563062829e-04,7.327875952e-04,8.319407889e-05,8.159816741e-04,1.534384553e-03,6.350616571e-05,1.597890719e-03
-7.9,2.002406639e-03,1.465520984e-04,2.148958737e-03,1.555573194e-03,1.248497556e-04,1.680422949e-03,1.386724829e-03,3.338540693e-05,1.420110235e-03,7.839125310e-04,-3.187841418e-05,7.520341168e-04,3.174143222e-04,1.674158703e-04,4.848301926e-04,1.021239424e-03,8.299132513e-08,1.021322415e-03,1.142073121e-03,7.230345514e-05,1.214376576e-03,2.151191563e-03,-1.900955614e-04,1.961096002e-03,4.155365904e-04,-8.353012205e-05,3.320064684e-04,1.902788554e-03,-1.623184849e-04,1.740470069e-03,6.996473893e-04,1.162887465e-04,8.159361358e-04,3.581043461e-03,-3.275327223e-03,3.057162385e-04,1.071969354e-03,-8.130132807e-05,9.906680258e-04,1.355296027e-03,-3.611754887e-04,9.941205380e-04,2.099333008e-03,-4.722305911e-04,1.627102417e-03,1.227318549e-03,-2.171336823e-04,1.010184867e-03,1.685904250e-03,-6.737589473e-05,1.618528355e-03,1.077297554e-03,-9.341067720e-05,9.838868767e-04,8.267207919e-04,1.391564411e-04,9.658772331e-04,2.048328492e-03,-1.928762110e-05,2.029040871e-03,8.148128450e-04,1.173760550e-05,8.265504505e-04,1.620264796e-03,-1.164148067e-04,1.503849989e-03,6.585356228e-04,1.124739044e-04,7.710095272e-04,4.380019713e-04,-1.483009538e-04,2.897010175e-04,1.977868287e-03,-4.091946448e-04,1.568673642e-03,1.413930521e-03,-1.811897030e-04,1.232740818e-03,1.472235513e-03,7.119769294e-06,1.479355282e-03,2.021313409e-03,-4.598268317e-04,1.561486578e-03,1.095479475e-03,1.611525647e-04,1.256632039e-03,1.273927347e-03,4.368199041e-05,1.317609338e-03,1.906655516e-03,8.523620960e-05,1.991891725e-03,2.374672388e-03,1.663157001e-05,2.391303958e-03,1.639738389e-03,-3.057105480e-04,1.334027841e-03,9.008411629e-04,-4.084838876e-04,4.923572753e-04,6.899371083e-04,1.117655653e-04,8.017026735e-04,1.497687944e-03,4.438686839e-06,1.502126631e-03
-7.8,1.948659365e-03,1.270174321e-04,2.075676797e-03,1.529123486e-03,1.120227762e-04,1.641146262e-03,1.349299372e-03,4.119709687e-05,1.390496469e-03,7.995506396e-04,-4.453549099e-05,7.550151487e-04,3.470012789e-04,1.420317420e-04,4.890330209e-04,9.964910706e-04,2.840206105e-06,9.993312767e-04,1.104138106e-03,6.049526065e-05,1.164633366e-03,2.083765709e-03,-1.869392436e-04,1.896826466e-03,4.490381125e-04,-8.805633129e-05,3.609817812e-04,1.871853487e-03,-1.638754502e-04,1.707978036e-03,6.811957119e-04,1.003912429e-04,7.815869548e-04,3.496707252e-03,-3.312828390e-03,1.838788623e-04,1.061802668e-03,-4.393754666e-05,1.017865122e-03,1.318485089e-03,-3.499925801e-04,9.684925089e-04,2.105791519e-03,-4.775841045e-04,1.628207414e-03,1.185227498e-03,-2.105658750e-04,9.746616226e-04,1.660153085e-03,-6.360841271e-05,1.596544672e-03,1.015099667e-03,-8.384787351e-05,9.312517935e-04,8.235773785e-04,1.212053471e-04,9.447827255e-04,2.010926026e-03,-2.771516146e-05,1.983210865e-03,7.819244417e-04,1.963070859e-05,8.015551503e-04,1.561818602e-03,-1.157745900e-04,1.446044012e-03,6.119256957e-04,1.084376368e-04,7.203633326e-04,4.253636017e-04,-1.413090122e-04,2.840545895e-04,1.941913079e-03,-4.016157333e-04,1.540297346e-03,1.402910773e-03,-1.866551577e-04,1.216255615e-03,1.450989557e-03,-1.196493746e-05,1.439024620e-03,1.980821108e-03,-4.423552589e-04,1.538465849e-03,1.046539705e-03,1.570894311e-04,1.203629136e-03,1.211237383e-03,3.216229140e-05,1.243399674e-03,1.867404861e-03,7.757757439e-05,1.944982435e-03,2.233837499e-03,1.171899220e-04,2.351027421e-03,1.634238606e-03,-3.675725951e-04,1.266666011e-03,8.463443995e-04,-4.214671237e-04,4.248772757e-04,6.448523581e-04,1.368825250e-04,7.817348832e-04,1.454220721e-03,-5.735519072e-05,1.396865531e-03
-7.7,1.888403759e-03,1.071025575e-04,1.995506317e-03,1.497047945e-03,9.877740000e-05,1.595825345e-03,1.307307246e-03,4.823084216e-05,1.355538089e-03,8.116030328e-04,-5.703946633e-05,7.545635665e-04,3.728404393e-04,1.169551957e-04,4.897956350e-04,9.688118215e-04,4.235185759e-06,9.730470072e-04,1.061881078e-03,4.881116523e-05,1.110692243e-03,2.009472388e-03,-1.839611756e-04,1.825511212e-03,4.796099766e-04,-9.243569836e-05,3.871742782e-04,1.833965646e-03,-1.649849439e-04,1.668980703e-03,6.588758141e-04,8.453644034e-05,7.434122545e-04,3.389054769e-03,-3.325449161e-03,6.360560807e-05,1.050263787e-03,-7.046746344e-06,1.043217041e-03,1.278103342e-03,-3.383950090e-04,9.397083329e-04,2.105432287e-03,-4.846567439e-04,1.620775543e-03,1.138669883e-03,-2.047020152e-04,9.339678682e-04,1.633114382e-03,-6.470815716e-05,1.568406225e-03,9.486660336e-04,-7.493685455e-05,8.737291791e-04,8.151414705e-04,1.015446254e-04,9.166860959e-04,1.966652478e-03,-3.756841954e-05,1.929084058e-03,7.444911083e-04,2.739682062e-05,7.718879289e-04,1.497521261e-03,-1.151963247e-04,1.382324936e-03,5.638745751e-04,1.038991673e-04,6.677737424e-04,4.103000228e-04,-1.345083965e-04,2.757916263e-04,1.898429647e-03,-3.936066016e-04,1.504823045e-03,1.386572000e-03,-1.915599241e-04,1.195012076e-03,1.422633925e-03,-2.983778571e-05,1.392796139e-03,1.931429882e-03,-4.216635896e-04,1.509766292e-03,9.924852798e-04,1.522743966e-04,1.144759676e-03,1.142635880e-03,2.091385518e-05,1.163549735e-03,1.820103877e-03,7.099565196e-05,1.891099529e-03,2.077552586e-03,2.174656876e-04,2.295018274e-03,1.621123611e-03,-4.287749667e-04,1.192348645e-03,7.872907033e-04,-4.325316408e-04,3.547590625e-04,5.974302414e-04,1.587421153e-04,7.561723567e-04,1.404517181e-03,-1.211605729e-04,1.283356608e-03
-7.6,1.821818363e-03,8.688089264e-05,1.908699256e-03,1.459434573e-03,8.513788256e-05,1.544572456e-03,1.260907823e-03,5.445922235e-05,1.315367045e-03,8.200627525e-04,-6.932279638e-05,7.507399561e-04,3.949069255e-04,9.224304070e-05,4.871499662e-04,9.382354215e-04,4.274302197e-06,9.425097237e-04,1.015554532e-03,3.728956709e-05,1.052844099e-03,1.928597587e-03,-1.811423586e-04,1.747455228e-03,5.070894604e-04,-9.668264185e-05,4.104068186e-04,1.789248643e-03,-1.656577082e-04,1.623590935e-03,6.327743867e-04,6.876736080e-05,7.015417475e-04,3.258351464e-03,-3.312343414e-03,-5.399194980e-05,1.036953143e-03,2.926096788e-05,1.066214110e-03,1.234208386e-03,-3.263136993e-04,9.078946872e-04,2.098217069e-03,-4.933017948e-04,1.604915274e-03,1.087958642e-03,-1.995103875e-04,8.884482542e-04,1.604903980e-03,-7.060639429e-05,1.534297586e-03,8.782842391e-04,-6.672081332e-05,8.115634258e-04,8.015320812e-04,8.038220254e-05,8.819142837e-04,1.915594089e-03,-4.870361183e-05,1.866890477e-03,7.027690257e-04,3.494903244e-05,7.377180581e-04,1.427591250e-03,-1.145609458e-04,1.313030304e-03,5.145069168e-04,9.886223597e-05,6.133691528e-04,3.928991992e-04,-1.279075194e-04,2.649916798e-04,1.847631039e-03,-3.852840602e-04,1.462346979e-03,1.364863843e-03,-1.958094609e-04,1.169054382e-03,1.387268650e-03,-4.647731750e-05,1.340791332e-03,1.873637324e-03,-3.980348587e-04,1.475602465e-03,9.335353758e-04,1.467080897e-04,1.080243465e-03,1.068480897e-03,9.982085491e-06,1.078462983e-03,1.764940730e-03,6.543912910e-05,1.830379859e-03,1.909002820e-03,3.150017325e-04,2.224004552e-03,1.600348953e-03,-4.889409036e-04,1.111408049e-03,7.248210008e-04,-4.419075846e-04,2.829134162e-04,5.476395401e-04,1.775122726e-04,7.251518127e-04,1.349135446e-03,-1.862242006e-04,1.162911246e-03
-7.5,1.749106868e-03,6.642406483e-05,1.815530933e-03,1.416397407e-03,7.112940028e-05,1.487526807e-03,1.210278346e-03,5.985901463e-05,1.270137361e-03,8.249302558e-04,-8.131869484e-05,7.436115609e-04,4.131935155e-04,6.795320410e-05,4.811467196e-04,9.047941690e-04,2.978947201e-06,9.077731162e-04,9.654234226e-04,2.596524624e-05,9.913886688e-04,1.841469611e-03,-1.784649043e-04,1.663004707e-03,5.313348303e-04,-1.008083500e-04,4.305264803e-04,1.737865324e-03,-1.659047614e-04,1.571960563e-03,6.030001473e-04,5.312936607e-05,6.561295133e-04,3.105193478e-03,-3.273000757e-03,-1.678072791e-04,1.021511635e-03,6.484822026e-05,1.086359855e-03,1.186869795e-03,-3.136851845e-04,8.731846108e-04,2.084151630e-03,-5.033388462e-04,1.580812783e-03,1.033426768e-03,-1.949441862e-04,8.384825821e-04,1.575558655e-03,-8.112263107e-05,1.494436024e-03,8.042620684e-04,-5.923603537e-05,7.450260330e-04,7.828878660e-04,5.795273138e-05,8.408405974e-04,1.857889236e-03,-6.097740022e-05,1.796911836e-03,6.570390464e-04,4.219763636e-05,6.992366828e-04,1.352271359e-03,-1.137446633e-04,1.238526696e-03,4.639533339e-04,9.333512800e-05,5.572884619e-04,3.732676076e-04,-1.215120900e-04,2.517555176e-04,1.789785137e-03,-3.767740947e-04,1.413011042e-03,1.337771974e-03,-1.993128027e-04,1.138459171e-03,1.345080053e-03,-6.191314676e-05,1.283166906e-03,1.808033255e-03,-3.717951284e-04,1.436238127e-03,8.699394230e-04,1.404057928e-04,1.010345216e-03,9.891790502e-04,-6.024965112e-07,9.885765537e-04,1.702164675e-03,6.082382601e-05,1.762988501e-03,1.731283824e-03,4.074915131e-04,2.138775337e-03,1.571865441e-03,-5.476011450e-04,1.024264296e-03,6.600993902e-04,-4.498502499e-04,2.102491403e-04,4.955417355e-04,1.933116955e-04,6.888534311e-04,1.288657405e-03,-2.517732106e-04,1.036884194e-03
-7.4,1.670501662e-03,4.580237129e-05,1.716304033e-03,1.368079341e-03,5.677863208e-05,1.424857973e-03,1.155612963e-03,6.441096713e-05,1.220023930e-03,8.262158453e-04,-9.296137063e-05,7.332544747e-04,4.277130348e-04,4.414434597e-05,4.718573808e-04,8.685223125e-04,3.838847343e-07,8.689061973e-04,9.117656871e-04,1.486884586e-05,9.266345330e-04,1.748454525e-03,-1.759110900e-04,1.572543435e-03,5.522268781e-04,-1.048207913e-04,4.474060868e-04,1.680017491e-03,-1.657371037e-04,1.514280388e-03,5.696846917e-04,3.766977204e-05,6.073544637e-04,2.930531574e-03,-3.207288597e-03,-2.767570223e-04,1.003629293e-03,9.955327992e-05,1.103182573e-03,1.136171478e-03,-3.004555611e-04,8.357159172e-04,2.063281168e-03,-5.145503360e-04,1.548730832e-03,9.754235849e-04,-1.909441362e-04,7.844794487e-04,1.545033706e-03,-9.596626576e-05,1.449067441e-03,7.269319532e-04,-5.251354177e-05,6.744184114e-04,7.593679740e-04,3.451401658e-05,7.938819906e-04,1.793732512e-03,-7.424823088e-05,1.719484281e-03,6.076046914e-04,4.905386614e-05,6.566585576e-04,1.271833716e-03,-1.126261298e-04,1.159207586e-03,4.123504650e-04,8.733064429e-05,4.996811093e-04,3.515297520e-04,-1.153248716e-04,2.362048803e-04,1.725210070e-03,-3.682066450e-04,1.357003425e-03,1.305321476e-03,-2.019851274e-04,1.103336349e-03,1.296338733e-03,-7.622346420e-05,1.220115268e-03,1.735295916e-03,-3.433098694e-04,1.391986046e-03,8.019759562e-04,1.333975596e-04,9.353735159e-04,9.051814378e-04,-1.082599089e-05,8.943554469e-04,1.632082742e-03,5.703605542e-05,1.689118797e-03,1.547331679e-03,4.928325333e-04,2.040164212e-03,1.535619800e-03,-6.041947706e-04,9.314250298e-04,5.943179486e-04,-4.566670792e-04,1.376508694e-04,4.413017030e-04,2.062027304e-04,6.475044334e-04,1.223692035e-03,-3.170377875e-04,9.066542478e-04
-7.3,1.586266946e-03,2.508529789e-05,1.611352243e-03,1.314654436e-03,4.211442935e-05,1.356768866e-03,1.097120362e-03,6.809959891e-05,1.165219961e-03,8.239414264e-04,-1.041864485e-04,7.197549779e-04,4.384993063e-04,2.087544394e-05,4.593747502e-04,8.294593625e-04,-3.463981994e-06,8.259953806e-04,8.548718691e-04,4.026599524e-06,8.588984687e-04,1.649950454e-03,-1.734622221e-04,1.476488232e-03,5.696694591e-04,-1.087245939e-04,4.609448652e-04,1.615944416e-03,-1.651654558e-04,1.450778961e-03,5.329820891e-04,2.243745939e-05,5.554195485e-04,2.735688482e-03,-3.115485838e-03,-3.797973559e-04,9.830454035e-04,1.331963241e-04,1.116241728e-03,1.082214337e-03,-2.865849600e-04,7.956293771e-04,2.035688106e-03,-5.266854895e-04,1.509002617e-03,9.143099805e-04,-1.874403367e-04,7.268696437e-04,1.513201160e-03,-1.147407941e-04,1.398460366e-03,6.466531833e-04,-4.657976927e-05,6.000734141e-04,7.311517962e-04,1.034272020e-05,7.414945164e-04,1.723375692e-03,-8.837717824e-05,1.634998514e-03,5.547891924e-04,5.543359095e-05,6.102227833e-04,1.186583294e-03,-1.110928224e-04,1.075490472e-03,3.598402240e-04,8.086594030e-05,4.407061643e-04,3.278270006e-04,-1.093454321e-04,2.184815685e-04,1.654269899e-03,-3.597116421e-04,1.294558257e-03,1.267578570e-03,-2.037505061e-04,1.063828064e-03,1.241391625e-03,-8.952963808e-05,1.151861987e-03,1.656183000e-03,-3.129804795e-04,1.343202521e-03,7.299516668e-04,1.257271152e-04,8.556787820e-04,8.169781718e-04,-2.069177120e-05,7.962864006e-04,1.555052493e-03,5.393872525e-05,1.608991218e-03,1.359865059e-03,5.691707556e-04,1.929035815e-03,1.491558686e-03,-6.580791147e-04,8.334795716e-04,5.286921885e-04,-4.627347839e-04,6.595740463e-05,3.851874032e-04,2.161946804e-04,6.013820836e-04,1.154876526e-03,-3.812723583e-04,7.736041678e-04
-7.2,1.496700817e-03,4.342107629e-06,1.501042925e-03,1.256329220e-03,2.716855709e-05,1.283497777e-03,1.035020136e-03,7.091310364e-05,1.105933240e-03,8.181410453e-04,-1.149315440e-04,7.032095013e-04,4.456063628e-04,-1.794607000e-06,4.438117558e-04,7.876530488e-04,-8.506388209e-06,7.791466606e-04,7.950434841e-04,-6.539733045e-06,7.885037510e-04,1.546381625e-03,-1.710981687e-04,1.375283456e-03,5.835891960e-04,-1.125208222e-04,4.710683737e-04,1.545920090e-03,-1.642001035e-04,1.381719987e-03,4.930672070e-04,7.482424244e-06,5.005496312e-04,2.522361194e-03,-2.998301961e-03,-4.759407665e-04,9.595408475e-04,1.655879882e-04,1.125128836e-03,1.025119601e-03,-2.720527409e-04,7.530668600e-04,2.001493774e-03,-5.394727614e-04,1.462021013e-03,8.504527489e-04,-1.843530947e-04,6.660996542e-04,1.479847879e-03,-1.369493373e-04,1.342898542e-03,5.638108335e-04,-4.145638501e-05,5.223544485e-04,6.984377855e-04,-1.427158161e-05,6.841662039e-04,1.647125703e-03,-1.032288555e-04,1.543896847e-03,4.989318285e-04,6.126002294e-05,5.601918515e-04,1.096860016e-03,-1.090471334e-04,9.878128830e-04,3.065682983e-04,7.396230226e-05,3.805306005e-04,3.023159850e-04,-1.035699908e-04,1.987459943e-04,1.577369723e-03,-3.514160805e-04,1.225953642e-03,1.224650208e-03,-2.045444970e-04,1.020105711e-03,1.180647444e-03,-1.019870582e-04,1.078660385e-03,1.571516610e-03,-2.812400348e-04,1.290276575e-03,6.542002655e-04,1.174495753e-04,7.716498408e-04,7.250926659e-04,-3.022110771e-05,6.948715582e-04,1.471472056e-03,5.137907811e-05,1.522851134e-03,1.171343075e-03,6.349383308e-04,1.806281406e-03,1.439636297e-03,-7.085487434e-04,7.310875533e-04,4.644440930e-04,-4.685011246e-04,-4.057031535e-06,3.275612037e-04,2.232519707e-04,5.508131744e-04,1.082872400e-03,-4.437714053e-04,6.391009950e-04
-7.1,1.402135954e-03,-1.635750269e-05,1.385778452e-03,1.193343019e-03,1.197629677e-05,1.205319316e-03,9.695388258e-04,7.284334680e-05,1.042382173e-03,8.088604889e-04,-1.251369586e-04,6.837235303e-04,4.491065734e-04,-2.380741376e-05,4.252991597e-04,7.431620174e-04,-1.467443270e-05,7.284875847e-04,7.325904747e-04,-1.681285982e-05,7.157776149e-04,1.438193014e-03,-1.687980461e-04,1.269394968e-03,5.939348596e-04,-1.162067644e-04,4.777280953e-04,1.470249736e-03,-1.628508699e-04,1.307398866e-03,4.501334514e-04,-7.144745947e-06,4.429887055e-04,2.292600108e-03,-2.856871573e-03,-5.642714649e-04,9.329270164e-04,1.965384984e-04,1.129465515e-03,9.650325233e-04,-2.568626807e-04,7.081698426e-04,1.960863083e-03,-5.526366989e-04,1.408226384e-03,7.842193149e-04,-1.815937038e-04,6.026256110e-04,1.444678175e-03,-1.620048487e-04,1.282673327e-03,4.788122108e-04,-3.715973438e-05,4.416524764e-04,6.614419533e-04,-3.903346554e-05,6.224084877e-04,1.565341233e-03,-1.186730383e-04,1.446668195e-03,4.403843881e-04,6.646500556e-05,5.068493937e-04,1.003039798e-03,-1.064121033e-04,8.966276948e-04,2.526823874e-04,6.664492243e-05,3.193273098e-04,2.751671436e-04,-9.799141059e-05,1.771757330e-04,1.494949827e-03,-3.434410834e-04,1.151508743e-03,1.176681898e-03,-2.043159610e-04,9.723659371e-04,1.114557587e-03,-1.137722770e-04,1.000785310e-03,1.482162859e-03,-2.485468108e-04,1.233616048e-03,5.750806694e-04,1.086285807e-04,6.837092501e-04,6.300762385e-04,-3.945369232e-05,5.906225462e-04,1.381769734e-03,4.919671247e-05,1.430966446e-03,9.839426424e-04,6.888843720e-04,1.672827014e-03,1.379825375e-03,-7.548610989e-04,6.249642759e-04,4.027749324e-04,-4.744717238e-04,-7.169679142e-05,2.688654471e-04,2.273036125e-04,4.961690596e-04,1.008358363e-03,-5.038804349e-04,5.044779278e-04
-7,1.302939101e-03,-3.694280780e-05,1.265996294e-03,1.125967587e-03,-3.423217889e-06,1.122544369e-03,9.009070664e-04,7.388588640e-05,9.747929528e-04,7.961569318e-04,-1.347465084e-04,6.614104235e-04,4.490889312e-04,-4.510558254e-05,4.039833486e-04,6.960587432e-04,-2.188978915e-05,6.741689541e-04,6.678286699e-04,-2.677997281e-05,6.410486970e-04,1.325846399e-03,-1.665420249e-04,1.159304374e-03,6.006770676e-04,-1.197758541e-04,4.809012135e-04,1.389266461e-03,-1.611271814e-04,1.228139280e-03,4.043909730e-04,-2.139342343e-05,3.829975496e-04,2.048763469e-03,-2.692721085e-03,-6.439576160e-04,9.030382275e-04,2.258654375e-04,1.128903665e-03,9.021259809e-04,-2.410469053e-04,6.610790756e-04,1.914008135e-03,-5.659120830e-04,1.348096052e-03,7.159743165e-04,-1.790662177e-04,5.369080988e-04,1.407325599e-03,-1.892479250e-04,1.218077674e-03,3.920825013e-04,-3.370010405e-05,3.583823972e-04,6.203972119e-04,-6.364824643e-05,5.567489654e-04,1.478429386e-03,-1.345868517e-04,1.343842534e-03,3.795088751e-04,7.098901545e-05,4.504978905e-04,9.055346054e-04,-1.031358481e-04,8.023987573e-04,1.983309544e-04,5.894264108e-05,2.572735955e-04,2.465640740e-04,-9.259936729e-05,1.539647067e-04,1.407479161e-03,-3.358979809e-04,1.071581180e-03,1.123854987e-03,-2.030278293e-04,9.208271579e-04,1.043597281e-03,-1.250686481e-04,9.185286325e-04,1.389008480e-03,-2.153744643e-04,1.173634016e-03,4.929743806e-04,9.933376415e-05,5.923081448e-04,5.325019787e-04,-4.844621997e-05,4.840557587e-04,1.286395418e-03,4.723112592e-05,1.333626544e-03,7.995541298e-04,7.300959470e-04,1.529650077e-03,1.312129648e-03,-7.962639568e-04,5.158656907e-04,3.448325891e-04,-4.811841666e-04,-1.363515775e-04,2.096033487e-04,2.282549285e-04,4.378582772e-04,9.320235269e-04,-5.610044256e-04,3.710191013e-04
-6.9,1.199510049e-03,-5.734169142e-05,1.142168358e-03,1.054506322e-03,-1.898677274e-05,1.035519549e-03,8.293590644e-04,7.403999729e-05,9.033990617e-04,7.800997945e-04,-1.437084633e-04,6.363913312e-04,4.456586800e-04,-6.563330046e-05,3.800253795e-04,6.464331403e-04,-3.006654855e-05,6.163665917e-04,6.010781624e-04,-3.643271900e-05,5.646454434e-04,1.209818449e-03,-1.643136854e-04,1.045504763e-03,6.038087075e-04,-1.232178621e-04,4.805908453e-04,1.303328831e-03,-1.590382264e-04,1.144290605e-03,3.560661899e-04,-3.521348671e-05,3.208527032e-04,1.793452688e-03,-2.507712779e-03,-7.142600907e-04,8.697322822e-04,2.533988993e-04,1.123131181e-03,8.366038518e-04,-2.246682234e-04,6.119356284e-04,1.861186871e-03,-5.790500087e-04,1.282136862e-03,6.460788715e-04,-1.766705345e-04,4.694083370e-04,1.367373338e-03,-2.179704844e-04,1.149402854e-03,3.040607773e-04,-3.108050674e-05,2.729802705e-04,5.755550135e-04,-8.782712194e-05,4.877278916e-04,1.386842010e-03,-1.508564278e-04,1.235985582e-03,3.166774397e-04,7.478004322e-05,3.914574829e-04,8.047913975e-04,-9.919369071e-05,7.055977068e-04,1.436630924e-04,5.088756811e-05,1.945506605e-04,2.167040090e-04,-8.738068969e-05,1.293233193e-04,1.315449077e-03,-3.288834554e-04,9.865656212e-04,1.066384917e-03,-2.006571470e-04,8.657277701e-04,9.682517195e-04,-1.360537001e-04,8.321980194e-04,1.292937440e-03,-1.821990952e-04,1.110738345e-03,4.082827638e-04,8.963906331e-05,4.979218271e-04,4.329569378e-04,-5.726757565e-05,3.756893622e-04,1.185814780e-03,4.532879236e-05,1.231143572e-03,6.197902868e-04,7.580056238e-04,1.377795911e-03,1.236596710e-03,-8.320218088e-04,4.045749011e-04,2.916783197e-04,-4.891729042e-04,-1.974945844e-04,1.503160240e-04,2.260038573e-04,3.763198813e-04,8.545635517e-04,-6.146148592e-04,2.399486924e-04
-6.8,1.092280754e-03,-7.748054089e-05,1.014800213e-03,9.792933839e-04,-3.466671523e-05,9.446266687e-04,7.551344528e-04,7.330877483e-05,8.284432276e-04,7.607733614e-04,-1.519764978e-04,6.087968637e-04,4.389385819e-04,-8.533694600e-05,3.536016359e-04,5.943964883e-04,-3.911286118e-05,5.552836271e-04,5.326629311e-04,-4.576699550e-05,4.868959356e-04,1.090600483e-03,-1.621019669e-04,9.284985163e-04,6.033459281e-04,-1.265194326e-04,4.768264955e-04,1.212819535e-03,-1.565932274e-04,1.056226307e-03,3.054026632e-04,-4.855590771e-05,2.568467555e-04,1.529437027e-03,-2.303974635e-03,-7.745376080e-04,8.328974826e-04,2.789841128e-04,1.111881595e-03,7.687039256e-04,-2.078214296e-04,5.608824960e-04,1.802696097e-03,-5.918156457e-04,1.210880451e-03,5.748919139e-04,-1.743062594e-04,4.005856545e-04,1.324378941e-03,-2.474412671e-04,1.076937674e-03,2.151964758e-04,-2.929478475e-05,1.859016911e-04,5.271896846e-04,-1.112915464e-04,4.158981383e-04,1.291070436e-03,-1.673771669e-04,1.123693270e-03,2.522746159e-04,7.779146494e-05,3.300660809e-04,7.012897832e-04,-9.458755206e-05,6.067022312e-04,8.882945748e-05,4.251457292e-05,1.313440304e-04,1.857989754e-04,-8.231980176e-05,1.034791736e-04,1.219368221e-03,-3.224746465e-04,8.968935740e-04,1.004520871e-03,-1.971947972e-04,8.073260733e-04,8.890084571e-04,-1.468901713e-04,7.421182858e-04,1.194809841e-03,-1.494848151e-04,1.045325026e-03,3.214252067e-04,7.962160090e-05,4.010468076e-04,3.320327309e-04,-6.599060632e-05,2.660421246e-04,1.080505769e-03,4.334989633e-05,1.123855665e-03,4.460051825e-04,7.723823818e-04,1.218387564e-03,1.153332377e-03,-8.614419242e-04,2.918904530e-04,2.442554649e-04,-4.989298812e-04,-2.546744163e-04,9.155713662e-05,2.204617175e-04,3.120188541e-04,7.766792424e-04,-6.642551485e-04,1.124240938e-04
-6.7,9.817146778e-04,-9.728429965e-05,8.844303781e-04,9.006928829e-04,-5.041047006e-05,8.502824128e-04,6.784812656e-04,7.169938490e-05,7.501806505e-04,7.382805183e-04,-1.595105312e-04,5.787699871e-04,4.290709443e-04,-1.041656707e-04,3.249052736e-04,5.400845411e-04,-4.893111849e-05,4.911534226e-04,4.629112351e-04,-5.478254730e-05,4.081286878e-04,9.686983972e-04,-1.599019127e-04,8.087964844e-04,5.993290628e-04,-1.296648744e-04,4.696641884e-04,1.118144487e-03,-1.538017739e-04,9.643427134e-04,2.526624283e-04,-6.137343807e-05,1.912889902e-04,1.259575811e-03,-2.083824628e-03,-8.242488174e-04,7.924597693e-04,3.024829030e-04,1.094942672e-03,6.986993064e-04,-1.906334840e-04,5.080658224e-04,1.738860671e-03,-6.039813023e-04,1.134879369e-03,5.027712195e-04,-1.718761213e-04,3.308950982e-04,1.277899161e-03,-2.769304867e-04,1.000968674e-03,1.259457696e-04,-2.832526601e-05,9.762050357e-05,4.756040321e-04,-1.337782350e-04,3.418257971e-04,1.191638193e-03,-1.840527332e-04,1.007585459e-03,1.867004149e-04,7.997945768e-05,2.666798726e-04,5.955379695e-04,-8.934274459e-05,5.061952249e-04,3.398358451e-05,3.386074562e-05,6.784433013e-05,1.540766013e-04,-7.739916147e-05,7.667743986e-05,1.119758599e-03,-3.167250971e-04,8.030335024e-04,9.385456844e-04,-1.926449984e-04,7.459006861e-04,8.063536366e-04,-1.577202438e-04,6.486333928e-04,1.095443867e-03,-1.176698552e-04,9.777740122e-04,2.328384431e-04,6.936029394e-05,3.021987371e-04,2.303151507e-04,-7.468147171e-05,1.556336790e-04,9.709562480e-04,4.117443684e-05,1.012130685e-03,2.793193308e-04,7.733067822e-04,1.052626113e-03,1.062515893e-03,-8.839002254e-04,1.786156678e-04,2.033596713e-04,-5.108658653e-04,-3.075061939e-04,3.386790177e-05,2.115754265e-04,2.454433282e-04,6.990746169e-04,-7.095442483e-04,-1.046963141e-05
-6.6,8.683059094e-04,-1.166766391e-04,7.516292703e-04,8.190979881e-04,-6.616016211e-05,7.529378259e-04,5.996584081e-04,6.922342309e-05,6.688818312e-04,7.127461290e-04,-1.662773794e-04,5.464687496e-04,4.162189672e-04,-1.220719343e-04,2.941470329e-04,4.836588535e-04,-5.941625362e-05,4.242425998e-04,3.921558722e-04,-6.348246450e-05,3.286734077e-04,8.446312895e-04,-1.577141084e-04,6.869171811e-04,5.918228490e-04,-1.326369551e-04,4.591858939e-04,1.019731387e-03,-1.506740804e-04,8.690573063e-04,1.981265853e-04,-7.362136288e-05,1.245052224e-04,9.867432489e-04,-1.849696183e-03,-8.629529339e-04,7.483843504e-04,3.237760898e-04,1.072160440e-03,6.268968558e-04,-1.732614056e-04,4.536354502e-04,1.670020842e-03,-6.153186278e-04,1.054702214e-03,4.300715031e-04,-1.692878462e-04,2.607836569e-04,1.227512246e-03,-3.057328578e-04,9.217793885e-04,3.676715860e-05,-2.814026540e-05,8.626893206e-06,4.211341216e-04,-1.550454115e-04,2.660887101e-04,1.089092374e-03,-2.007931205e-04,8.882992533e-04,1.203718622e-04,8.130097003e-05,2.016728323e-04,4.880666893e-04,-8.350296161e-05,4.045637277e-04,-2.071716654e-05,2.496492068e-05,4.247754142e-06,1.217796643e-04,-7.259965258e-05,4.918001176e-05,1.017152246e-03,-3.116621438e-04,7.054901024e-04,8.687744817e-04,-1.870245777e-04,6.817499039e-04,7.207690730e-04,-1.686612815e-04,5.521077916e-04,9.956011431e-04,-8.715482513e-05,9.084463180e-04,1.429765888e-04,5.893330876e-05,2.019098976e-04,1.283740167e-04,-8.338863491e-05,4.498538182e-05,8.576622506e-04,3.870694050e-05,8.963691911e-04,1.206433665e-04,7.611365987e-04,8.817799652e-04,9.644126278e-04,-8.988643244e-04,6.554830338e-05,1.696120894e-04,-5.252781491e-04,-3.556660597e-04,-2.224272651e-05,1.993461026e-04,1.771033761e-04,6.224515502e-04,-7.501786404e-04,-1.277270901e-04
-6.5,7.525775355e-04,-1.355803169e-04,6.169972186e-04,7.349294614e-04,-8.185255742e-05,6.530769040e-04,5.189367000e-04,6.589730385e-05,5.848340039e-04,6.843187746e-04,-1.722511764e-04,5.120675982e-04,4.005664122e-04,-1.390119973e-04,2.615544150e-04,4.253059061e-04,-7.045282223e-05,3.548530839e-04,3.207335547e-04,-7.187266632e-05,2.488608884e-04,7.189284882e-04,-1.555432262e-04,5.633852620e-04,5.809156827e-04,-1.354174414e-04,4.454982412e-04,9.180271147e-04,-1.472210501e-04,7.708060646e-04,1.420944090e-04,-8.525820382e-05,5.683620518e-05,7.137577162e-04,-1.604066406e-03,-8.903086894e-04,7.006710972e-04,3.427683828e-04,1.043439480e-03,5.536319142e-04,-1.558867635e-04,3.977451508e-04,1.596519394e-03,-6.255921657e-04,9.709272282e-04,3.571390831e-04,-1.664545599e-04,1.906845232e-04,1.172836253e-03,-3.331883104e-04,8.396479423e-04,-5.188377625e-05,-2.869156784e-05,-8.057534409e-05,3.641519710e-04,-1.748797625e-04,1.892722085e-04,9.839944061e-04,-2.175116329e-04,7.664827732e-04,5.372142275e-05,8.171286039e-05,1.354342831e-04,3.794214690e-04,-7.712461359e-05,3.022968554e-04,-7.511136460e-05,1.586724259e-05,-5.924412201e-05,8.916412560e-05,-6.790098133e-05,2.126314427e-05,9.120880564e-04,-3.072859928e-04,6.048020637e-04,7.955513602e-04,-1.803621833e-04,6.151891769e-04,6.327290519e-04,-1.798020645e-04,4.529269874e-04,8.959758808e-04,-5.829435902e-05,8.376815218e-04,5.231137266e-05,4.841396590e-05,1.007253386e-04,2.675497992e-05,-9.213406216e-05,-6.537908225e-05,7.411273652e-04,3.587881657e-05,7.770061817e-04,-2.930626254e-05,7.364709277e-04,7.071646652e-04,8.593827846e-04,-9.059123538e-04,-4.652956913e-05,1.434417462e-04,-5.423315012e-04,-3.988897549e-04,-7.630819251e-05,1.838393192e-04,1.075311267e-04,5.475004677e-04,-7.859329394e-04,-2.384324717e-04
-6.4,6.350788904e-04,-1.539177452e-04,4.811611452e-04,6.486330993e-04,-9.741933280e-05,5.512137665e-04,4.365985592e-04,6.174265853e-05,4.983412178e-04,6.531704824e-04,-1.774135276e-04,4.757569549e-04,3.823155714e-04,-1.549463610e-04,2.273692104e-04,3.652340957e-04,-8.191188249e-05,2.833222132e-04,2.489831861e-04,-7.996137304e-05,1.690218131e-04,5.921254274e-04,-1.533959482e-04,4.387294792e-04,5.667180911e-04,-1.379873127e-04,4.287307784e-04,8.134940218e-04,-1.434540976e-04,6.700399242e-04,8.488101651e-05,-9.624627412e-05,-1.136525762e-05,4.433194578e-04,-1.349388649e-03,-9.060691916e-04,6.493470926e-04,3.593957468e-04,1.008742839e-03,4.792596888e-04,-1.387064655e-04,3.405532233e-04,1.518690602e-03,-6.345555939e-04,8.841350083e-04,2.843051653e-04,-1.632948585e-04,1.210103068e-04,1.113542899e-03,-3.586983327e-04,7.548445659e-04,-1.395595573e-04,-2.991240379e-05,-1.694719611e-04,3.050657313e-04,-1.931029470e-04,1.119627842e-04,8.769106424e-04,-2.341209483e-04,6.427896941e-04,-1.280719624e-05,8.117188021e-05,6.836468397e-05,2.701543391e-04,-7.027134180e-05,1.998829973e-04,-1.290338000e-04,6.608712052e-06,-1.224250880e-04,5.649601401e-05,-6.328213296e-05,-6.786118951e-06,8.051079431e-04,-3.035697537e-04,5.015381895e-04,7.192446278e-04,-1.726976731e-04,5.465469547e-04,5.426977679e-04,-1.912003990e-04,3.514973690e-04,7.971867566e-04,-3.139243498e-05,7.657943216e-04,-3.866797815e-05,3.786579344e-05,-8.021847087e-07,-7.402560627e-05,-1.009081887e-04,-1.749337950e-04,6.218635502e-04,3.264816569e-05,6.545117158e-04,-1.699996512e-04,7.001190440e-04,5.301193928e-04,7.478885663e-04,-9.047498178e-04,-1.568612515e-04,1.250814576e-04,-5.620559468e-04,-4.369744892e-04,-1.279055527e-04,1.651863510e-04,3.728079826e-05,4.748892553e-04,-8.166597649e-04,-3.417705096e-04
-6.3,5.163815622e-04,-1.716116408e-04,3.447699214e-04,5.606759031e-04,-1.127875007e-04,4.478884024e-04,3.529371160e-04,5.678675833e-05,4.097238743e-04,6.194949325e-04,-1.817533299e-04,4.377416026e-04,3.616843820e-04,-1.698401406e-04,1.918442413e-04,3.036693965e-04,-9.364866200e-05,2.100207345e-04,1.772434064e-04,-8.775852753e-05,8.948487891e-05,4.647590695e-04,-1.512784071e-04,3.134806624e-04,5.493609637e-04,-1.403268073e-04,4.090341564e-04,7.066056865e-04,-1.393847970e-04,5.672208895e-04,2.681432767e-05,-1.065520859e-04,-7.973775820e-05,1.779642537e-04,-1.088038068e-03,-9.100738138e-04,5.944600823e-04,3.736336217e-04,9.680937040e-04,4.041446838e-04,-1.219206514e-04,2.822240324e-04,1.436852983e-03,-6.419516335e-04,7.949013494e-04,2.118804313e-04,-1.597334416e-04,5.214698976e-05,1.049367236e-03,-3.817354793e-04,6.676317571e-04,-2.258245860e-04,-3.171709281e-05,-2.575416788e-04,2.443171706e-04,-2.095762468e-04,3.474092380e-05,7.684037596e-04,-2.505294077e-04,5.178743519e-04,-7.876408189e-05,7.963496632e-05,8.708844309e-07,1.608166659e-04,-6.300947768e-05,9.780718823e-05,-1.823158256e-04,-2.769279081e-06,-1.850851046e-04,2.404790929e-05,-5.872185541e-05,-3.467394612e-05,6.967509474e-04,-3.004587821e-04,3.962921653e-04,6.402417697e-04,-1.640818154e-04,4.761599543e-04,4.511288003e-04,-2.028836500e-04,2.482451503e-04,6.997693353e-04,-6.699864135e-06,6.930694712e-04,-1.294558695e-04,2.733845368e-05,-1.021174158e-04,-1.734828056e-04,-1.096686321e-04,-2.831514377e-04,5.003926860e-04,2.899842671e-05,5.293911127e-04,-3.010881654e-04,6.530761278e-04,3.519879624e-04,6.305011150e-04,-8.952255525e-04,-2.647244375e-04,1.145724486e-04,-5.843561948e-04,-4.697837462e-04,-1.766532384e-04,1.435794578e-04,-3.307378062e-05,4.052541184e-04,-8.422896203e-04,-4.370355019e-04
-6.2,3.970743388e-04,-1.885855668e-04,2.084887720e-04,4.715412881e-04,-1.278798057e-04,3.436614823e-04,2.682558727e-04,5.106292490e-05,3.193187976e-04,5.835051684e-04,-1.852662651e-04,3.982389033e-04,3.389039581e-04,-1.836633910e-04,1.552405671e-04,2.408512191e-04,-1.055019558e-04,1.353492633e-04,1.058501812e-04,-9.527517083e-05,1.057501037e-05,3.373639365e-04,-1.491937688e-04,1.881701677e-04,5.289941772e-04,-1.424155525e-04,3.865786248e-04,5.978430164e-04,-1.350245094e-04,4.628185070e-04,-3.176760299e-05,-1.161466637e-04,-1.479142667e-04,-7.996457120e-05,-8.222795828e-04,-9.022441540e-04,5.360760992e-04,3.855027895e-04,9.215788887e-04,3.286505742e-04,-1.057198132e-04,2.229307609e-04,1.351306931e-03,-6.475156864e-04,7.037912447e-04,1.401522867e-04,-1.557021366e-04,-1.554984984e-05,9.801148672e-04,-4.018458291e-04,5.782690380e-04,-3.102565350e-04,-3.400326698e-05,-3.442598020e-04,1.823766988e-04,-2.242019470e-04,-4.182524820e-05,6.590262525e-04,-2.666387301e-04,3.923875224e-04,-1.436975640e-04,7.706006154e-05,-6.663750251e-05,5.195475528e-05,-5.540561132e-05,-3.450856038e-06,-2.347851604e-04,-1.222535460e-05,-2.470105150e-04,-7.904094410e-06,-5.419908565e-05,-6.210318006e-05,5.875454833e-04,-2.978686793e-04,2.896768040e-04,5.589454976e-04,-1.545762343e-04,4.043692632e-04,3.584665695e-04,-2.148514910e-04,1.436150785e-04,6.041691336e-04,1.558789219e-05,6.197570258e-04,-2.195328526e-04,1.686604145e-05,-2.026668112e-04,-2.711626864e-04,-1.183421554e-04,-3.895048418e-04,3.772480747e-04,2.493757430e-05,4.021856490e-04,-4.223936941e-04,5.965027110e-04,1.741090169e-04,5.079037106e-04,-8.773430074e-04,-3.694392968e-04,1.117705032e-04,-6.090231176e-04,-4.972526144e-04,-2.222101589e-04,1.192645085e-04,-1.029456504e-04,3.391955324e-04,-8.628294992e-04,-5.236339668e-04
-6.1,2.777576605e-04,-2.047642919e-04,7.299336860e-05,3.817240323e-04,-1.426151014e-04,2.391089309e-04,1.828697197e-04,4.461082253e-05,2.274805423e-04,5.454319601e-04,-1.879541241e-04,3.574778360e-04,3.142175347e-04,-1.963914434e-04,1.178260913e-04,1.770299885e-04,-1.172960421e-04,5.973394639e-05,3.513520423e-05,-1.025228098e-04,-6.738760559e-05,2.104699142e-04,-1.471409582e-04,6.332895606e-05,5.057859284e-04,-1.442329271e-04,3.615530012e-04,4.876913698e-04,-1.303841119e-04,3.573072579e-04,-9.051812012e-05,-1.250057821e-04,-2.155239022e-04,-3.283333515e-04,-5.542572145e-04,-8.825905660e-04,4.742842646e-04,3.950687684e-04,8.693530330e-04,2.531333781e-04,-9.027403577e-05,1.628593424e-04,1.262337250e-03,-6.509824092e-04,6.113548412e-04,6.938469172e-05,-1.511407330e-04,-8.175604131e-05,9.056694400e-04,-4.186470980e-04,4.870223420e-04,-3.924451766e-04,-3.665627855e-05,-4.291014552e-04,1.197368736e-04,-2.369206651e-04,-1.171837915e-04,5.493160908e-04,-2.823429376e-04,2.669731532e-04,-2.071579194e-04,7.340830045e-05,-1.337496190e-04,-5.589150371e-05,-4.752668565e-05,-1.034181894e-04,-2.862648600e-04,-2.171846284e-05,-3.079833228e-04,-3.908245109e-05,-4.969326994e-05,-8.877572103e-05,4.780025275e-04,-2.956838736e-04,1.823186539e-04,4.757717223e-04,-1.442533832e-04,3.315183391e-04,2.651484581e-04,-2.270779787e-04,3.807047943e-05,5.107387346e-04,3.533252374e-05,5.460712583e-04,-3.083696181e-04,6.468066567e-06,-3.019015516e-04,-3.666396878e-04,-1.268298331e-04,-4.934695210e-04,2.529755283e-04,2.049815545e-05,2.734736837e-04,-5.338870470e-04,5.317023530e-04,-2.184693979e-06,3.808873414e-04,-8.512627544e-04,-4.703754131e-04,1.163568405e-04,-6.357447291e-04,-5.193878886e-04,-2.642777667e-04,9.253354213e-05,-1.717442246e-04,2.772795233e-04,-8.783565266e-04,-6.010770033e-04
-6,1.590382257e-04,-2.200740850e-04,-6.103585927e-05,2.917256350e-04,-1.569089145e-04,1.348167205e-04,9.710710659e-05,3.747655773e-05,1.345836643e-04,5.055233352e-04,-1.898241667e-04,3.156991685e-04,2.878808175e-04,-2.080052817e-04,7.987553585e-05,1.124672413e-04,-1.288453920e-04,-1.637815074e-05,-3.457473999e-05,-1.095127682e-04,-1.440875081e-04,8.460190345e-05,-1.451148859e-04,-6.051298247e-05,4.799224771e-04,-1.457586259e-04,3.341638512e-04,3.766386947e-04,-1.254738573e-04,2.511648373e-04,-1.490825375e-04,-1.331100997e-04,-2.821926372e-04,-5.652329436e-04,-2.859955831e-04,-8.512285268e-04,4.092086900e-04,4.024326036e-04,8.116412936e-04,1.779394372e-04,-7.572652478e-05,1.022129124e-04,1.170219651e-03,-6.520942529e-04,5.181253983e-04,-1.799232602e-07,-1.459977133e-04,-1.461776365e-04,8.260010968e-04,-4.318253050e-04,3.941757918e-04,-4.719893500e-04,-3.955457725e-05,-5.115439273e-04,5.690541983e-05,-2.477051936e-04,-1.907997737e-04,4.397926624e-04,-2.975266813e-04,1.422659810e-04,-2.687012433e-04,6.864808024e-05,-2.000531631e-04,-1.621886373e-04,-3.944126276e-05,-2.016299001e-04,-3.365717843e-04,-3.120811572e-05,-3.677799000e-04,-6.920963001e-05,-4.518459777e-05,-1.143942278e-04,3.686124716e-04,-2.937593498e-04,7.485312182e-05,3.911491050e-04,-1.331963520e-04,2.579527530e-04,1.716066603e-04,-2.395113122e-04,-6.790465181e-05,4.197420764e-04,5.245280734e-05,4.721948838e-04,-3.954328848e-04,-3.847374086e-06,-3.992802589e-04,-4.595124809e-04,-1.350149861e-04,-5.945274671e-04,1.281333419e-04,1.573733796e-05,1.438706799e-04,-6.356571356e-04,4.600947317e-04,-1.755624039e-04,2.503400423e-04,-8.172972261e-04,-5.669571838e-04,1.278622928e-04,-6.641223599e-04,-5.362600671e-04,-3.026042876e-04,6.371876268e-05,-2.388855249e-04,2.200402293e-04,-8.890039404e-04,-6.689637111e-04
-5.9,4.152388442e-05,-2.344431105e-04,-1.929192260e-04,2.020501887e-04,-1.706743729e-04,3.137581579e-05,1.131209822e-05,2.971264399e-05,4.102474221e-05,4.640445964e-04,-1.908886007e-04,2.731559957e-04,2.601626048e-04,-2.184919002e-04,4.167070458e-05,4.743772587e-05,-1.399613468e-04,-9.252362095e-05,-1.029581173e-04,-1.162554596e-04,-2.192135769e-04,-3.972016795e-05,-1.431074518e-04,-1.828276197e-04,4.516076381e-04,-1.469732656e-04,3.046343726e-04,2.651739635e-04,-1.203033551e-04,1.448706085e-04,-2.070987679e-04,-1.404451963e-04,-3.475439643e-04,-7.889918626e-04,-1.940570872e-05,-8.083975713e-04,3.410227122e-04,4.077154981e-04,7.487382103e-04,1.034070765e-04,-6.219145039e-05,4.121562607e-05,1.075229249e-03,-6.506110363e-04,4.246182130e-04,-6.831703203e-05,-1.402317117e-04,-2.085487437e-04,7.411733442e-04,-4.411311390e-04,3.000422052e-04,-5.484935663e-04,-4.257511661e-05,-5.910686829e-04,-5.601884043e-06,-2.565527859e-04,-2.621546700e-04,3.309508141e-04,-3.120613977e-04,1.888941639e-05,-3.278944822e-04,6.276054974e-05,-2.651339324e-04,-2.664103888e-04,-3.121997951e-05,-2.976303683e-04,-3.855153956e-04,-4.065458999e-05,-4.261699856e-04,-9.800999933e-05,-4.065418509e-05,-1.386641844e-04,2.598452172e-04,-2.919255890e-04,-3.208037188e-05,3.055187003e-04,-1.214984052e-04,1.840202951e-04,7.826952175e-05,-2.520720990e-04,-1.738025773e-04,3.313652101e-04,6.692181620e-05,3.982870263e-04,-4.801934922e-04,-1.407894769e-05,-4.942724399e-04,-5.493996959e-04,-1.427722423e-04,-6.921719383e-04,3.290311824e-06,1.073594083e-05,1.402625265e-05,-7.278790522e-04,3.831860999e-04,-3.446929524e-04,1.172345295e-04,-7.759014600e-04,-6.586669305e-04,1.457026413e-04,-6.936952644e-04,-5.479926230e-04,-3.369892042e-04,3.318727881e-05,-3.038019254e-04,1.679774662e-04,-8.949418358e-04,-7.269643696e-04
-5.8,-7.418173309e-05,-2.478019602e-04,-3.219836933e-04,1.132001857e-04,-1.838234514e-04,-7.062326573e-05,-7.415511021e-05,2.137797121e-05,-5.277713901e-05,4.212773422e-04,-1.911641169e-04,2.301132253e-04,2.313441805e-04,-2.278445345e-04,3.499646073e-06,-1.776818381e-05,-1.504591703e-04,-1.682273541e-04,-1.696996538e-04,-1.227595770e-04,-2.924592309e-04,-1.619828085e-04,-1.411083615e-04,-3.030911700e-04,4.210615129e-04,-1.478588573e-04,2.732026555e-04,1.537850037e-04,-1.148816740e-04,3.890332967e-05,-2.641991057e-04,-1.470015880e-04,-4.112006937e-04,-9.981840636e-04,2.437089823e-04,-7.544750814e-04,2.699590827e-04,4.110431733e-04,6.810022559e-04,2.986885595e-05,-4.975407295e-05,-1.988521699e-05,9.776487313e-04,-6.463195891e-04,3.313291423e-04,-1.348151501e-04,-1.338143718e-04,-2.686295218e-04,6.513459940e-04,-4.463768054e-04,2.049691886e-04,-6.215663715e-04,-4.559799607e-05,-6.671643676e-04,-6.726869760e-05,-2.634779942e-04,-3.307466918e-04,2.232528726e-04,-3.258001088e-04,-1.025472362e-04,-3.843217303e-04,5.574517371e-05,-3.285765566e-04,-3.680401611e-04,-2.293438569e-05,-3.909745468e-04,-4.328976709e-04,-5.001906319e-05,-4.829167341e-04,-1.252129827e-04,-3.608419415e-05,-1.612971768e-04,1.521509800e-04,-2.899947278e-04,-1.378437478e-04,2.193320633e-04,-1.092621373e-04,1.100699260e-04,-1.443774003e-05,-2.646514012e-04,-2.790891412e-04,2.457300979e-04,7.876168407e-05,3.244917819e-04,-5.621360289e-04,-2.422680917e-05,-5.863628381e-04,-6.359366981e-04,-1.499759306e-04,-7.859126287e-04,-1.209780292e-04,5.595346251e-06,-1.153826830e-04,-8.107892495e-04,3.025415286e-04,-5.082477209e-04,-1.738420295e-05,-7.276615005e-04,-7.450457034e-04,1.692129498e-04,-7.239697467e-04,-5.547567969e-04,-3.672867294e-04,1.335268877e-06,-3.659514605e-04,1.215464979e-04,-8.963600923e-04,-7.748135944e-04
-5.7,-1.874855902e-04,-2.600843238e-04,-4.475699140e-04,2.567137977e-05,-1.962683254e-04,-1.705969456e-04,-1.589197984e-04,1.253784767e-05,-1.463819507e-04,3.775162396e-04,-1.906713665e-04,1.868448731e-04,2.017165987e-04,-2.360626914e-04,-3.434609267e-05,-8.284320105e-05,-1.601647327e-04,-2.430079338e-04,-2.344926172e-04,-1.290312821e-04,-3.635238993e-04,-2.816826601e-04,-1.391054412e-04,-4.207881013e-04,3.885183801e-04,-1.483989947e-04,2.401193853e-04,4.295523930e-05,-1.092175419e-04,-6.626230257e-05,-3.200136658e-04,-1.527747671e-04,-4.727884330e-04,-1.191630782e-03,5.016488089e-04,-6.899819732e-04,1.963127157e-04,4.125349475e-04,6.088476631e-04,-4.234859015e-05,-3.847102586e-05,-8.081961601e-05,8.777744930e-04,-6.390422943e-04,2.387321987e-04,-1.994706770e-04,-1.267342291e-04,-3.262049061e-04,5.567740322e-04,-4.474346249e-04,1.093394073e-04,-6.908224931e-04,-4.850934523e-05,-7.393318383e-04,-1.275862751e-04,-2.685070705e-04,-3.960933456e-04,1.171207833e-04,-3.385738943e-04,-2.214531111e-04,-4.375910897e-04,4.762404685e-05,-3.899670428e-04,-4.665744885e-04,-1.465508303e-05,-4.812295715e-04,-4.785144522e-04,-5.926363973e-05,-5.377780919e-04,-1.505576776e-04,-3.145786346e-05,-1.820155410e-04,4.596031990e-05,-2.877667854e-04,-2.418064655e-04,1.330470383e-04,-9.659809641e-05,3.644894193e-05,-1.060928806e-04,-2.771092131e-04,-3.832020938e-04,1.629088920e-04,8.803640903e-05,2.509453010e-04,-6.407687883e-04,-3.428754109e-05,-6.750563293e-04,-7.187739500e-04,-1.565068858e-04,-8.752808358e-04,-2.440939812e-04,4.315706412e-07,-2.436624105e-04,-8.846701048e-04,2.197603228e-04,-6.649097820e-04,-1.524136189e-04,-6.732794019e-04,-8.256930208e-04,1.976731800e-04,-7.544475433e-04,-5.567743633e-04,-3.934083034e-04,-3.141835482e-05,-4.248266582e-04,8.114244971e-05,-8.934594409e-04,-8.123169912e-04
-5.6,-2.978130532e-04,-2.712279320e-04,-5.690409853e-04,-6.005390114e-05,-2.079227152e-04,-2.679766163e-04,-2.425959549e-04,3.264078764e-06,-2.393318761e-04,3.330633018e-04,-1.894343828e-04,1.436289190e-04,1.715759930e-04,-2.431519879e-04,-7.157599487e-05,-1.474634568e-04,-1.689211146e-04,-3.163845714e-04,-2.970423434e-04,-1.350734674e-04,-4.321158107e-04,-3.983319767e-04,-1.370845867e-04,-5.354165634e-04,3.542240485e-04,-1.485786727e-04,2.056453759e-04,-6.684053471e-05,-1.033195573e-04,-1.701600920e-04,-3.741752859e-04,-1.577652031e-04,-5.319404890e-04,-1.368399416e-03,7.528174070e-04,-6.155820087e-04,1.204377128e-04,4.122978025e-04,5.327355153e-04,-1.129281818e-04,-2.837022089e-05,-1.412984027e-04,7.759199224e-04,-6.286432945e-04,1.472766279e-04,-2.620836330e-04,-1.190002859e-04,-3.810839189e-04,4.578026298e-04,-4.442372506e-04,1.356537919e-05,-7.558891820e-04,-5.120205583e-05,-8.070912378e-04,-1.860619458e-04,-2.716741181e-04,-4.577360639e-04,1.293042869e-05,-3.501926720e-04,-3.372622433e-04,-4.873413838e-04,3.844455242e-05,-4.488968314e-04,-5.615268475e-04,-6.450543415e-06,-5.679773909e-04,-5.221580096e-04,-6.835128651e-05,-5.905092961e-04,-1.737984685e-04,-2.675950341e-05,-2.005579719e-04,-5.831644830e-05,-2.850362185e-04,-3.433526668e-04,4.712145763e-05,-8.362282702e-05,-3.650136939e-05,-1.962770145e-04,-2.892741854e-04,-4.855511999e-04,8.293827691e-05,9.484310753e-05,1.777813844e-04,-7.156331708e-04,-4.424993441e-05,-7.598831052e-04,-7.975771180e-04,-1.622572656e-04,-9.598343836e-04,-3.654822739e-04,-4.633208756e-06,-3.701154827e-04,-9.498402809e-04,1.364505597e-04,-8.133897212e-04,-2.867131428e-04,-6.135529546e-04,-9.002660974e-04,2.303252072e-04,-7.846498916e-04,-5.543246844e-04,-4.153246342e-04,-6.463792748e-05,-4.799625617e-04,4.708179369e-05,-8.864491863e-04,-8.393673926e-04
-5.5,-4.046171296e-04,-2.811759646e-04,-6.857930942e-04,-1.435149616e-04,-2.187033093e-04,-3.622182709e-04,-3.247899732e-04,-6.364928652e-06,-3.311549019e-04,2.882205785e-04,-1.874801356e-04,1.007404429e-04,1.412178984e-04,-2.491238424e-04,-1.079059440e-04,-2.112908240e-04,-1.765945965e-04,-3.878854205e-04,-3.570704305e-04,-1.408850819e-04,-4.979555124e-04,-5.114650992e-04,-1.350292685e-04,-6.464943678e-04,3.184332181e-04,-1.483837874e-04,1.700494307e-04,-1.751407507e-04,-9.719632654e-05,-2.723370772e-04,-4.263251256e-04,-1.619782046e-04,-5.883033302e-04,-1.527801451e-03,9.957238000e-04,-5.320776515e-04,4.274380831e-05,4.104215931e-04,4.531654014e-04,-1.815682554e-04,-1.945097092e-05,-2.010192263e-04,6.724160566e-04,-6.150319922e-04,5.738406440e-05,-3.224549594e-04,-1.106439271e-04,-4.330988865e-04,3.548581410e-04,-4.367771663e-04,-8.191902531e-05,-8.164152035e-04,-5.357489243e-05,-8.699900960e-04,-2.422267432e-04,-2.730192116e-04,-5.152459548e-04,-8.899148805e-05,-3.604502607e-04,-4.494417488e-04,-5.332480585e-04,2.828065492e-05,-5.049674036e-04,-6.524320615e-04,1.613556584e-06,-6.508185050e-04,-5.636201495e-04,-7.724575340e-05,-6.408659029e-04,-1.947107637e-04,-2.197459254e-05,-2.166853562e-04,-1.602902176e-04,-2.815988776e-04,-4.418890952e-04,-3.799432184e-05,-7.045643319e-05,-1.084507550e-04,-2.845761749e-04,-3.009456948e-04,-5.855218697e-04,5.834031113e-06,9.930286759e-05,1.051368987e-04,-7.863117642e-04,-5.409203056e-05,-8.404037947e-04,-8.720285013e-04,-1.671334278e-04,-1.039161929e-03,-4.845743252e-04,-9.480272161e-06,-4.940545974e-04,-1.006645590e-03,5.419823461e-05,-9.524473553e-04,-4.191281866e-04,-5.493489501e-04,-9.684771367e-04,2.663811055e-04,-8.141329617e-04,-5.477518562e-04,-4.330675659e-04,-9.787596789e-05,-5.309435338e-04,1.958138972e-05,-8.755460691e-04,-8.559646794e-04
-5.4,-5.073886771e-04,-2.898788927e-04,-7.972675698e-04,-2.242817830e-04,-2.285313798e-04,-4.528131628e-04,-4.051034593e-04,-1.626395995e-05,-4.213674192e-04,2.432828995e-04,-1.848384210e-04,5.844447850e-05,1.109320352e-04,-2.539950675e-04,-1.430630323e-04,-2.739774073e-04,-1.830783432e-04,-4.570557505e-04,-4.143186529e-04,-1.464605190e-04,-5.607791719e-04,-6.206452439e-04,-1.329193093e-04,-7.535645532e-04,2.814074175e-04,-1.478005428e-04,1.336068747e-04,-2.815012150e-04,-9.085648942e-05,-3.723577044e-04,-4.761178570e-04,-1.654236703e-04,-6.415415272e-04,-1.669387900e-03,1.228983052e-03,-4.404048482e-04,-3.630252358e-05,4.069714553e-04,3.706689317e-04,-2.479883185e-04,-1.168471637e-05,-2.596730349e-04,5.676115342e-04,-5.981649226e-04,-3.055338844e-05,-3.803851069e-04,-1.017185212e-04,-4.821036281e-04,2.484373082e-04,-4.251038908e-04,-1.766665826e-04,-8.720806560e-04,-5.553044496e-05,-9.276111009e-04,-2.956413263e-04,-2.725882699e-04,-5.682295962e-04,-1.883683341e-04,-3.691316313e-04,-5.574999654e-04,-5.750272689e-04,1.723285430e-05,-5.577944146e-04,-7.388516652e-04,9.475886150e-06,-7.293757791e-04,-6.026950688e-04,-8.591152399e-05,-6.886065928e-04,-2.130959722e-04,-1.709004648e-05,-2.301860187e-04,-2.595942804e-04,-2.772587978e-04,-5.368530782e-04,-1.218646306e-04,-5.721977164e-05,-1.790844022e-04,-3.705847690e-04,-3.118987733e-04,-6.824835423e-04,-6.839549933e-05,1.015533749e-04,3.315787559e-05,-8.524342117e-04,-6.377947619e-05,-9.162136879e-04,-9.418284550e-04,-1.710577571e-04,-1.112886212e-03,-6.008117483e-04,-1.400316688e-05,-6.148149152e-04,-1.055446418e-03,-2.546927072e-05,-1.080915689e-03,-5.485165566e-04,-4.815709599e-04,-1.030087516e-03,3.050209578e-04,-8.424906038e-04,-5.374696461e-04,-4.467312250e-04,-1.306772929e-04,-5.774085179e-04,-1.261837174e-06,-8.609723570e-04,-8.622341941e-04
-5.3,-6.056666418e-04,-2.972964471e-04,-9.029630889e-04,-3.019638259e-04,-2.373345379e-04,-5.392983638e-04,-4.831343251e-04,-2.634065932e-05,-5.094749844e-04,1.985322960e-04,-1.815420328e-04,1.699026318e-05,8.099882043e-05,-2.577874249e-04,-1.767886045e-04,-3.351713988e-04,-1.882927802e-04,-5.234641790e-04,-4.685516740e-04,-1.517891048e-04,-6.203407788e-04,-7.254706112e-04,-1.307291174e-04,-8.561997286e-04,2.434137708e-04,-1.468150679e-04,9.659870287e-05,-3.854981350e-04,-8.430864500e-05,-4.698067800e-04,-5.232255136e-04,-1.681158608e-04,-6.913413743e-04,-1.792938837e-03,1.451309664e-03,-3.416291732e-04,-1.161699202e-04,4.019765569e-04,2.858066367e-04,-3.119330702e-04,-5.015995748e-06,-3.169490659e-04,4.618743113e-04,-5.780472949e-04,-1.161729836e-04,-4.356730378e-04,-9.229683800e-05,-5.279698758e-04,1.390995841e-04,-4.093204906e-04,-2.702209065e-04,-9.226065736e-04,-5.697205674e-05,-9.795786303e-04,-3.459008245e-04,-2.704332468e-04,-6.163340714e-04,-2.849722641e-04,-3.760204652e-04,-6.609927292e-04,-6.124373636e-04,5.426380890e-06,-6.070109827e-04,-8.203794308e-04,1.708190515e-05,-8.032975257e-04,-6.391815000e-04,-9.431376287e-05,-7.334952628e-04,-2.287853279e-04,-1.209455317e-05,-2.408798811e-04,-3.558850906e-04,-2.718342141e-04,-6.277193047e-04,-2.040739732e-04,-4.403134432e-05,-2.481053175e-04,-4.539104780e-04,-3.218914705e-04,-7.758019485e-04,-1.397400975e-04,1.017454399e-04,-3.799465766e-05,-9.136804362e-04,-7.326477605e-05,-9.869452122e-04,-1.006695538e-03,-1.739705091e-04,-1.180666047e-03,-7.136486256e-04,-1.811423273e-05,-7.317628583e-04,-1.096600727e-03,-1.011222760e-04,-1.197723003e-03,-6.737749053e-04,-4.111256444e-04,-1.084900550e-03,3.453827668e-04,-8.693450086e-04,-5.239622418e-04,-4.564710370e-04,-1.625844881e-04,-6.190555251e-04,-1.548572709e-05,-8.429547442e-04,-8.584404713e-04
-5.2,-6.990471324e-04,-3.033993621e-04,-1.002446494e-03,-3.762174945e-04,-2.450484746e-04,-6.212659691e-04,-5.584767155e-04,-3.649524910e-05,-5.949719646e-04,1.542348256e-04,-1.776268915e-04,-2.339206584e-05,5.168783841e-05,-2.605272233e-04,-2.088393849e-04,-3.945231405e-04,-1.921832849e-04,-5.867064254e-04,-5.195582866e-04,-1.568546990e-04,-6.764129856e-04,-8.255786885e-04,-1.284261365e-04,-9.540048251e-04,2.047242553e-04,-1.454134088e-04,5.931084645e-05,-4.867299544e-04,-7.756119992e-05,-5.642911544e-04,-5.673398993e-04,-1.700732575e-04,-7.374131568e-04,-1.898446028e-03,1.661500931e-03,-2.369450967e-04,-1.962502575e-04,3.954185608e-04,1.991683034e-04,-3.731747241e-04,6.368661985e-07,-3.725378579e-04,3.555944530e-04,-5.547334553e-04,-1.991390023e-04,-4.881151508e-04,-8.246706089e-05,-5.705822117e-04,2.746480638e-05,-3.895817092e-04,-3.621169028e-04,-9.677633033e-04,-5.780046845e-05,-1.025563772e-03,-3.926399255e-04,-2.666110183e-04,-6.592509438e-04,-3.786212962e-04,-3.809060906e-04,-7.595273868e-04,-6.452781771e-04,-6.992477727e-06,-6.522706548e-04,-8.966457058e-04,2.438532374e-05,-8.722603820e-04,-6.728843128e-04,-1.024181962e-04,-7.753025090e-04,-2.416428866e-04,-6.978794414e-06,-2.486216810e-04,-4.488423559e-04,-2.651621439e-04,-7.140044998e-04,-2.842302209e-04,-3.100407751e-05,-3.152342984e-04,-5.341792927e-04,-3.306736670e-04,-8.648529597e-04,-2.081856443e-04,1.000444211e-04,-1.081412232e-04,-9.697815497e-04,-8.248722505e-05,-1.052268775e-03,-1.066365930e-03,-1.758316641e-04,-1.242197595e-03,-8.225528007e-04,-2.174855677e-05,-8.443013575e-04,-1.130444593e-03,-1.714663177e-04,-1.301910911e-03,-7.938632393e-04,-3.388932621e-04,-1.132756501e-03,3.865512984e-04,-8.943304653e-04,-5.077791670e-04,-4.624997439e-04,-1.931471182e-04,-6.556468621e-04,-2.327206038e-05,-8.217240070e-04,-8.449960674e-04
-5.1,-7.871904612e-04,-3.081707244e-04,-1.095361186e-03,-4.467516385e-04,-2.516185383e-04,-6.983701768e-04,-6.307216057e-04,-4.662061283e-05,-6.773422185e-04,1.106391465e-04,-1.731318146e-04,-6.249266813e-05,2.325722501e-05,-2.622450065e-04,-2.389877815e-04,-4.516908681e-04,-1.947166216e-04,-6.464074897e-04,-5.671517992e-04,-1.616353818e-04,-7.287871810e-04,-9.206485995e-04,-1.259700764e-04,-1.046618676e-03,1.656146951e-04,-1.435817900e-04,2.203290511e-05,-5.848185923e-04,-7.062215618e-05,-6.554407485e-04,-6.081744045e-04,-1.713184120e-04,-7.794928164e-04,-1.986093510e-03,1.858416032e-03,-1.276774777e-04,-2.758514986e-04,3.872254803e-04,1.113739817e-04,-4.315144690e-04,5.380956776e-06,-4.261335122e-04,2.491834602e-04,-5.283236670e-04,-2.791402068e-04,-5.375049809e-04,-7.232818303e-05,-6.098331640e-04,-8.578733007e-05,-3.660933305e-04,-4.518806606e-04,-1.007376475e-03,-5.791157195e-05,-1.065288047e-03,-4.355386989e-04,-2.611809418e-04,-6.967196406e-04,-4.691762433e-04,-3.835890506e-04,-8.527652940e-04,-6.733897679e-04,-1.986122030e-05,-6.932509882e-04,-9.673201879e-04,3.134729646e-05,-9.359728914e-04,-7.036161418e-04,-1.101909166e-04,-8.138070584e-04,-2.515683756e-04,-1.735518175e-06,-2.533038938e-04,-5.381693413e-04,-2.571009818e-04,-7.952703231e-04,-3.619663977e-04,-1.824234957e-05,-3.802087472e-04,-6.110400565e-04,-3.379962617e-04,-9.490363182e-04,-2.737206638e-04,9.663632331e-05,-1.770843405e-04,-1.020519197e-03,-9.137389729e-05,-1.111893094e-03,-1.120594274e-03,-1.766217008e-04,-1.297215975e-03,-9.270075124e-04,-2.486603946e-05,-9.518735519e-04,-1.157273639e-03,-2.353744912e-04,-1.392648130e-03,-9.078258110e-04,-2.657068873e-04,-1.173532698e-03,4.275505542e-04,-9.170748826e-04,-4.895243284e-04,-4.650810994e-04,-2.219339964e-04,-6.870150959e-04,-2.495423411e-05,-7.975131458e-04,-8.224673799e-04
-5,-8.698260036e-04,-3.116068957e-04,-1.181432899e-03,-5.133311645e-04,-2.570010299e-04,-7.703321944e-04,-6.994598639e-04,-5.660293935e-05,-7.560628033e-04,6.797538134e-05,-1.680978642e-04,-1.001224828e-04,-4.047504156e-06,-2.629752981e-04,-2.670228022e-04,-5.063463645e-04,-1.958772570e-04,-7.022236216e-04,-6.111705324e-04,-1.661032527e-04,-7.772737851e-04,-1.010402468e-03,-1.233127930e-04,-1.133715261e-03,1.263628656e-04,-1.413068998e-04,-1.494403428e-05,-6.794108564e-04,-6.349887652e-05,-7.429097330e-04,-6.454663278e-04,-1.718776579e-04,-8.173439857e-04,-2.056243132e-03,2.040961524e-03,-1.528160768e-05,-3.542029730e-04,3.772745244e-04,2.307155135e-05,-4.867835559e-04,9.346558616e-06,-4.774369973e-04,1.430668019e-04,-4.989560287e-04,-3.558892268e-04,-5.836354641e-04,-6.198497445e-05,-6.456204385e-04,-1.999213067e-04,-3.391105080e-04,-5.390318148e-04,-1.041330283e-03,-5.719625344e-05,-1.098526536e-03,-4.743286437e-04,-2.542024427e-04,-7.285310864e-04,-5.565386558e-04,-3.838848820e-04,-9.404235378e-04,-6.966522355e-04,-3.300624995e-05,-7.296584855e-04,-1.032113812e-03,3.793380156e-05,-9.941800100e-04,-7.311995548e-04,-1.175981672e-04,-8.487977221e-04,-2.585003284e-04,3.640402348e-06,-2.548599260e-04,-6.235940891e-04,-2.475315609e-04,-8.711256500e-04,-4.369425708e-04,-5.839593543e-06,-4.427821644e-04,-6.841690696e-04,-3.436200416e-04,-1.027789111e-03,-3.363498786e-04,9.173680440e-05,-2.446130742e-04,-1.065724019e-03,-9.984200359e-05,-1.165566022e-03,-1.169157223e-03,-1.763404861e-04,-1.345497709e-03,-1.026515025e-03,-2.745220090e-05,-1.053967226e-03,-1.177331423e-03,-2.919111571e-04,-1.469242580e-03,-1.014806851e-03,-1.923423311e-04,-1.207149182e-03,4.673394291e-04,-9.371799077e-04,-4.698404785e-04,-4.645225845e-04,-2.485456451e-04,-7.130682296e-04,-2.102580469e-05,-7.705517897e-04,-7.915775944e-04
-4.9,-9.467552563e-04,-3.137179473e-04,-1.260473204e-03,-5.757792503e-04,-2.611641022e-04,-8.369433526e-04,-7.642883638e-04,-6.632289581e-05,-8.306112596e-04,2.645313628e-05,-1.625673905e-04,-1.361142542e-04,-2.999598504e-05,-2.627563150e-04,-2.927523000e-04,-5.581810537e-04,-1.956639433e-04,-7.538449971e-04,-6.514790321e-04,-1.702244127e-04,-8.217034449e-04,-1.094606665e-03,-1.203984541e-04,-1.215005119e-03,8.724563420e-05,-1.385760471e-04,-5.133041287e-05,-7.701804069e-04,-5.619790562e-05,-8.263783126e-04,-6.789802150e-04,-1.717806798e-04,-8.507608948e-04,-2.109425551e-03,2.208089033e-03,9.866348232e-05,-4.304754581e-04,3.654043638e-04,-6.507109432e-05,-5.388441579e-04,1.268286588e-05,-5.261612920e-04,3.767130176e-05,-4.667957248e-04,-4.291244230e-04,-6.263047852e-04,-5.154250251e-05,-6.778472877e-04,-3.141559954e-04,-3.089337743e-04,-6.230897697e-04,-1.069568773e-03,-5.554256316e-05,-1.125111336e-03,-5.087984446e-04,-2.457333914e-04,-7.545318360e-04,-6.406494396e-04,-3.816267041e-04,-1.022276144e-03,-7.149870429e-04,-4.624804378e-05,-7.612350866e-04,-1.090780271e-03,4.411195637e-05,-1.046668314e-03,-7.554699582e-04,-1.246061570e-04,-8.800761152e-04,-2.624194209e-04,9.151795280e-06,-2.532676256e-04,-7.048712934e-04,-2.363580276e-04,-9.412293210e-04,-5.088487498e-04,6.123474424e-06,-5.027252753e-04,-7.532753863e-04,-3.473241402e-04,-1.100599526e-03,-3.961102942e-04,8.559935907e-05,-3.105109351e-04,-1.105273474e-03,-1.078024735e-04,-1.213075947e-03,-1.211859058e-03,-1.750046061e-04,-1.386863664e-03,-1.120603206e-03,-2.951753597e-05,-1.150120742e-03,-1.190812963e-03,-3.403433922e-04,-1.531156356e-03,-1.114060098e-03,-1.195181435e-04,-1.233578242e-03,5.048086285e-04,-9.541998520e-04,-4.493912235e-04,-4.611678003e-04,-2.726252070e-04,-7.337930072e-04,-1.214814002e-05,-7.410558123e-04,-7.532039523e-04
-4.8,-1.017853454e-03,-3.145275088e-04,-1.332380963e-03,-6.339785230e-04,-2.640881894e-04,-8.980667124e-04,-8.248185197e-04,-7.565720682e-05,-9.004757265e-04,-1.374148632e-05,-1.565829281e-04,-1.703244145e-04,-5.437669851e-05,-2.616295941e-04,-3.160062926e-04,-6.069126728e-04,-1.940865214e-04,-8.009991942e-04,-6.879699762e-04,-1.739592090e-04,-8.619291852e-04,-1.173072951e-03,-1.171640478e-04,-1.290236999e-03,4.853556493e-05,-1.353771876e-04,-8.684162269e-05,-8.568300803e-04,-4.872494692e-05,-9.055550272e-04,-7.085118898e-04,-1.710600239e-04,-8.795719138e-04,-2.146330893e-03,2.358803983e-03,2.124730901e-04,-5.038134352e-04,3.514361493e-04,-1.523772858e-04,-5.875899650e-04,1.555250278e-05,-5.720374622e-04,-6.658815994e-05,-4.320255223e-04,-4.986136823e-04,-6.653251172e-04,-4.110052790e-05,-7.064256451e-04,-4.276807983e-04,-2.759031010e-04,-7.035838993e-04,-1.092095684e-03,-5.283998134e-05,-1.144935666e-03,-5.387993875e-04,-2.358287953e-04,-7.746281829e-04,-7.214867522e-04,-3.766678496e-04,-1.098154602e-03,-7.283591689e-04,-5.940645578e-05,-7.877656247e-04,-1.143117050e-03,4.984562714e-05,-1.093271422e-03,-7.762790418e-04,-1.311809126e-04,-9.074599543e-04,-2.633514988e-04,1.479889944e-05,-2.485525993e-04,-7.817844535e-04,-2.235093098e-04,-1.005293763e-03,-5.774087065e-04,1.758024063e-05,-5.598284659e-04,-8.181062926e-04,-3.489142534e-04,-1.167020546e-03,-4.530845699e-04,7.851867153e-05,-3.745658984e-04,-1.139088904e-03,-1.151645686e-04,-1.254253473e-03,-1.248537965e-03,-1.726440334e-04,-1.421181999e-03,-1.208834174e-03,-3.109517309e-05,-1.239929347e-03,-1.197885247e-03,-3.801402783e-04,-1.578025525e-03,-1.204953077e-03,-4.790198838e-05,-1.252855065e-03,5.387811534e-04,-9.676230563e-04,-4.288419029e-04,-4.553884088e-04,-2.938672413e-04,-7.492556500e-04,8.474361205e-07,-7.092135789e-04,-7.083661427e-04
-4.7,-1.083069589e-03,-3.140720224e-04,-1.397141611e-03,-6.878710845e-04,-2.657659819e-04,-9.536370664e-04,-8.806859395e-04,-8.448060776e-05,-9.651665473e-04,-5.244909247e-05,-1.501861446e-04,-2.026352371e-04,-7.700090504e-05,-2.596395570e-04,-3.366404620e-04,-6.522919272e-04,-1.911629034e-04,-8.434548306e-04,-7.205662138e-04,-1.772628134e-04,-8.978290272e-04,-1.245658984e-03,-1.135406224e-04,-1.359199607e-03,1.049761728e-05,-1.316989061e-04,-1.212012888e-04,-9.390939907e-04,-4.108506242e-05,-9.801790531e-04,-7.338922994e-04,-1.697506198e-04,-9.036429192e-04,-2.167795597e-03,2.492182488e-03,3.243868912e-04,-5.733740490e-04,3.352012902e-04,-2.381727588e-04,-6.329462114e-04,1.812603787e-05,-6.148201735e-04,-1.693193531e-04,-3.948400086e-04,-5.641593616e-04,-7.005326154e-04,-3.074823256e-05,-7.312808479e-04,-5.396756043e-04,-2.403905374e-04,-7.800661417e-04,-1.108972886e-03,-4.898500793e-05,-1.157957894e-03,-5.642500982e-04,-2.245394845e-04,-7.887895827e-04,-7.990618774e-04,-3.688850842e-04,-1.167946962e-03,-7.367791338e-04,-7.230560359e-05,-8.090847374e-04,-1.188965931e-03,5.509125996e-05,-1.133874671e-03,-7.934981975e-04,-1.372881752e-04,-9.307863728e-04,-2.613695345e-04,2.057902931e-05,-2.407905052e-04,-8.541481225e-04,-2.089407506e-04,-1.063088873e-03,-6.423839296e-04,2.847948568e-05,-6.139044440e-04,-8.784515845e-04,-3.482304027e-04,-1.226681987e-03,-5.074080749e-04,7.082741119e-05,-4.365806637e-04,-1.167131753e-03,-1.218413502e-04,-1.288973103e-03,-1.279072069e-03,-1.692984570e-04,-1.448370526e-03,-1.290812363e-03,-3.223759961e-05,-1.323049963e-03,-1.198716769e-03,-4.109646212e-04,-1.609681390e-03,-1.286968923e-03,2.188195999e-05,-1.265086963e-03,5.680234150e-04,-9.768604566e-04,-4.088370417e-04,-4.475758772e-04,-3.120228995e-04,-7.595987767e-04,1.696838374e-05,-6.751730027e-04,-6.582046189e-04
-4.6,-1.142424160e-03,-3.123994898e-04,-1.454823650e-03,-7.374568624e-04,-2.662020276e-04,-1.003658890e-03,-9.315597969e-04,-9.266821139e-05,-1.024228008e-03,-8.953919150e-05,-1.434170638e-04,-2.329562553e-04,-9.770568873e-05,-2.568330954e-04,-3.545387841e-04,-6.941082955e-04,-1.869161001e-04,-8.810243957e-04,-7.492222116e-04,-1.800861683e-04,-9.293083798e-04,-1.312267787e-03,-1.094552835e-04,-1.421723071e-03,-2.661359840e-05,-1.275304454e-04,-1.541440438e-04,-1.016738800e-03,-3.328308096e-05,-1.050021881e-03,-7.549902777e-04,-1.678893017e-04,-9.228795793e-04,-2.174787015e-03,2.607394271e-03,4.326072558e-04,-6.383671619e-04,3.165718941e-04,-3.217952679e-04,-6.748690407e-04,2.057681998e-05,-6.542922207e-04,-2.701602981e-04,-3.554428075e-04,-6.256031057e-04,-7.317972758e-04,-2.055960618e-05,-7.523568820e-04,-6.493313881e-04,-2.027913987e-04,-8.521227867e-04,-1.120317055e-03,-4.388708864e-05,-1.164204143e-03,-5.851393636e-04,-2.119114743e-04,-7.970508379e-04,-8.734126042e-04,-3.581817837e-04,-1.231594388e-03,-7.403040933e-04,-8.477753549e-05,-8.250816288e-04,-1.228213597e-03,5.979566386e-05,-1.168417933e-03,-8.070212797e-04,-1.428934142e-04,-9.499146939e-04,-2.565938318e-04,2.648625729e-05,-2.301075745e-04,-9.218097535e-04,-1.926350691e-04,-1.114444823e-03,-7.035765690e-04,3.878657769e-05,-6.647899914e-04,-9.341455130e-04,-3.451531060e-04,-1.279298619e-03,-5.592683880e-04,6.288765732e-05,-4.963807307e-04,-1.189399067e-03,-1.277553910e-04,-1.317154458e-03,-1.303384811e-03,-1.650127166e-04,-1.468397528e-03,-1.366189564e-03,-3.301385637e-05,-1.399203421e-03,-1.193507527e-03,-4.326593116e-04,-1.626166838e-03,-1.359707382e-03,8.924736133e-05,-1.270460021e-03,5.912728033e-04,-9.812437413e-04,-3.899709380e-04,-4.381339072e-04,-3.268992264e-04,-7.650331336e-04,3.508358144e-05,-6.390340983e-04,-6.039505168e-04
-4.5,-1.196004024e-03,-3.095677832e-04,-1.505571807e-03,-7.827898454e-04,-2.654119994e-04,-1.048201845e-03,-9.771511286e-04,-1.000982349e-04,-1.077249364e-03,-1.249105596e-04,-1.363136386e-04,-2.612241982e-04,-1.163554847e-04,-2.532592260e-04,-3.696147107e-04,-7.321945179e-04,-1.813709933e-04,-9.135655113e-04,-7.739245674e-04,-1.823772359e-04,-9.563018033e-04,-1.372846306e-03,-1.048333161e-04,-1.477679622e-03,-6.255602163e-05,-1.228618678e-04,-1.854178894e-04,-1.089563967e-03,-2.532413587e-05,-1.114888103e-03,-7.717138877e-04,-1.655143042e-04,-9.372281920e-04,-2.168387960e-03,2.703728236e-03,5.353402757e-04,-6.980924743e-04,2.954892534e-04,-4.026032209e-04,-7.133448788e-04,2.307617188e-05,-6.902687069e-04,-3.687852051e-04,-3.140439147e-04,-6.828291198e-04,-7.590318492e-04,-1.058967113e-05,-7.696215203e-04,-7.558685793e-04,-1.635142299e-04,-9.193828092e-04,-1.126293942e-03,-3.747420266e-05,-1.163768145e-03,-6.015255990e-04,-1.979868139e-04,-7.995124129e-04,-9.445945357e-04,-3.444905401e-04,-1.289085076e-03,-7.390375858e-04,-9.666467752e-05,-8.357022633e-04,-1.260793023e-03,6.389709764e-05,-1.196895925e-03,-8.167665834e-04,-1.479620382e-04,-9.647286216e-04,-2.491903249e-04,3.251117064e-05,-2.166791543e-04,-9.846506258e-04,-1.746022954e-04,-1.159252921e-03,-7.608303675e-04,4.848411479e-05,-7.123462527e-04,-9.850658587e-04,-3.396065506e-04,-1.324672409e-03,-6.088982081e-04,5.507959387e-05,-5.538186142e-04,-1.205918960e-03,-1.328437417e-04,-1.338762702e-03,-1.321449438e-03,-1.598310828e-04,-1.481280521e-03,-1.434666330e-03,-3.350833078e-05,-1.468174661e-03,-1.182515817e-03,-4.452274977e-04,-1.627743315e-03,-1.422883612e-03,1.536409198e-04,-1.269242692e-03,6.072805721e-04,-9.800340314e-04,-3.727534593e-04,-4.274713376e-04,-3.383524720e-04,-7.658238096e-04,5.395914633e-05,-6.008502919e-04,-5.468911456e-04
-4.4,-1.243954435e-03,-3.056425049e-04,-1.549596940e-03,-8.239723469e-04,-2.634216445e-04,-1.087393991e-03,-1.017220277e-03,-1.066549031e-04,-1.123875180e-03,-1.584900869e-04,-1.289115294e-04,-2.874016163e-04,-1.328425057e-04,-2.489687885e-04,-3.818112942e-04,-7.664297459e-04,-1.745509171e-04,-9.409806630e-04,-7.946919227e-04,-1.840824269e-04,-9.787743496e-04,-1.427383848e-03,-9.959967895e-05,-1.526983527e-03,-9.710224891e-05,-1.176843746e-04,-2.147866235e-04,-1.157401405e-03,-1.721424314e-05,-1.174615648e-03,-7.840107788e-04,-1.626647468e-04,-9.466755256e-04,-2.149782123e-03,2.780615805e-03,6.308336822e-04,-7.519708557e-04,2.719866810e-04,-4.799841747e-04,-7.483906790e-04,2.578935476e-05,-7.226013242e-04,-4.649106633e-04,-2.708549283e-04,-7.357655915e-04,-7.821992912e-04,-8.716595260e-07,-7.830709507e-04,-8.585528914e-04,-1.229701674e-04,-9.815230587e-04,-1.127110390e-03,-2.969772014e-05,-1.156808110e-03,-6.135326434e-04,-1.828059791e-04,-7.963386225e-04,-1.012671459e-03,-3.277759129e-04,-1.340447372e-03,-7.331282474e-04,-1.078217014e-04,-8.409499488e-04,-1.286685896e-03,6.732969830e-05,-1.219356197e-03,-8.226786058e-04,-1.524597925e-04,-9.751383984e-04,-2.393675031e-04,3.864081458e-05,-2.007266885e-04,-1.042586085e-03,-1.548787738e-04,-1.197464858e-03,-8.140294760e-04,5.757151601e-05,-7.564579599e-04,-1.031130503e-03,-3.315586701e-04,-1.362689173e-03,-6.565635555e-04,4.778901645e-05,-6.087745391e-04,-1.216747109e-03,-1.370615360e-04,-1.353808645e-03,-1.333292386e-03,-1.537916547e-04,-1.487084041e-03,-1.495990841e-03,-3.382117115e-05,-1.529812012e-03,-1.166079248e-03,-4.488103861e-04,-1.614889635e-03,-1.476323470e-03,2.145384302e-04,-1.261785040e-03,6.148627902e-04,-9.724417286e-04,-3.575789384e-04,-4.159943556e-04,-3.462785777e-04,-7.622729332e-04,7.230474278e-05,-5.606404710e-04,-4.883357282e-04
-4.3,-1.286469277e-03,-3.006943861e-04,-1.587163663e-03,-8.611480223e-04,-2.602654967e-04,-1.121413519e-03,-1.051584222e-03,-1.122313316e-04,-1.163815553e-03,-1.902313909e-04,-1.212438819e-04,-3.114752727e-04,-1.470872006e-04,-2.440141304e-04,-3.911013310e-04,-7.967414008e-04,-1.664746922e-04,-9.632160930e-04,-8.115749909e-04,-1.851481048e-04,-9.967230956e-04,-1.475911421e-03,-9.367954705e-05,-1.569590968e-03,-1.300420395e-04,-1.119906903e-04,-2.420327298e-04,-1.220115266e-03,-8.960842215e-06,-1.229076108e-03,-7.918683364e-04,-1.593801592e-04,-9.512484956e-04,-2.120241952e-03,2.837650244e-03,7.174082917e-04,-7.995675414e-04,2.462034473e-04,-5.533640942e-04,-7.800550664e-04,2.887253281e-05,-7.511825335e-04,-5.583029779e-04,-2.260821316e-04,-7.843851094e-04,-8.013183187e-04,8.584717372e-06,-7.927336014e-04,-9.567107883e-04,-8.156206494e-05,-1.038272853e-03,-1.123005628e-03,-2.053661837e-05,-1.143542246e-03,-6.213430078e-04,-1.664115006e-04,-7.877545084e-04,-1.077706103e-03,-3.080384809e-04,-1.385744584e-03,-7.227684902e-04,-1.181170734e-04,-8.408855635e-04,-1.305926267e-03,7.003035377e-05,-1.235895913e-03,-8.247302483e-04,-1.563532204e-04,-9.810834687e-04,-2.273727662e-04,4.485893146e-05,-1.825138348e-04,-1.095566197e-03,-1.335250994e-04,-1.229091296e-03,-8.630962653e-04,6.606358781e-05,-7.970326775e-04,-1.072293331e-03,-3.210193950e-04,-1.393312726e-03,-7.025487133e-04,4.139324921e-05,-6.611554641e-04,-1.221965057e-03,-1.403842536e-04,-1.362349311e-03,-1.338995318e-03,-1.469228317e-04,-1.485918150e-03,-1.549957552e-03,-3.406860328e-05,-1.584026155e-03,-1.144626806e-03,-4.436704007e-04,-1.588297206e-03,-1.519956821e-03,2.714444925e-04,-1.248512329e-03,6.129518254e-04,-9.576576095e-04,-3.447057842e-04,-4.040989703e-04,-3.506036936e-04,-7.547026638e-04,8.882598886e-05,-5.184116873e-04,-4.295856985e-04
-4.2,-1.323780724e-03,-2.947963830e-04,-1.618577107e-03,-8.944944814e-04,-2.559854876e-04,-1.150479969e-03,-1.080124114e-03,-1.167322664e-04,-1.196856380e-03,-2.201143452e-04,-1.133410327e-04,-3.334553779e-04,-1.590396007e-04,-2.384487589e-04,-3.974883597e-04,-8.231055199e-04,-1.571548663e-04,-9.802603862e-04,-8.246572055e-04,-1.855221244e-04,-1.010179330e-03,-1.518502511e-03,-8.699803880e-05,-1.605500550e-03,-1.611853863e-04,-1.057753133e-04,-2.669606996e-04,-1.277602305e-03,-5.732189989e-07,-1.278175524e-03,-7.953141217e-04,-1.557000687e-04,-9.510141904e-04,-2.081121554e-03,2.874607122e-03,7.934855681e-04,-8.406054465e-04,2.183865277e-04,-6.222189189e-04,-8.084195549e-04,3.247045182e-05,-7.759491031e-04,-6.487857899e-04,-1.799192465e-04,-8.287050363e-04,-8.164666281e-04,1.779377996e-05,-7.986728482e-04,-1.049745324e-03,-3.967373472e-05,-1.089419059e-03,-1.114243513e-03,-1.000164062e-05,-1.124245154e-03,-6.251900888e-04,-1.488526367e-04,-7.740427255e-04,-1.139752227e-03,-2.853203439e-04,-1.425072570e-03,-7.081940374e-04,-1.274339955e-04,-8.356280330e-04,-1.318605714e-03,7.194696522e-05,-1.246658749e-03,-8.229255769e-04,-1.596100861e-04,-9.825356630e-04,-2.134887083e-04,5.114646087e-05,-1.623422474e-04,-1.143577833e-03,-1.106227648e-04,-1.254200598e-03,-9.079895360e-04,7.398852199e-05,-8.340010140e-04,-1.108541654e-03,-3.080382357e-04,-1.416579890e-03,-7.471393665e-04,3.624541407e-05,-7.108939525e-04,-1.221680387e-03,-1.428086537e-04,-1.364489040e-03,-1.338695338e-03,-1.392429006e-04,-1.477938239e-03,-1.596408093e-03,-3.438083342e-05,-1.630788926e-03,-1.118681301e-03,-4.301821017e-04,-1.548863403e-03,-1.553811134e-03,3.238973485e-04,-1.229913785e-03,6.006444874e-04,-9.348950807e-04,-3.342505933e-04,-3.921668363e-04,-3.512742902e-04,-7.434411265e-04,1.022754987e-04,-4.741875474e-04,-3.719120487e-04
-4.1,-1.356149239e-03,-2.880208049e-04,-1.644170044e-03,-9.242160510e-04,-2.506295457e-04,-1.174845597e-03,-1.102792430e-03,-1.200765970e-04,-1.222869027e-03,-2.481456581e-04,-1.052302016e-04,-3.533758597e-04,-1.686814790e-04,-2.323269631e-04,-4.010084421e-04,-8.455450231e-04,-1.465980416e-04,-9.921430647e-04,-8.340558329e-04,-1.851554100e-04,-1.019211243e-03,-1.555274886e-03,-7.947951721e-05,-1.634754403e-03,-1.903658888e-04,-9.903448843e-05,-2.894003772e-04,-1.329792734e-03,7.937249518e-06,-1.321855485e-03,-7.944165121e-04,-1.516636067e-04,-9.460801188e-04,-2.033853839e-03,2.891471375e-03,8.576175363e-04,-8.749689646e-04,1.888788717e-04,-6.860900929e-04,-8.335989965e-04,3.671462250e-05,-7.968843740e-04,-7.362462811e-04,-1.325419516e-04,-8.687882327e-04,-8.277810911e-04,2.679301164e-05,-8.009880794e-04,-1.137149905e-03,2.339818934e-06,-1.134810086e-03,-1.101106430e-03,1.860718101e-06,-1.099245712e-03,-6.253501479e-04,-1.301906965e-04,-7.555408444e-04,-1.198848439e-03,-2.597108703e-04,-1.458559310e-03,-6.896841252e-04,-1.356706042e-04,-8.253547294e-04,-1.324879375e-03,7.304679459e-05,-1.251832580e-03,-8.173027177e-04,-1.621997924e-04,-9.795025100e-04,-1.980291831e-04,5.748210511e-05,-1.405470780e-04,-1.186647772e-03,-8.627023504e-05,-1.272918007e-03,-9.487034780e-04,8.138558754e-05,-8.673178904e-04,-1.139895695e-03,-2.927016373e-04,-1.432597332e-03,-7.906056939e-04,3.265865753e-05,-7.579470364e-04,-1.216028466e-03,-1.443521357e-04,-1.360380602e-03,-1.332582507e-03,-1.307627681e-04,-1.463345275e-03,-1.635235285e-03,-3.489691471e-05,-1.670132200e-03,-1.088854339e-03,-4.088262603e-04,-1.497680599e-03,-1.578005611e-03,3.714761313e-04,-1.206529480e-03,5.772456635e-04,-9.034425206e-04,-3.261968571e-04,-3.805651856e-04,-3.482462794e-04,-7.288114650e-04,1.114951066e-04,-4.280333623e-04,-3.165382557e-04
-4,-1.383854256e-03,-2.804367226e-04,-1.664290979e-03,-9.505368642e-04,-2.442501863e-04,-1.194787050e-03,-1.119618495e-03,-1.221995439e-04,-1.241818039e-03,-2.743597021e-04,-9.693518207e-05,-3.712948842e-04,-1.760283783e-04,-2.257034132e-04,-4.017317915e-04,-8.641252862e-04,-1.348083964e-04,-9.989336827e-04,-8.399227601e-04,-1.840035436e-04,-1.023926304e-03,-1.586392058e-03,-7.104704724e-05,-1.657439106e-03,-2.174437892e-04,-9.176598361e-05,-3.092097728e-04,-1.376650946e-03,1.655700300e-05,-1.360093943e-03,-7.892848859e-04,-1.473091094e-04,-9.365939953e-04,-1.979943948e-03,2.888465367e-03,9.085214194e-04,-9.027007799e-04,1.580969115e-04,-7.446038683e-04,-8.557408103e-04,4.172215057e-05,-8.140186597e-04,-8.206382378e-04,-8.410498237e-05,-9.047432202e-04,-8.354541817e-04,3.564066873e-05,-7.998135130e-04,-1.218517291e-03,4.415979093e-05,-1.174357500e-03,-1.083890771e-03,1.496578462e-05,-1.068924986e-03,-6.221339695e-04,-1.105043626e-04,-7.326383321e-04,-1.255013625e-03,-2.313509504e-04,-1.486364575e-03,-6.675610333e-04,-1.427396492e-04,-8.103006825e-04,-1.324970663e-03,7.332305551e-05,-1.251647608e-03,-8.079362459e-04,-1.640939163e-04,-9.720301622e-04,-1.813344685e-04,6.384278420e-05,-1.174916843e-04,-1.224845008e-03,-6.057994232e-05,-1.285424950e-03,-9.852664355e-04,8.830244153e-05,-8.969639939e-04,-1.166408729e-03,-2.751305583e-04,-1.441539287e-03,-8.331866033e-04,3.089215121e-05,-8.022944521e-04,-1.205174999e-03,-1.450505138e-04,-1.350225513e-03,-1.320894178e-03,-1.214911563e-04,-1.442385334e-03,-1.666388824e-03,-3.575780304e-05,-1.702146627e-03,-1.055833707e-03,-3.801832875e-04,-1.436016994e-03,-1.592744826e-03,4.138065950e-04,-1.178938231e-03,5.423049426e-04,-8.627201156e-04,-3.204151729e-04,-3.696474291e-04,-3.414763748e-04,-7.111238039e-04,1.154467091e-04,-3.800706692e-04,-2.646239601e-04
-3.9,-1.407185556e-03,-2.721076470e-04,-1.679293203e-03,-9.736941768e-04,-2.369030647e-04,-1.210597242e-03,-1.130710974e-03,-1.230544071e-04,-1.253765381e-03,-2.988183827e-04,-8.847600240e-05,-3.872943851e-04,-1.811301832e-04,-2.186327668e-04,-3.997629500e-04,-8.789471165e-04,-1.217944531e-04,-1.000741570e-03,-8.424439129e-04,-1.820282685e-04,-1.024472181e-03,-1.612062672e-03,-6.162289878e-05,-1.673685571e-03,-2.423079001e-04,-8.396897483e-05,-3.262768749e-04,-1.418175309e-03,2.527023780e-05,-1.392905071e-03,-7.800683825e-04,-1.426737873e-04,-9.227421698e-04,-1.920949192e-03,2.866064360e-03,9.451151685e-04,-9.239926976e-04,1.265021940e-04,-7.974905036e-04,-8.750226609e-04,4.759529175e-05,-8.274273691e-04,-9.019798759e-04,-3.474153331e-05,-9.367214092e-04,-8.397266822e-04,4.441217054e-05,-7.953145116e-04,-1.293543204e-03,8.550727152e-05,-1.208035932e-03,-1.062903177e-03,2.919085202e-05,-1.033712325e-03,-6.158778098e-04,-8.989455494e-05,-7.057723648e-04,-1.308243435e-03,-2.004346512e-04,-1.508678086e-03,-6.421875138e-04,-1.485678976e-04,-7.907554114e-04,-1.319172260e-03,7.279822338e-05,-1.246374037e-03,-7.949384498e-04,-1.652669250e-04,-9.602053747e-04,-1.637648687e-04,7.020400626e-05,-9.356086243e-05,-1.258280658e-03,-3.367684865e-05,-1.291957507e-03,-1.017738201e-03,9.479205256e-05,-9.229461480e-04,-1.188165504e-03,-2.554792906e-04,-1.443644795e-03,-8.750757842e-04,3.114002982e-05,-8.439357544e-04,-1.189317946e-03,-1.449545445e-04,-1.334272490e-03,-1.303906927e-03,-1.114407155e-04,-1.415347642e-03,-1.689880277e-03,-3.709877513e-05,-1.726979052e-03,-1.020358465e-03,-3.449281176e-04,-1.365286583e-03,-1.598311229e-03,4.505639001e-04,-1.147747328e-03,4.956406801e-04,-8.123306267e-04,-3.166899466e-04,-3.597509430e-04,-3.309199476e-04,-6.906708906e-04,1.132323299e-04,-3.304781165e-04,-2.172457866e-04
-3.8,-1.426435179e-03,-2.630894343e-04,-1.689524613e-03,-9.939317337e-04,-2.286455041e-04,-1.222577238e-03,-1.136256509e-03,-1.226137881e-04,-1.258870297e-03,-3.216090226e-04,-7.986866132e-05,-4.014776839e-04,-1.840692898e-04,-2.111693594e-04,-3.952386492e-04,-8.901386074e-04,-1.075768782e-04,-9.977154855e-04,-8.418365752e-04,-1.791988249e-04,-1.021035400e-03,-1.632536525e-03,-5.113112415e-05,-1.683667649e-03,-2.648760330e-04,-7.564431131e-05,-3.405203443e-04,-1.454396468e-03,3.405879186e-05,-1.420337677e-03,-7.669526078e-04,-1.377935821e-04,-9.047461899e-04,-1.858444013e-03,2.824993552e-03,9.665495396e-04,-9.391694176e-04,9.457202507e-05,-8.445973925e-04,-8.916484818e-04,5.442167492e-05,-8.372268069e-04,-9.803450344e-04,1.543545837e-05,-9.649095760e-04,-8.408779693e-04,5.319608073e-05,-7.876818885e-04,-1.362025206e-03,1.261427612e-04,-1.235882445e-03,-1.038456270e-03,4.437721688e-05,-9.940790535e-04,-6.069338709e-04,-6.848833644e-05,-6.754222073e-04,-1.358507604e-03,-1.672080600e-04,-1.525715664e-03,-6.139616881e-04,-1.530953730e-04,-7.670570611e-04,-1.307842746e-03,7.152420924e-05,-1.236318537e-03,-7.784591648e-04,-1.656970011e-04,-9.441561659e-04,-1.456927812e-04,7.654034176e-05,-6.915243944e-05,-1.287105476e-03,-5.697592220e-06,-1.292803068e-03,-1.046205349e-03,1.009094931e-04,-9.452958561e-04,-1.205277027e-03,-2.339363263e-04,-1.439213353e-03,-9.164105045e-04,3.352402296e-05,-8.828864816e-04,-1.168687514e-03,-1.441256136e-04,-1.312813128e-03,-1.281927523e-03,-1.006335744e-04,-1.382561098e-03,-1.705785917e-03,-3.904174579e-05,-1.744827662e-03,-9.831785641e-04,-3.038318421e-04,-1.287010406e-03,-1.595055880e-03,4.814737110e-04,-1.113582169e-03,4.373477352e-04,-7.520944638e-04,-3.147467286e-04,-3.511926975e-04,-3.165349388e-04,-6.677276363e-04,1.041035664e-04,-2.794798025e-04,-1.753762361e-04
-3.7,-1.441889820e-03,-2.534285902e-04,-1.695318410e-03,-1.011493162e-03,-2.195351192e-04,-1.231028281e-03,-1.136514760e-03,-1.208702437e-04,-1.257385004e-03,-3.428401623e-04,-7.112512510e-05,-4.139652874e-04,-1.849565732e-04,-2.033670520e-04,-3.883236252e-04,-8.978480550e-04,-9.219420953e-05,-9.900422645e-04,-8.383446839e-04,-1.754931239e-04,-1.013837808e-03,-1.648096947e-03,-3.950263463e-05,-1.687599582e-03,-2.850943222e-04,-6.679516126e-05,-3.518894835e-04,-1.485374427e-03,4.290204634e-05,-1.442472381e-03,-7.501546785e-04,-1.327032259e-04,-8.828579044e-04,-1.793977375e-03,2.766212296e-03,9.722349211e-04,-9.486665371e-04,6.277461616e-05,-8.858919209e-04,-9.058434879e-04,6.227531979e-05,-8.435681681e-04,-1.055849104e-03,6.633061036e-05,-9.895184934e-04,-8.392156839e-04,6.209033864e-05,-7.771253452e-04,-1.423857939e-03,1.658622235e-04,-1.257995715e-03,-1.010863464e-03,6.033312208e-05,-9.505303422e-04,-5.956612182e-04,-4.644098837e-05,-6.421022066e-04,-1.405748935e-03,-1.319652602e-04,-1.537714195e-03,-5.833102353e-04,-1.562744235e-04,-7.395846588e-04,-1.291400145e-03,6.958103478e-05,-1.221819111e-03,-7.586844369e-04,-1.653668686e-04,-9.240513055e-04,-1.274940827e-04,8.282612316e-05,-4.466795959e-05,-1.311506330e-03,2.321148573e-05,-1.288294844e-03,-1.070775349e-03,1.067089505e-04,-9.640663980e-04,-1.217872084e-03,-2.107262619e-04,-1.428598346e-03,-9.572644509e-04,3.808994135e-05,-9.191745096e-04,-1.143544002e-03,-1.426310588e-04,-1.286175061e-03,-1.255283929e-03,-8.910621406e-05,-1.344390143e-03,-1.714246788e-03,-4.168853071e-05,-1.755935318e-03,-9.450041960e-04,-2.577731694e-04,-1.202777365e-03,-1.583386395e-03,5.063129189e-04,-1.077073477e-03,3.677911648e-04,-6.820654931e-04,-3.142743284e-04,-3.442655904e-04,-2.982878041e-04,-6.425533945e-04,8.746231010e-05,-2.273263972e-04,-1.398640871e-04
-3.6,-1.453824149e-03,-2.431612333e-04,-1.696985383e-03,-1.026615709e-03,-2.096287335e-04,-1.236244443e-03,-1.131811122e-03,-1.178363062e-04,-1.249647428e-03,-3.626363518e-04,-6.225365792e-05,-4.248900097e-04,-1.839264434e-04,-1.952792186e-04,-3.792056620e-04,-9.022390251e-04,-7.570520470e-05,-9.779442298e-04,-8.322329819e-04,-1.708987682e-04,-1.003131750e-03,-1.659050510e-03,-2.668185390e-05,-1.685732363e-03,-3.029363308e-04,-5.742779379e-05,-3.603641246e-04,-1.511195322e-03,5.177701081e-05,-1.459418311e-03,-7.299178611e-04,-1.274364015e-04,-8.573542626e-04,-1.729031216e-03,2.690891223e-03,9.618600070e-04,-9.530077251e-04,3.155401821e-05,-9.214537069e-04,-9.178489116e-04,7.121822613e-05,-8.466306855e-04,-1.128633076e-03,1.178620092e-04,-1.010771067e-03,-8.350659487e-04,7.119866445e-05,-7.638672842e-04,-1.479026200e-03,2.044913531e-04,-1.274534847e-03,-9.804341533e-04,7.683807790e-05,-9.035960754e-04,-5.824175798e-04,-2.393581408e-05,-6.063533939e-04,-1.449885226e-03,-9.504146111e-05,-1.544926688e-03,-5.506810995e-04,-1.580687208e-04,-7.087498203e-04,-1.270313790e-03,6.707506769e-05,-1.203238722e-03,-7.358346299e-04,-1.642645464e-04,-9.000991763e-04,-1.095399694e-04,8.903629558e-05,-2.050367382e-05,-1.331703206e-03,5.289843995e-05,-1.278804766e-03,-1.091570858e-03,1.122412037e-04,-9.793296544e-04,-1.226088742e-03,-1.861095665e-04,-1.412198309e-03,-9.976458412e-04,4.480787613e-05,-9.528379651e-04,-1.114174239e-03,-1.405399068e-04,-1.254714146e-03,-1.224317325e-03,-7.691423910e-05,-1.301231564e-03,-1.715465853e-03,-4.511663004e-05,-1.760582483e-03,-9.064570717e-04,-2.077560637e-04,-1.114213135e-03,-1.563752483e-03,5.249102746e-04,-1.038842209e-03,2.875913573e-04,-6.025304351e-04,-3.149390778e-04,-3.392359954e-04,-2.761602314e-04,-6.153962268e-04,6.285790407e-05,-1.742764425e-04,-1.114185384e-04
-3.5,-1.462495936e-03,-2.323128576e-04,-1.694808793e-03,-1.039524962e-03,-1.989817140e-04,-1.238506676e-03,-1.122528398e-03,-1.135437507e-04,-1.236072149e-03,-3.811334588e-04,-5.325941172e-05,-4.343928705e-04,-1.811324136e-04,-1.869587632e-04,-3.680911767e-04,-9.034869415e-04,-5.818881155e-05,-9.616757530e-04,-8.237811634e-04,-1.654138364e-04,-9.891949998e-04,-1.665716210e-03,-1.263295549e-05,-1.678349166e-03,-3.184025571e-04,-4.755224979e-05,-3.659548069e-04,-1.531968792e-03,6.065865231e-05,-1.471310140e-03,-7.065069954e-04,-1.220258979e-04,-8.285328933e-04,-1.664985555e-03,2.600383340e-03,9.353977852e-04,-9.527856748e-04,1.326240873e-06,-9.514594339e-04,-9.279158616e-04,8.130110514e-05,-8.466147564e-04,-1.198848771e-03,1.699551010e-04,-1.028893670e-03,-8.287644380e-04,8.062656797e-05,-7.481378700e-04,-1.527597436e-03,2.418799096e-04,-1.285717526e-03,-9.474709090e-04,9.364978948e-05,-8.538211195e-04,-5.675517236e-04,-1.182113927e-06,-5.687338375e-04,-1.490814221e-03,-5.680422778e-05,-1.547618448e-03,-5.165363139e-04,-1.584527512e-04,-6.749890651e-04,-1.245094948e-03,6.413612003e-05,-1.180958828e-03,-7.101624036e-04,-1.623839821e-04,-8.725463856e-04,-9.219001286e-05,9.514725849e-05,2.957245623e-06,-1.347947381e-03,8.321135285e-05,-1.264736029e-03,-1.108725305e-03,1.175515749e-04,-9.911737301e-04,-1.230069519e-03,-1.603770067e-04,-1.390446525e-03,-1.037501780e-03,5.357651063e-05,-9.839252696e-04,-1.080887581e-03,-1.379197821e-04,-1.218807363e-03,-1.189376383e-03,-6.413665032e-05,-1.253513033e-03,-1.709703058e-03,-4.937800124e-05,-1.759081059e-03,-8.680352216e-04,-1.549231020e-04,-1.022958324e-03,-1.536633023e-03,5.371489357e-04,-9.994840872e-04,1.976058095e-04,-5.139990037e-04,-3.163931942e-04,-3.363408389e-04,-2.501582054e-04,-5.864990442e-04,2.998548484e-05,-1.205832553e-04,-9.059777042e-05
