Time,S1D1HbO,S1D1HbR,S1D1HbT,S2D2HbO,S2D2HbR,S2D2HbT,S3D3HbO,S3D3HbR,S3D3HbT,S4D4HbO,S4D4HbR,S4D4HbT,S5D5HbO,S5D5HbR,S5D5HbT,S6D6HbO,S6D6HbR,S6D6HbT,S7D7HbO,S7D7HbR,S7D7HbT,S8D8HbO,S8D8HbR,S8D8HbT,S9D9HbO,S9D9HbR,S9D9HbT,S10D10HbO,S10D10HbR,S10D10HbT,S11D11HbO,S11D11HbR,S11D11HbT,S12D12HbO,S12D12HbR,S12D12HbT,S13D13HbO,S13D13HbR,S13D13HbT,S14D14HbO,S14D14HbR,S14D14HbT,S15D15HbO,S15D15HbR,S15D15HbT,S16D16HbO,S16D16HbR,S16D16HbT,S17D17HbO,S17D17HbR,S17D17HbT,S18D18HbO,S18D18HbR,S18D18HbT,S19D19HbO,S19D19HbR,S19D19HbT,S20D20HbO,S20D20HbR,S20D20HbT,S21D21HbO,S21D21HbR,S21D21HbT,S22D22HbO,S22D22HbR,S22D22HbT,S23D23HbO,S23D23HbR,S23D23HbT,S24D24HbO,S24D24HbR,S24D24HbT,S25D25HbO,S25D25HbR,S25D25HbT,S26D26HbO,S26D26HbR,S26D26HbT,S27D27HbO,S27D27HbR,S27D27HbT,S28D28HbO,S28D28HbR,S28D28HbT,S29D29HbO,S29D29HbR,S29D29HbT,S30D30HbO,S30D30HbR,S30D30HbT,S31D31HbO,S31D31HbR,S31D31HbT,S32D32HbO,S32D32HbR,S32D32HbT,S33D33HbO,S33D33HbR,S33D33HbT,S34D34HbO,S34D34HbR,S34D34HbT,S35D35HbO,S35D35HbR,S35D35HbT,S36D36HbO,S36D36HbR,S36D36HbT,
-10,-1.275132521e-04,-2.070334126e-04,-3.345466647e-04,-2.911155357e-04,8.875014827e-05,-2.023653874e-04,-2.696659122e-04,-4.087839764e-05,-3.105443098e-04,-3.076636340e-04,1.355450649e-06,-3.063081834e-04,-3.014580828e-04,-7.504623835e-05,-3.765043212e-04,-1.121522731e-04,1.727628796e-04,6.061060650e-05,-3.367264258e-05,1.948264207e-04,1.611537782e-04,-2.534148057e-04,4.200186756e-04,1.666038698e-04,-1.727395212e-04,1.431804068e-04,-2.955911442e-05,-1.862062897e-04,1.604236046e-04,-2.578268510e-05,-2.233904426e-04,-1.547272948e-06,-2.249377156e-04,4.910450701e-04,3.445118295e-05,5.254962531e-04,1.345915389e-03,-5.237696788e-04,8.221457106e-04,1.140138736e-03,-5.233744118e-04,6.167643245e-04,8.961130436e-04,-4.315438024e-04,4.645692412e-04,4.480481999e-04,2.616534875e-05,4.742135486e-04,7.655661515e-04,-3.053329830e-05,7.350328532e-04,-4.196747172e-04,2.767694882e-04,-1.429052290e-04,-3.396285793e-04,5.165102390e-04,1.768816597e-04,-6.030321602e-04,3.213124348e-04,-2.817197254e-04,-1.782195444e-04,1.023820967e-04,-7.583744769e-05,-5.102821161e-04,2.786827327e-04,-2.315993834e-04,-4.409147261e-04,1.129890114e-04,-3.279257148e-04,6.442038125e-04,-4.071441480e-05,6.034893977e-04,4.276526001e-04,1.245252513e-04,5.521778514e-04,7.515325382e-04,-2.544834387e-04,4.970490995e-04,8.531116222e-04,2.746027912e-05,8.805719013e-04,5.426762906e-04,-1.631242028e-04,3.795520878e-04,3.192998769e-05,1.308531671e-04,1.627831548e-04,-1.709716128e-03,6.129500351e-04,-1.096766093e-03,2.569120708e-04,9.885033258e-05,3.557624034e-04,-2.758782017e-04,3.426991269e-04,6.682092528e-05,2.981165631e-04,-2.159715172e-05,2.765194114e-04,2.570264177e-04,9.348848691e-06,2.663752664e-04,-4.697653032e-05,1.873503411e-04,1.403738108e-04,1.613444371e-04,-7.750025501e-05,8.384418212e-05
-9.9,-1.291375564e-04,-2.038697346e-04,-3.330072910e-04,-2.916642444e-04,9.117355244e-05,-2.004906919e-04,-2.821739359e-04,-3.543958550e-05,-3.176135214e-04,-3.021270490e-04,5.625550281e-06,-2.965014987e-04,-2.975865653e-04,-6.693284827e-05,-3.645194136e-04,-1.143714018e-04,1.709413862e-04,5.656998449e-05,-3.701103470e-05,1.923560080e-04,1.553449733e-04,-2.581863201e-04,4.117548893e-04,1.535685691e-04,-1.738867376e-04,1.448088881e-04,-2.907784946e-05,-1.820958053e-04,1.572006560e-04,-2.489514927e-05,-2.262650797e-04,4.876422812e-06,-2.213886569e-04,4.454367695e-04,5.448188073e-05,4.999186502e-04,1.282650863e-03,-4.899261464e-04,7.927247163e-04,1.093058917e-03,-5.048875600e-04,5.881713571e-04,8.607389286e-04,-4.123845389e-04,4.483543897e-04,4.254848584e-04,3.512494048e-05,4.606097988e-04,7.483380292e-04,-2.415635477e-05,7.241816744e-04,-4.325575755e-04,2.810258161e-04,-1.515317595e-04,-3.387966534e-04,5.115335060e-04,1.727368527e-04,-6.028605655e-04,3.139712598e-04,-2.888893057e-04,-1.645166914e-04,9.833994108e-05,-6.617675031e-05,-5.161470059e-04,2.722435587e-04,-2.439034472e-04,-4.482311379e-04,1.114191496e-04,-3.368119883e-04,6.280280360e-04,-4.063852314e-05,5.873895129e-04,3.917184908e-04,1.314410549e-04,5.231595457e-04,7.178122739e-04,-2.433835434e-04,4.744287305e-04,8.311439740e-04,7.481115585e-06,8.386250896e-04,5.181860958e-04,-1.492016221e-04,3.689844737e-04,2.446393300e-05,1.298262994e-04,1.542902324e-04,-1.693496735e-03,6.160457261e-04,-1.077451009e-03,2.728544890e-04,8.749968236e-05,3.603541713e-04,-2.666591520e-04,3.349297240e-04,6.827057202e-05,2.935178798e-04,-2.207331955e-05,2.714445603e-04,2.647808471e-04,4.320385028e-06,2.691012321e-04,-4.383197600e-05,1.861934473e-04,1.423614713e-04,1.527629563e-04,-7.247417323e-05,8.028878305e-05
-9.8,-1.295385059e-04,-2.005639383e-04,-3.301024442e-04,-2.909642866e-04,9.319887958e-05,-1.977654070e-04,-2.936544731e-04,-2.984598552e-05,-3.235004586e-04,-2.955128515e-04,9.589728187e-06,-2.859231233e-04,-2.932369770e-04,-5.890692095e-05,-3.521438980e-04,-1.158375161e-04,1.687738561e-04,5.293634003e-05,-4.043774682e-05,1.896287355e-04,1.491909887e-04,-2.630283408e-04,4.033490488e-04,1.403207080e-04,-1.746535025e-04,1.459431396e-04,-2.871036295e-05,-1.779025111e-04,1.534481176e-04,-2.445439341e-05,-2.277484270e-04,1.034947308e-05,-2.173989539e-04,4.005882556e-04,7.336097213e-05,4.739492278e-04,1.217344111e-03,-4.558400876e-04,7.615040230e-04,1.043992330e-03,-4.850547499e-04,5.589375800e-04,8.239269241e-04,-3.923190274e-04,4.316078968e-04,4.032784504e-04,4.376911803e-05,4.470475684e-04,7.309656124e-04,-1.791073013e-05,7.130548822e-04,-4.456291345e-04,2.854812544e-04,-1.601478801e-04,-3.381131966e-04,5.063332450e-04,1.682200484e-04,-6.017754137e-04,3.063472323e-04,-2.954281814e-04,-1.510436938e-04,9.417644052e-05,-5.686725328e-05,-5.206481940e-04,2.656275840e-04,-2.550206101e-04,-4.543943096e-04,1.102052118e-04,-3.441890977e-04,6.121774788e-04,-4.057810687e-05,5.715993719e-04,3.548121306e-04,1.388366526e-04,4.936487832e-04,6.826404784e-04,-2.311661000e-04,4.514743784e-04,8.061261008e-04,-1.087154366e-05,7.952545571e-04,4.930007886e-04,-1.344914810e-04,3.585093076e-04,1.771294056e-05,1.279033060e-04,1.456162465e-04,-1.674952156e-03,6.174121965e-04,-1.057539959e-03,2.877880616e-04,7.614145715e-05,3.639295188e-04,-2.570182091e-04,3.267738220e-04,6.975561296e-05,2.886344525e-04,-2.252106402e-05,2.661133885e-04,2.724551643e-04,-8.609570737e-07,2.715942073e-04,-4.026031709e-05,1.845298660e-04,1.442695489e-04,1.444548187e-04,-6.803282896e-05,7.642198977e-05
-9.7,-1.288209673e-04,-1.971007361e-04,-3.259217034e-04,-2.891489186e-04,9.483843094e-05,-1.943104876e-04,-3.040675579e-04,-2.410442101e-05,-3.281719789e-04,-2.879090330e-04,1.324106265e-05,-2.746679703e-04,-2.884319574e-04,-5.098818410e-05,-3.394201415e-04,-1.166300810e-04,1.662646363e-04,4.963455529e-05,-4.400546019e-05,1.866650048e-04,1.426595446e-04,-2.679430762e-04,3.948235603e-04,1.268804841e-04,-1.750948403e-04,1.465892196e-04,-2.850562068e-05,-1.737674433e-04,1.492198320e-04,-2.454761136e-05,-2.279746839e-04,1.488447370e-05,-2.130902102e-04,3.566294890e-04,9.107141189e-05,4.477009009e-04,1.150257873e-03,-4.216708196e-04,7.285870531e-04,9.930484586e-04,-4.639123369e-04,5.291361217e-04,7.857516352e-04,-3.714128131e-04,4.143388220e-04,3.814008587e-04,5.206724492e-05,4.334681036e-04,7.133469804e-04,-1.180003967e-05,7.015469408e-04,-4.588815672e-04,2.901044151e-04,-1.687771521e-04,-3.377378180e-04,5.009078226e-04,1.631700045e-04,-5.997902261e-04,2.984741272e-04,-3.013160989e-04,-1.378847400e-04,8.990803755e-05,-4.797670242e-05,-5.238138029e-04,2.588698127e-04,-2.649439901e-04,-4.594125177e-04,1.093368159e-04,-3.500757018e-04,5.965842435e-04,-4.051536095e-05,5.560688825e-04,3.170237746e-04,1.466796843e-04,4.637034589e-04,6.461320869e-04,-2.179261417e-04,4.282059451e-04,7.780815637e-04,-2.730975660e-05,7.507718071e-04,4.671222924e-04,-1.190342121e-04,3.480880803e-04,1.161843408e-05,1.250878249e-04,1.367062590e-04,-1.654182373e-03,6.169859062e-04,-1.037196467e-03,3.015101894e-04,6.485377683e-05,3.663639662e-04,-2.470882613e-04,3.182438838e-04,7.115562254e-05,2.834779160e-04,-2.293047358e-05,2.605474424e-04,2.798303001e-04,-6.125574795e-06,2.737047253e-04,-3.632370187e-05,1.823404343e-04,1.460167324e-04,1.363671144e-04,-6.419980335e-05,7.216731102e-05
-9.6,-1.271073866e-04,-1.934677329e-04,-3.205751195e-04,-2.863648395e-04,9.611056484e-05,-1.902542747e-04,-3.133880702e-04,-1.822385273e-05,-3.316119229e-04,-2.794178460e-04,1.657647662e-05,-2.628413694e-04,-2.831997109e-04,-4.319630676e-05,-3.263960177e-04,-1.168411155e-04,1.634231234e-04,4.658200788e-05,-4.776868730e-05,1.834859341e-04,1.357172468e-04,-2.729350313e-04,3.862004662e-04,1.132654349e-04,-1.752712336e-04,1.467567415e-04,-2.851449207e-05,-1.698312232e-04,1.445743271e-04,-2.525689611e-05,-2.270891255e-04,1.850331289e-05,-2.085858126e-04,3.136711358e-04,1.076132149e-04,4.212843507e-04,1.081660244e-03,-3.875660247e-04,6.940942195e-04,9.403433610e-04,-4.415017447e-04,4.988416163e-04,7.462779941e-04,-3.497259652e-04,3.965520290e-04,3.598075387e-04,5.999613074e-05,4.198036695e-04,6.953734287e-04,-5.824144569e-06,6.895492842e-04,-4.723090501e-04,2.948600446e-04,-1.774490055e-04,-3.378284893e-04,4.952573866e-04,1.574288973e-04,-5.969289032e-04,2.903871733e-04,-3.065417299e-04,-1.251281106e-04,8.555367455e-05,-3.957443607e-05,-5.256919697e-04,2.520075404e-04,-2.736844293e-04,-4.633082731e-04,1.087997890e-04,-3.545084841e-04,5.811775866e-04,-4.043012356e-05,5.407474630e-04,2.784592273e-04,1.549204530e-04,4.333796803e-04,6.084008553e-04,-2.037608624e-04,4.046399928e-04,7.470170550e-04,-4.152896202e-05,7.054880930e-04,4.405423167e-04,-1.028729148e-04,3.376694019e-04,6.109477215e-06,1.213955497e-04,1.275050269e-04,-1.631318454e-03,6.147264902e-04,-1.016591963e-03,3.138227395e-04,5.371101843e-05,3.675337579e-04,-2.370196726e-04,3.093688609e-04,7.234918828e-05,2.780569674e-04,-2.329692152e-05,2.547600459e-04,2.866932595e-04,-1.140483168e-05,2.752884279e-04,-3.209613693e-05,1.796159924e-04,1.475198555e-04,1.284453666e-04,-6.099605226e-05,6.744931434e-05
-9.5,-1.245354910e-04,-1.896551674e-04,-3.141906584e-04,-2.827709502e-04,9.703950832e-05,-1.857314419e-04,-3.216063740e-04,-1.221559394e-05,-3.338219679e-04,-2.701546039e-04,1.959701953e-05,-2.505575844e-04,-2.775747420e-04,-3.555054438e-05,-3.131252864e-04,-1.165740765e-04,1.602638659e-04,4.368978942e-05,-5.178352622e-05,1.801134224e-04,1.283298962e-04,-2.780109077e-04,3.775012724e-04,9.949036470e-05,-1.752489320e-04,1.464588345e-04,-2.879009744e-05,-1.662332987e-04,1.395741216e-04,-2.665917710e-05,-2.252478993e-04,2.123689910e-05,-2.040110002e-04,2.718066856e-04,1.229997531e-04,3.948064387e-04,1.011820974e-03,-3.536594196e-04,6.581615541e-04,8.859980100e-04,-4.178695555e-04,4.681284545e-04,7.055599510e-04,-3.273124971e-04,3.782474538e-04,3.384393220e-04,6.753992170e-05,4.059792437e-04,6.769328429e-04,1.954084056e-08,6.769523837e-04,-4.859079478e-04,2.997094532e-04,-1.861984946e-04,-3.385399605e-04,4.893839522e-04,1.508439917e-04,-5.932256813e-04,2.821228795e-04,-3.111028018e-04,-1.128662877e-04,8.113462971e-05,-3.173165795e-05,-5.263495154e-04,2.450798560e-04,-2.812696594e-04,-4.661177533e-04,1.085766791e-04,-3.575410742e-04,5.658844609e-04,-4.030026101e-05,5.255841999e-04,2.392383781e-04,1.634936486e-04,4.027320268e-04,5.695592011e-04,-1.887687220e-04,3.807904791e-04,7.129215618e-04,-5.321672397e-05,6.597048378e-04,4.132431694e-04,-8.605522238e-05,3.271879470e-04,1.101372548e-06,1.168554162e-04,1.179567888e-04,-1.606525488e-03,6.106209583e-04,-9.959045298e-04,3.245338412e-04,4.278232833e-05,3.673161695e-04,-2.269790946e-04,3.001945702e-04,7.321547561e-05,2.723767009e-04,-2.362045280e-05,2.487562481e-04,2.928389198e-04,-1.663230382e-05,2.762066159e-04,-2.766478458e-05,1.763581989e-04,1.486934143e-04,1.206336269e-04,-5.843937392e-05,6.219425303e-05
-9.4,-1.212561532e-04,-1.856555173e-04,-3.069116705e-04,-2.785376089e-04,9.765519629e-05,-1.808824126e-04,-3.287287997e-04,-6.093328948e-06,-3.348221287e-04,-2.602467467e-04,2.230816296e-05,-2.379385837e-04,-2.715988964e-04,-2.806928441e-05,-2.996681808e-04,-1.159429525e-04,1.568066212e-04,4.086366867e-05,-5.610782499e-05,1.765702450e-04,1.204624201e-04,-2.831798414e-04,3.687468713e-04,8.556702983e-05,-1.751005302e-04,1.457120487e-04,-2.938848151e-05,-1.631115077e-04,1.342849546e-04,-2.882655316e-05,-2.226180840e-04,2.312483783e-05,-1.994932462e-04,2.311139101e-04,1.372545973e-04,3.683685074e-04,9.410072154e-04,-3.200700339e-04,6.209371815e-04,8.301364984e-04,-3.930675441e-04,4.370689543e-04,6.636400988e-04,-3.042206254e-04,3.594194734e-04,3.172238083e-04,7.468986290e-05,3.919136712e-04,6.579117227e-04,5.735221140e-06,6.636469438e-04,-4.996778572e-04,3.046108884e-04,-1.950669688e-04,-3.400236619e-04,4.832916307e-04,1.432679688e-04,-5.887249401e-04,2.737187943e-04,-3.150061458e-04,-1.011960370e-04,7.667424823e-05,-2.452178872e-05,-5.258704081e-04,2.381271111e-04,-2.877432970e-04,-4.678899921e-04,1.086473856e-04,-3.592426064e-04,5.506301564e-04,-4.010211252e-05,5.105280439e-04,1.994921582e-04,1.723212097e-04,3.718133679e-04,5.297169993e-04,-1.730482559e-04,3.566687435e-04,6.757679262e-04,-6.206193552e-05,6.137059907e-04,3.851977722e-04,-6.863442499e-05,3.165633472e-04,-3.505592974e-06,1.115105947e-04,1.080050017e-04,-1.580004962e-03,6.046873016e-04,-9.753176607e-04,3.334594603e-04,3.213046160e-05,3.655899219e-04,-2.171482755e-04,2.907834202e-04,7.363514476e-05,2.664375413e-04,-2.390482068e-05,2.425327206e-04,2.980707745e-04,-2.174439413e-05,2.763263804e-04,-2.313146543e-05,1.725801305e-04,1.494486651e-04,1.128745525e-04,-5.654392730e-05,5.633062521e-05
-9.3,-1.174306675e-04,-1.814630158e-04,-2.988936834e-04,-2.738452946e-04,9.799321836e-05,-1.758520762e-04,-3.347773063e-04,1.270450252e-07,-3.346502613e-04,-2.498325751e-04,2.472002537e-05,-2.251125498e-04,-2.653219155e-04,-2.076954217e-05,-2.860914577e-04,-1.150708489e-04,1.530763273e-04,3.800547834e-05,-6.080080943e-05,1.728801303e-04,1.120793209e-04,-2.884532343e-04,3.599575244e-04,7.150429012e-05,-1.749046336e-04,1.445361771e-04,-3.036845651e-05,-1.606007843e-04,1.287748966e-04,-3.182588763e-05,-2.193764940e-04,2.421500577e-05,-1.951614882e-04,1.916567359e-04,1.504091427e-04,3.420658786e-04,8.694817073e-04,-2.869031614e-04,5.825785459e-04,7.728853993e-04,-3.671527828e-04,4.057326165e-04,6.205515128e-04,-2.804935625e-04,3.400579503e-04,2.960772734e-04,8.144402203e-05,3.775212954e-04,6.381969577e-04,1.132842201e-05,6.495253797e-04,-5.136220232e-04,3.095198593e-04,-2.041021638e-04,-3.424274769e-04,4.769871011e-04,1.345596243e-04,-5.834805209e-04,2.652133057e-04,-3.182672152e-04,-9.021800075e-05,7.219767816e-05,-1.802032259e-05,-5.243536297e-04,2.311904879e-04,-2.931631418e-04,-4.686851841e-04,1.089899230e-04,-3.596952611e-04,5.353395634e-04,-3.981094587e-05,4.955286175e-04,1.593588777e-04,1.813159904e-04,3.406748681e-04,4.889805822e-04,-1.566966667e-04,3.322839154e-04,6.355171321e-04,-6.776398891e-05,5.677531432e-04,3.563706908e-04,-5.066983857e-05,3.057008522e-04,-7.825994767e-06,1.054190960e-04,9.759310120e-05,-1.551994777e-03,5.969772409e-04,-9.550175366e-04,3.404254638e-04,2.181131820e-05,3.622367820e-04,-2.077217076e-04,2.812134618e-04,7.349175422e-05,2.602345218e-04,-2.415628158e-05,2.360782402e-04,3.022018127e-04,-2.668059192e-05,2.755212207e-04,-1.861280976e-05,1.683065083e-04,1.496936986e-04,1.051103899e-04,-5.531988095e-05,4.979050900e-05
-9.2,-1.132265792e-04,-1.770732138e-04,-2.902997930e-04,-2.688816165e-04,9.809479475e-05,-1.707868218e-04,-3.397877011e-04,6.427668614e-06,-3.333600325e-04,-2.390590231e-04,2.684741454e-05,-2.122116085e-04,-2.588007414e-04,-1.366649904e-05,-2.724672404e-04,-1.140874169e-04,1.491029433e-04,3.501552643e-05,-6.592134506e-05,1.690677775e-04,1.031464325e-04,-2.938435614e-04,3.511528698e-04,5.730930834e-05,-1.747436530e-04,1.429540289e-04,-3.178962404e-05,-1.588300890e-04,1.231133524e-04,-3.571673661e-05,-2.157060554e-04,2.456299974e-05,-1.911430557e-04,1.534879460e-04,1.625013844e-04,3.159893303e-04,7.975046466e-04,-2.542522413e-04,5.432524053e-04,7.143749991e-04,-3.401876515e-04,3.741873476e-04,5.763225600e-04,-2.561707079e-04,3.201518521e-04,2.749080418e-04,8.780692049e-05,3.627149622e-04,6.176788660e-04,1.680578734e-05,6.344846533e-04,-5.277456235e-04,3.143894068e-04,-2.133562168e-04,-3.458934998e-04,4.704802033e-04,1.245867035e-04,-5.775542500e-04,2.566454963e-04,-3.209087537e-04,-8.003536356e-05,6.773166972e-05,-1.230369384e-05,-5.219100869e-04,2.243116429e-04,-2.975984440e-04,-4.685718011e-04,1.095812057e-04,-3.589905954e-04,5.199393600e-04,-3.940147508e-05,4.805378850e-04,1.189811871e-04,1.903855545e-04,3.093667415e-04,4.474533903e-04,-1.398085624e-04,3.076448279e-04,5.921243901e-04,-7.004173558e-05,5.220826545e-04,3.267218632e-04,-3.222699498e-05,2.944948682e-04,-1.198694972e-05,9.865381971e-05,8.666687000e-05,-1.522765469e-03,5.875774186e-04,-9.351880507e-04,3.452708206e-04,1.187409691e-05,3.571449175e-04,-1.989024909e-04,2.715766546e-04,7.267416368e-05,2.537574817e-04,-2.438224658e-05,2.293752352e-04,3.050567555e-04,-3.138388013e-05,2.736728754e-04,-1.423767863e-05,1.635732971e-04,1.493356184e-04,9.728552890e-05,-5.477311386e-05,4.251241504e-05
-9.1,-1.088118987e-04,-1.724826897e-04,-2.812945884e-04,-2.638364536e-04,9.800660414e-05,-1.658298495e-04,-3.438063964e-04,1.278900301e-05,-3.310173934e-04,-2.280782891e-04,2.870965877e-05,-1.993686303e-04,-2.520973662e-04,-6.773138576e-06,-2.588705047e-04,-1.131250708e-04,1.449211276e-04,3.179605678e-05,-7.152474758e-05,1.651587905e-04,9.363404294e-05,-2.993621531e-04,3.423519311e-04,4.298977799e-05,-1.746997839e-04,1.409911747e-04,-3.370860918e-05,-1.579176983e-04,1.173699972e-04,-4.054770103e-05,-2.117899043e-04,2.423142298e-05,-1.875584814e-04,1.166520660e-04,1.735759104e-04,2.902279764e-04,7.253377099e-04,-2.222007205e-04,5.031369894e-04,6.547420525e-04,-3.122396229e-04,3.425024296e-04,5.309840335e-04,-2.312892817e-04,2.996947518e-04,2.536214520e-04,9.378903818e-05,3.474104902e-04,5.962562608e-04,2.217449149e-05,6.184307523e-04,-5.420514310e-04,3.191703153e-04,-2.228811157e-04,-3.505530242e-04,4.637844680e-04,1.132314438e-04,-5.710136573e-04,2.480548953e-04,-3.229587620e-04,-7.075150894e-05,6.330433092e-05,-7.447178018e-06,-5.186585935e-04,2.175322110e-04,-3.011263825e-04,-4.676229210e-04,1.103976920e-04,-3.572252291e-04,5.043608321e-04,-3.884850434e-05,4.655123278e-04,7.850423279e-05,1.994355149e-04,2.779397476e-04,4.052387410e-04,-1.224751836e-04,2.827635574e-04,5.455459385e-04,-6.864269734e-05,4.769032412e-04,2.962131364e-04,-1.337812670e-05,2.828350097e-04,-1.612405059e-05,9.130195348e-05,7.517790290e-05,-1.492612586e-03,5.766081127e-04,-9.160044729e-04,3.478519039e-04,2.361614677e-06,3.502135186e-04,-1.908969160e-04,2.619762665e-04,7.107935056e-05,2.469921726e-04,-2.458978479e-05,2.224023878e-04,3.064759890e-04,-3.580163196e-05,2.706743570e-04,-1.014192743e-05,1.584266451e-04,1.482847177e-04,8.935053400e-05,-5.490502587e-05,3.444550813e-05
-9,-1.043486569e-04,-1.676888918e-04,-2.720375487e-04,-2.588962327e-04,9.778031068e-05,-1.611159220e-04,-3.468864861e-04,1.919012640e-05,-3.276963597e-04,-2.170438771e-04,3.033029227e-05,-1.867135848e-04,-2.452758753e-04,-9.997782996e-08,-2.453758531e-04,-1.123147411e-04,1.405697272e-04,2.825498611e-05,-7.765902931e-05,1.611794911e-04,8.352046183e-05,-3.050166738e-04,3.335730686e-04,2.855639481e-05,-1.748504060e-04,1.386756340e-04,-3.617477196e-05,-1.579661507e-04,1.116136853e-04,-4.635246534e-05,-2.078048597e-04,2.328895502e-05,-1.845159046e-04,8.118725911e-05,1.836845440e-04,2.648718031e-04,6.532469117e-04,-1.908233142e-04,4.624235975e-04,5.941326635e-04,-2.833809524e-04,3.107517111e-04,4.845764646e-04,-2.058863696e-04,2.786900950e-04,2.321253471e-04,9.940619383e-05,3.315315409e-04,5.738427074e-04,2.744107977e-05,6.012837872e-04,-5.565340879e-04,3.238113446e-04,-2.327227433e-04,-3.565200426e-04,4.569174091e-04,1.003973665e-04,-5.639293405e-04,2.394809872e-04,-3.244483533e-04,-6.246714759e-05,5.894470403e-05,-3.522443551e-06,-5.147215351e-04,2.108930191e-04,-3.038285160e-04,-4.659127042e-04,1.114158145e-04,-3.544968897e-04,4.885425717e-04,-3.812768004e-05,4.504148917e-04,3.807458360e-05,2.083722516e-04,2.464468352e-04,3.624435626e-04,-1.047841863e-04,2.576593763e-04,4.957452392e-04,-6.335239278e-05,4.323928465e-04,2.648155804e-04,5.797222879e-06,2.706128033e-04,-2.037690851e-05,8.346376208e-05,6.308685358e-05,-1.461847002e-03,5.642195051e-04,-8.976274972e-04,3.480468783e-04,-6.689548264e-06,3.413573300e-04,-1.839090214e-04,2.525236501e-04,6.861462862e-05,2.399218328e-04,-2.478418190e-05,2.151376509e-04,3.063202286e-04,-3.988693685e-05,2.664332917e-04,-6.462242226e-06,1.529213843e-04,1.464591421e-04,8.126647850e-05,-5.571253943e-05,2.555393907e-05
-8.9,-9.998725329e-05,-1.626900389e-04,-2.626772922e-04,-2.542388853e-04,9.747175397e-05,-1.567671313e-04,-3.490842043e-04,2.560902531e-05,-3.234751790e-04,-2.061069576e-04,3.173666666e-05,-1.743702910e-04,-2.383997373e-04,6.345129022e-06,-2.320546083e-04,-1.117821953e-04,1.360910600e-04,2.430886466e-05,-8.436181623e-05,1.571565838e-04,7.279476758e-05,-3.108092435e-04,3.248338090e-04,1.402456546e-05,-1.752644190e-04,1.360374808e-04,-3.922693821e-05,-1.590583712e-04,1.059113726e-04,-5.314699859e-05,-2.039162357e-04,2.180921751e-05,-1.821070182e-04,4.712546082e-05,1.928867727e-04,2.400122335e-04,5.815019853e-04,-1.601867008e-04,4.213152844e-04,5.327038220e-04,-2.536885013e-04,2.790153208e-04,4.371552512e-04,-1.800010565e-04,2.571541947e-04,2.103345965e-04,1.046787211e-04,3.150133176e-04,5.503721257e-04,3.260987989e-05,5.829820056e-04,-5.711751847e-04,3.282595747e-04,-2.429156100e-04,-3.638855931e-04,4.499004019e-04,8.601480878e-05,-5.563726246e-04,2.309625495e-04,-3.254100751e-04,-5.527766495e-05,5.468220730e-05,-5.954576475e-07,-5.102211003e-04,2.044331752e-04,-3.057879251e-04,-4.635138279e-04,1.126122538e-04,-3.509015741e-04,4.724323877e-04,-3.721625530e-05,4.352161324e-04,-2.160736309e-06,2.171050284e-04,2.149442921e-04,3.191812210e-04,-8.681980115e-05,2.323614198e-04,4.426974807e-04,-5.400279660e-05,3.886946841e-04,2.325150044e-04,2.521191062e-05,2.577269150e-04,-2.488553593e-05,7.525091151e-05,5.036537558e-05,-1.430785569e-03,5.505866442e-04,-8.801989251e-04,3.457588662e-04,-1.524899954e-05,3.305098667e-04,-1.781361440e-04,2.433349369e-04,6.519879286e-05,2.325288846e-04,-2.496813552e-05,2.075607491e-04,3.044743496e-04,-4.359995796e-05,2.608743916e-04,-3.331072678e-06,1.471193791e-04,1.437883064e-04,7.300795825e-05,-5.718819493e-05,1.581976333e-05
-8.8,-9.586255703e-05,-1.574850426e-04,-2.533475997e-04,-2.500304754e-04,9.713988005e-05,-1.528905953e-04,-3.504564240e-04,3.202283829e-05,-3.184335857e-04,-1.954137043e-04,3.295950833e-05,-1.624541960e-04,-2.315300710e-04,1.255712185e-05,-2.189729491e-04,-1.116455540e-04,1.315300237e-04,1.988446967e-05,-9.165869477e-05,1.531166921e-04,6.145799735e-05,-3.167357155e-04,3.161505552e-04,-5.851603606e-07,-1.760003290e-04,1.331084116e-04,-4.289191741e-05,-1.612557476e-04,1.003271342e-04,-6.092861344e-05,-2.002749870e-04,1.986956598e-05,-1.804054211e-04,1.449082837e-05,2.012494975e-04,2.157403258e-04,5.103722012e-04,-1.303499963e-04,3.800222048e-04,4.706230458e-04,-2.232437908e-04,2.473792550e-04,3.887923205e-04,-1.536761162e-04,2.351162043e-04,1.881737874e-04,1.096303474e-04,2.978041348e-04,5.258021430e-04,3.768142624e-05,5.634835692e-04,-5.859407394e-04,3.324608862e-04,-2.534798533e-04,-3.727145451e-04,4.427580401e-04,7.004349504e-05,-5.484139271e-04,2.225370282e-04,-3.258768989e-04,-4.927118304e-05,5.054612869e-05,1.274945655e-06,-5.052766676e-04,1.981893717e-04,-3.070872959e-04,-4.604961267e-04,1.139641475e-04,-3.465319791e-04,4.559882263e-04,-3.609377914e-05,4.198944471e-04,-4.205533884e-05,2.255473915e-04,1.834920527e-04,2.755722821e-04,-6.866317049e-05,2.069091116e-04,3.863928999e-04,-4.047966050e-05,3.459132394e-04,1.993144918e-04,4.477135702e-05,2.440858488e-04,-2.978800026e-05,6.678450149e-05,3.699650123e-05,-1.399743436e-03,5.359040922e-04,-8.638393441e-04,3.409172301e-04,-2.329228776e-05,3.176249423e-04,-1.737656874e-04,2.345280204e-04,6.076233301e-05,2.247965384e-04,-2.514200573e-05,1.996545327e-04,3.008493229e-04,-4.690893105e-05,2.539403918e-04,-8.736249437e-07,1.410879029e-04,1.402142780e-04,6.456382039e-05,-5.932011733e-05,5.243703055e-06
-8.7,-9.209188126e-05,-1.520734733e-04,-2.441653546e-04,-2.464235923e-04,9.684553655e-05,-1.495780557e-04,-3.510592831e-04,3.840803332e-05,-3.126512498e-04,-1.851037294e-04,3.403242343e-05,-1.510713060e-04,-2.247250163e-04,1.853380745e-05,-2.061912089e-04,-1.120140040e-04,1.269331412e-04,1.491913720e-05,-9.956303274e-05,1.490858574e-04,4.952282462e-05,-3.227860225e-04,3.075382543e-04,-1.524776820e-05,-1.771060135e-04,1.299213609e-04,-4.718465261e-05,-1.645980535e-04,9.492136622e-05,-6.967668728e-05,-1.970170047e-04,1.754997499e-05,-1.794670297e-04,-1.670274221e-05,2.088461428e-04,1.921434006e-04,4.401197853e-04,-1.013650589e-04,3.387547264e-04,4.080665414e-04,-1.921331884e-04,2.159333530e-04,3.395744876e-04,-1.269589066e-04,2.126155810e-04,1.655781398e-04,1.142868533e-04,2.798649931e-04,5.001145739e-04,4.265142550e-05,5.427659994e-04,-6.007813855e-04,3.363605585e-04,-2.644208271e-04,-3.830449628e-04,4.355169835e-04,5.247202071e-05,-5.401218045e-04,2.142400584e-04,-3.258817461e-04,-4.452735195e-05,4.656526143e-05,2.037909479e-06,-5.000033190e-04,1.921955545e-04,-3.078077644e-04,-4.569261463e-04,1.154492752e-04,-3.414768712e-04,4.391783365e-04,-3.474269382e-05,4.044356427e-04,-8.146460065e-05,2.336176895e-04,1.521530889e-04,2.317432898e-04,-5.039277002e-05,1.813505198e-04,3.268401619e-04,-2.272907065e-05,3.041110913e-04,1.652343002e-04,6.437408872e-05,2.296083889e-04,-3.521899133e-05,5.819287562e-05,2.297388428e-05,-1.369027995e-03,5.203805561e-04,-8.486474386e-04,3.334772331e-04,-3.080035593e-05,3.026768772e-04,-1.709726437e-04,2.262197865e-04,5.524714285e-05,2.167098767e-04,-2.530479358e-05,1.914050831e-04,2.953821390e-04,-4.979063974e-05,2.455914993e-04,7.933586890e-07,1.348980530e-04,1.356914116e-04,5.593568277e-05,-6.209163357e-05,-6.155950797e-06
-8.6,-8.877432281e-05,-1.464556195e-04,-2.352299423e-04,-2.435569140e-04,9.665026102e-05,-1.469066530e-04,-3.509476311e-04,4.474057550e-05,-3.062070556e-04,-1.753093078e-04,3.499137731e-05,-1.403179305e-04,-2.180398485e-04,2.427590643e-05,-1.937639420e-04,-1.129872544e-04,1.223476889e-04,9.360434499e-06,-1.080767478e-04,1.450891101e-04,3.701236227e-05,-3.289450681e-04,2.990101234e-04,-2.993494478e-05,-1.786194453e-04,1.265101892e-04,-5.210925609e-05,-1.691044666e-04,8.975019086e-05,-7.935427574e-05,-1.942635471e-04,1.493207811e-05,-1.793314690e-04,-4.645387807e-05,2.157552995e-04,1.693014215e-04,3.709927443e-04,-7.327641729e-05,2.977163271e-04,3.452168957e-04,-1.604480094e-04,1.847688863e-04,2.895999937e-04,-9.990157115e-05,1.896984225e-04,1.424933475e-04,1.186747588e-04,2.611681063e-04,4.733134927e-04,4.751054278e-05,5.208240355e-04,-6.156344941e-04,3.399039859e-04,-2.757305082e-04,-3.948891144e-04,4.282044356e-04,3.331532121e-05,-5.315623180e-04,2.061050668e-04,-3.254572512e-04,-4.111651004e-05,4.276758199e-05,1.651071952e-06,-4.945109149e-04,1.864827940e-04,-3.080281209e-04,-4.528669761e-04,1.170462120e-04,-3.358207641e-04,4.219811589e-04,-3.314885913e-05,3.888322997e-04,-1.202467164e-04,2.412388921e-04,1.209921757e-04,1.878244557e-04,-3.208487026e-05,1.557395854e-04,2.640701984e-04,-7.628148558e-07,2.633073835e-04,1.303101805e-04,8.391282738e-05,2.142230079e-04,-4.130842497e-05,4.960919054e-05,8.300765571e-06,-1.338933548e-03,5.042337146e-04,-8.346998332e-04,3.234190036e-04,-3.775884840e-05,2.856601552e-04,-1.699170211e-04,2.185234223e-04,4.860640126e-05,2.082560248e-04,-2.545503226e-05,1.828009926e-04,2.880343494e-04,-5.223035116e-05,2.358039983e-04,1.562101628e-06,1.286231245e-04,1.301852261e-04,4.713519710e-05,-6.548050584e-05,-1.834530874e-05
-8.5,-8.599060302e-05,-1.406326507e-04,-2.266232537e-04,-2.415548983e-04,9.661518268e-05,-1.449397156e-04,-3.501747129e-04,5.099617258e-05,-2.991785403e-04,-1.661548000e-04,3.587418171e-05,-1.302806183e-04,-2.115271436e-04,2.978710294e-05,-1.817400406e-04,-1.146549803e-04,1.178209822e-04,3.166001944e-06,-1.171910990e-04,1.411501632e-04,2.395906414e-05,-3.351934041e-04,2.905774867e-04,-4.461591735e-05,-1.805692367e-04,1.229093796e-04,-5.765985711e-05,-1.747745005e-04,8.486496943e-05,-8.990953109e-05,-1.921212954e-04,1.209827507e-05,-1.800230203e-04,-7.477457239e-05,2.220591728e-04,1.472846004e-04,3.032195693e-04,-4.612087313e-05,2.570986961e-04,2.822615880e-04,-1.282843774e-04,1.539772106e-04,2.389755026e-04,-7.256090767e-05,1.664145949e-04,1.188754429e-04,1.228202334e-04,2.416956763e-04,4.454222465e-04,5.224492697e-05,4.976671734e-04,-6.304267054e-04,3.430374802e-04,-2.873892252e-04,-4.082346060e-04,4.208464995e-04,1.261189346e-05,-5.227982306e-04,1.981628781e-04,-3.246353524e-04,-3.909869268e-05,3.917985766e-05,8.116498303e-08,-4.889029781e-04,1.810791149e-04,-3.078238633e-04,-4.483776194e-04,1.187344564e-04,-3.296431630e-04,4.043854628e-04,-3.130197740e-05,3.730834854e-04,-1.582635598e-04,2.483383211e-04,9.007476129e-05,1.439474902e-04,-1.381392816e-05,1.301335620e-04,1.981410031e-04,2.533833150e-05,2.234793346e-04,9.459142565e-05,1.032765298e-04,1.978679554e-04,-4.817909906e-05,4.116885728e-05,-7.010241778e-06,-1.309735390e-03,4.876854522e-04,-8.220499382e-04,3.107468794e-04,-4.415736270e-05,2.665895167e-04,-1.707403373e-04,2.115457484e-04,4.080541114e-05,1.994238116e-04,-2.559107865e-05,1.738327329e-04,2.787903581e-04,-5.422130648e-05,2.245690517e-04,1.334939894e-06,1.223369041e-04,1.236718440e-04,3.818164011e-05,-6.945816004e-05,-3.127651994e-05
-8.4,-8.380245458e-05,-1.346068327e-04,-2.184092873e-04,-2.405264346e-04,9.680009353e-05,-1.437263410e-04,-3.487914092e-04,5.715060351e-05,-2.916408056e-04,-1.577555895e-04,3.671997506e-05,-1.210356145e-04,-2.052362133e-04,3.507406406e-05,-1.701621492e-04,-1.170954690e-04,1.133997653e-04,-3.695703640e-06,-1.268865519e-04,1.372911849e-04,1.040463297e-05,-3.415069696e-04,2.822496956e-04,-5.925727398e-05,-1.829739395e-04,1.191536595e-04,-6.382028001e-05,-1.815877533e-04,8.031179439e-05,-1.012759589e-04,-1.906807138e-04,9.130778220e-06,-1.815499356e-04,-1.016888644e-04,2.278423193e-04,1.261534549e-04,2.370078973e-04,-1.992711187e-05,2.170807854e-04,2.193932837e-04,-9.574282433e-05,1.236504594e-04,1.878154853e-04,-4.499823475e-05,1.428172506e-04,9.469189388e-05,1.267482218e-04,2.214401157e-04,4.164811533e-04,5.683713441e-05,4.733182877e-04,-6.450750801e-04,3.457090635e-04,-2.993660166e-04,-4.230439574e-04,4.134666519e-04,-9.577305516e-06,-5.138876812e-04,1.904413603e-04,-3.234463208e-04,-3.852208038e-05,3.582722768e-05,-2.694852700e-06,-4.832748954e-04,1.760092244e-04,-3.072656709e-04,-4.435114489e-04,1.204945360e-04,-3.230169129e-04,3.863910385e-04,-2.919584509e-05,3.571951934e-04,-1.953811264e-04,2.548478757e-04,5.946674935e-05,1.002447884e-04,4.347229534e-06,1.045920179e-04,1.291448494e-04,5.542329851e-05,1.845681479e-04,5.813997069e-05,1.223535343e-04,1.804935049e-04,-5.594288385e-05,3.300710790e-05,-2.293577596e-05,-1.281682144e-03,4.709572830e-04,-8.107248605e-04,2.954897836e-04,-4.998854253e-05,2.455012411e-04,-1.735607550e-04,2.053845307e-04,3.182377563e-05,1.902040518e-04,-2.571090417e-05,1.644931477e-04,2.676566996e-04,-5.576398760e-05,2.118927120e-04,2.707529602e-08,1.161119621e-04,1.161390374e-04,2.910130126e-05,-7.398948887e-05,-4.488818761e-05
-8.3,-8.225099574e-05,-1.283817602e-04,-2.106327560e-04,-2.405618681e-04,9.726261417e-05,-1.432992539e-04,-3.468446708e-04,6.318002041e-05,-2.836646504e-04,-1.502161316e-04,3.756863121e-05,-1.126475004e-04,-1.992114110e-04,4.014633690e-05,-1.590650741e-04,-1.203731550e-04,1.091295881e-04,-1.124356690e-05,-1.371313692e-04,1.335325707e-04,-3.598798548e-06,-3.478556781e-04,2.740340496e-04,-7.382162843e-05,-1.858398992e-04,1.152775449e-04,-7.056235437e-05,-1.895022814e-04,7.613091602e-05,-1.133713654e-04,-1.900125936e-04,6.110560888e-06,-1.839020327e-04,-1.272294802e-04,2.331909520e-04,1.059614717e-04,1.725471756e-04,5.284428962e-06,1.778316046e-04,1.568116930e-04,-6.292765765e-05,9.388403531e-05,1.362443032e-04,-1.727940583e-05,1.189648974e-04,6.992456475e-05,1.304816711e-04,2.004062359e-04,3.865470917e-04,6.126706170e-05,4.478141534e-04,-6.594857756e-04,3.478690835e-04,-3.116166921e-04,-4.392516615e-04,4.060844397e-04,-3.316722177e-05,-5.048823577e-04,1.829651758e-04,-3.219171819e-04,-3.942084858e-05,3.273288157e-05,-6.687967018e-06,-4.777115327e-04,1.712942365e-04,-3.064172962e-04,-4.383139581e-04,1.223080411e-04,-3.160059170e-04,3.680097661e-04,-2.682840887e-05,3.411813572e-04,-2.314693367e-04,2.607047661e-04,2.923542938e-05,5.685056987e-05,2.232743546e-05,7.917800534e-05,5.721845664e-05,8.927038976e-05,1.464888464e-04,2.103133808e-05,1.410352813e-04,1.620666194e-04,-6.469585425e-05,2.525679599e-05,-3.943905826e-05,-1.254986471e-03,4.542654739e-04,-8.007209972e-04,2.777024690e-04,-5.524695184e-05,2.224555172e-04,-1.784672700e-04,2.001257293e-04,2.165845929e-05,1.805910686e-04,-2.581165567e-05,1.547794130e-04,2.546627689e-04,-5.686529859e-05,1.977974703e-04,-2.429248995e-06,1.100181390e-04,1.075888900e-04,1.992885020e-05,-7.903340402e-05,-5.910455382e-05
-8.2,-8.135446396e-05,-1.219626470e-04,-2.033171109e-04,-2.417290289e-04,9.805728310e-05,-1.436717458e-04,-3.443754808e-04,6.906111275e-05,-2.753143681e-04,-1.436273887e-04,3.846005820e-05,-1.051673305e-04,-1.934897250e-04,4.501606020e-05,-1.484736648e-04,-1.245355803e-04,1.050541123e-04,-1.948146792e-05,-1.478795594e-04,1.298926660e-04,-1.798689340e-05,-3.542014346e-04,2.659356643e-04,-8.826577027e-05,-1.891586172e-04,1.113148618e-04,-7.784375540e-05,-1.984526077e-04,7.235616543e-05,-1.260964423e-04,-1.901641556e-04,3.116266725e-06,-1.870478889e-04,-1.514334445e-04,2.381924659e-04,8.675902140e-05,1.100130557e-04,2.950138093e-05,1.395144367e-04,9.472551208e-05,-2.994608117e-05,6.477943091e-05,8.439949186e-05,1.052501923e-05,9.492451109e-05,4.457381439e-05,1.340408306e-04,1.786146450e-04,3.556946099e-04,6.551273485e-05,4.212073447e-04,-6.735507675e-04,3.494704509e-04,-3.240803166e-04,-4.567595419e-04,3.987143991e-04,-5.804514283e-05,-4.958255704e-04,1.757555871e-04,-3.200699832e-04,-4.181281261e-05,2.991784358e-05,-1.189496903e-05,-4.722848760e-04,1.669514416e-04,-3.053334344e-04,-4.328206193e-04,1.241575031e-04,-3.086631161e-04,3.492665000e-04,-2.420171588e-05,3.250647842e-04,-2.664015140e-04,2.658524115e-04,-5.491025007e-07,1.390326524e-05,4.005728535e-05,5.396055059e-05,-1.744570726e-05,1.265873039e-04,1.091415967e-04,-1.664298857e-05,1.592196095e-04,1.425766210e-04,-7.451358371e-05,1.804630313e-05,-5.646728058e-05,-1.229815934e-03,4.378156609e-04,-7.920002727e-04,2.574667879e-04,-5.992790445e-05,1.975388834e-04,-1.855141398e-04,1.958407505e-04,1.032661073e-05,1.705846982e-04,-2.588899611e-05,1.446957021e-04,2.398622136e-04,-5.753756722e-05,1.823246464e-04,-6.080461701e-06,1.041213222e-04,9.804086047e-05,1.070926413e-05,-8.454375075e-05,-7.383448662e-05
-8.1,-8.110644372e-05,-1.153567158e-04,-1.964631596e-04,-2.440697859e-04,9.923445402e-05,-1.448353318e-04,-3.414171752e-04,7.477113891e-05,-2.666460363e-04,-1.380644992e-04,3.943343782e-05,-9.863106137e-05,-1.880986513e-04,4.969752330e-05,-1.384011279e-04,-1.296108371e-04,1.012143730e-04,-2.839646408e-05,-1.590693668e-04,1.263874438e-04,-3.268192293e-05,-3.604966104e-04,2.579572975e-04,-1.025393129e-04,-1.929050287e-04,1.072982871e-04,-8.560674161e-05,-2.083488095e-04,6.901445319e-05,-1.393343563e-04,-1.911565771e-04,2.231505221e-07,-1.909334266e-04,-1.743380246e-04,2.429346562e-04,6.859663156e-05,4.957069116e-05,5.271899773e-05,1.022896889e-04,3.335275994e-05,3.092928939e-06,3.644568888e-05,3.243412071e-05,3.833951224e-05,7.077363295e-05,1.866192494e-05,1.374426913e-04,1.561046163e-04,3.240167674e-04,6.955108987e-05,3.935678572e-04,-6.871444689e-04,3.504683692e-04,-3.366760997e-04,-4.754327573e-04,3.913652181e-04,-8.406753925e-05,-4.867507122e-04,1.688301608e-04,-3.179205514e-04,-4.569745021e-05,2.740074446e-05,-1.829670575e-05,-4.670523832e-04,1.629940570e-04,-3.040583262e-04,-4.270556708e-04,1.260261054e-04,-3.010295654e-04,3.301992432e-04,-2.132186445e-05,3.088773787e-04,-3.000544885e-04,2.702414707e-04,-2.981301783e-05,-2.845254006e-05,5.746922149e-05,2.901668143e-05,-9.458966327e-05,1.670118313e-04,7.242216807e-05,-5.477332581e-05,1.768129268e-04,1.220396010e-04,-8.544783193e-05,1.149737883e-05,-7.395045310e-05,-1.206286158e-03,4.217972029e-04,-7.844889554e-04,2.348920836e-04,-6.402655352e-05,1.708655301e-04,-1.947167104e-04,1.925838119e-04,-2.132898523e-06,1.601914429e-04,-2.593614030e-05,1.342553026e-04,2.233337271e-04,-5.779730439e-05,1.655364228e-04,-1.094874009e-05,9.848235405e-05,8.753361395e-05,1.498487325e-06,-9.047014914e-05,-8.897166182e-05
-8,-8.147560841e-05,-1.085736413e-04,-1.900492497e-04,-2.475983853e-04,1.008390591e-04,-1.467593262e-04,-3.379947975e-04,8.028791849e-05,-2.577068790e-04,-1.335854646e-04,4.052650529e-05,-9.305895934e-05,-1.830551764e-04,5.420666558e-05,-1.288485109e-04,-1.356063078e-04,9.764804044e-05,-3.795826733e-05,-1.706231933e-04,1.230301656e-04,-4.759302770e-05,-3.666837205e-04,2.500991884e-04,-1.165845321e-04,-1.970375766e-04,1.032589083e-04,-9.377866830e-05,-2.190775570e-04,6.612537477e-05,-1.529521822e-04,-1.929850167e-04,-2.497908297e-06,-1.954829250e-04,-1.959779972e-04,2.475045433e-04,5.152654611e-05,-8.624519766e-06,7.493956950e-05,6.631504974e-05,-2.708119823e-05,3.607986627e-05,8.998668049e-06,-1.948321596e-05,6.608341543e-05,4.660019947e-05,-7.765645911e-06,1.407005718e-04,1.329349259e-04,2.916240496e-04,7.335889494e-05,3.649829445e-04,-7.001220581e-04,3.508196517e-04,-3.493024064e-04,-4.950986011e-04,3.840391668e-04,-1.110594343e-04,-4.776804330e-04,1.622023212e-04,-3.154781118e-04,-5.105476651e-05,2.519752779e-05,-2.585723872e-05,-4.620564601e-04,1.594309443e-04,-3.026255158e-04,-4.210321893e-04,1.278973339e-04,-2.931348554e-04,3.108583798e-04,-1.819895313e-05,2.926594266e-04,-3.323100650e-04,2.738312817e-04,-5.847878334e-05,-7.006595414e-05,7.449763360e-05,4.431679462e-06,-1.738838071e-04,2.101142312e-04,3.623042414e-05,-9.323139272e-05,1.937313348e-04,1.004999421e-04,-9.752515232e-05,5.722811437e-06,-9.180234089e-05,-1.184457485e-03,4.063778273e-04,-7.780796576e-04,2.101142165e-04,-6.753741046e-05,1.425768061e-04,-2.060492106e-04,1.903896190e-04,-1.565959157e-05,1.494241645e-04,-2.594278563e-05,1.234813789e-04,2.051806008e-04,-5.766395160e-05,1.475166492e-04,-1.703125350e-05,9.315590928e-05,7.612465579e-05,-7.638008472e-06,-9.675864922e-05,-1.043966577e-04
-7.9,-8.240730726e-05,-1.016259209e-04,-1.840332281e-04,-2.523018974e-04,1.029094079e-04,-1.493924895e-04,-3.341256227e-04,8.558985165e-05,-2.485357711e-04,-1.302311187e-04,4.177492303e-05,-8.845619569e-05,-1.783660877e-04,5.856058485e-05,-1.198055028e-04,-1.425088833e-04,9.438870415e-05,-4.812017910e-05,-1.824491374e-04,1.198310522e-04,-6.261808519e-05,-3.726964445e-04,2.423589635e-04,-1.303374810e-04,-2.015001067e-04,9.922581235e-05,-1.022742943e-04,-2.305050905e-04,6.370094369e-05,-1.668041468e-04,-1.956210825e-04,-4.981272033e-06,-2.006023545e-04,-2.163844172e-04,2.519869454e-04,3.560252821e-05,-6.442861876e-05,9.617184033e-05,3.174322157e-05,-8.634750334e-05,6.890587349e-05,-1.744162984e-05,-7.117095678e-05,9.367108378e-05,2.250012699e-05,-3.464150430e-05,1.438237629e-04,1.091822586e-04,2.586409418e-04,7.691379385e-05,3.355547356e-04,-7.123203459e-04,3.504819517e-04,-3.618383942e-04,-5.155487931e-04,3.767317784e-04,-1.388170147e-04,-4.686266631e-04,1.558809227e-04,-3.127457404e-04,-5.784520024e-05,2.332120694e-05,-3.452399330e-05,-4.573250913e-04,1.562664198e-04,-3.010586715e-04,-4.147532849e-04,1.297546985e-04,-2.849985864e-04,2.913050426e-04,-1.484694533e-05,2.764580973e-04,-3.630576632e-04,2.765916787e-04,-8.646598448e-05,-1.107816932e-04,9.107905999e-05,-1.970263320e-05,-2.549257423e-04,2.554023454e-04,4.766030269e-07,-1.318726795e-04,2.099013623e-04,7.802868280e-05,-1.107472285e-04,8.239427706e-07,-1.099232858e-04,-1.164334742e-03,3.916991382e-04,-7.726356038e-04,1.832931402e-04,-7.045414348e-05,1.128389967e-04,-2.194447657e-04,1.892717360e-04,-3.017302966e-05,1.383006282e-04,-2.589436065e-05,1.124062675e-04,1.855290352e-04,-5.715892753e-05,1.283701076e-04,-2.430155958e-05,8.818940797e-05,6.388784839e-05,-1.662838142e-05,-1.033522790e-04,-1.199806604e-04
-7.8,-8.382669738e-05,-9.452909890e-05,-1.783557963e-04,-2.581423103e-04,1.054761590e-04,-1.526661513e-04,-3.298205220e-04,9.065596516e-05,-2.391645568e-04,-1.280261435e-04,4.321172911e-05,-8.481441436e-05,-1.740292964e-04,6.277706513e-05,-1.112522313e-04,-1.502863447e-04,9.146521169e-05,-5.882113297e-05,-1.944437294e-04,1.167969933e-04,-7.764673608e-05,-3.784616276e-04,2.347316533e-04,-1.437299744e-04,-2.062249524e-04,9.522575349e-05,-1.109991989e-04,-2.424814744e-04,6.174550575e-05,-1.807359687e-04,-1.990168624e-04,-7.167220151e-06,-2.061840825e-04,-2.355842745e-04,2.564627054e-04,2.087843090e-05,-1.177120715e-04,1.164303888e-04,-1.281682647e-06,-1.442184805e-04,1.014638317e-04,-4.275464881e-05,-1.224385818e-04,1.210122977e-04,-1.426284117e-06,-6.187941044e-05,1.468172079e-04,8.493779742e-05,2.252008070e-04,8.019538768e-05,3.053961946e-04,-7.235609889e-04,3.494132413e-04,-3.741477476e-04,-5.365446312e-04,3.694317772e-04,-1.671128540e-04,-4.595913708e-04,1.498700448e-04,-3.097213259e-04,-6.601044159e-05,2.178180193e-05,-4.422863966e-05,-4.528732244e-04,1.535002572e-04,-2.993729672e-04,-4.082138851e-04,1.315815675e-04,-2.766323176e-04,2.716089946e-04,-1.128341650e-05,2.603255781e-04,-3.921973056e-04,2.785046339e-04,-1.136926717e-04,-1.504435572e-04,1.071525657e-04,-4.329099152e-05,-3.372438623e-04,3.023296017e-04,-3.491426059e-05,-1.705413770e-04,2.252609544e-04,5.471957744e-05,-1.250923095e-04,-3.111785311e-06,-1.282040948e-04,-1.145868753e-03,3.778731406e-04,-7.679956125e-04,1.546093630e-04,-7.276933932e-05,8.184002366e-05,-2.347976113e-04,1.892219634e-04,-4.557564782e-05,1.268415286e-04,-2.577184401e-05,1.010696845e-04,1.645253810e-04,-5.630500354e-05,1.082203774e-04,-3.271233158e-05,8.362205867e-05,5.090972710e-05,-2.539830846e-05,-1.101915351e-04,-1.355898435e-04
-7.7,-8.564265077e-05,-8.730187145e-05,-1.729445222e-04,-2.650593292e-04,1.085615214e-04,-1.564978078e-04,-3.250855672e-04,9.546599138e-05,-2.296195758e-04,-1.269805748e-04,4.486682541e-05,-8.211374939e-05,-1.700355141e-04,6.687411759e-05,-1.031613965e-04,-1.588892606e-04,8.890111323e-05,-6.998814734e-05,-2.064950347e-04,1.139313417e-04,-9.256369303e-05,-3.839015588e-04,2.272098433e-04,-1.566917155e-04,-2.111361215e-04,9.128293662e-05,-1.198531849e-04,-2.548450139e-04,6.025586187e-05,-1.945891520e-04,-2.031090845e-04,-9.002403211e-06,-2.121114878e-04,-2.535999650e-04,2.610064292e-04,7.406464237e-06,-1.683623055e-04,1.357348831e-04,-3.262742237e-05,-2.004718465e-04,1.336494047e-04,-6.682244178e-05,-1.730901974e-04,1.480127435e-04,-2.507745391e-05,-8.937810546e-05,1.496813456e-04,6.030324016e-05,1.914403305e-04,8.318630896e-05,2.746266395e-04,-7.336550378e-04,3.475716860e-04,-3.860833517e-04,-5.578235617e-04,3.621213156e-04,-1.957022461e-04,-4.505676010e-04,1.441690107e-04,-3.063985903e-04,-7.547468717e-05,2.058640240e-05,-5.488828477e-05,-4.487041405e-04,1.511277973e-04,-2.975763432e-04,-4.014023617e-04,1.333610691e-04,-2.680412926e-04,2.518466471e-04,-7.529242402e-06,2.443174047e-04,-4.196420990e-04,2.795650646e-04,-1.400770344e-04,-1.888985374e-04,1.226603627e-04,-6.623817473e-05,-4.203041179e-04,3.503049487e-04,-6.999916920e-05,-2.090763354e-04,2.397608015e-04,3.068446615e-05,-1.405167516e-04,-6.013019042e-06,-1.465297707e-04,-1.128957903e-03,3.649794722e-04,-7.639784306e-04,1.242601989e-04,-7.447415963e-05,4.978603922e-05,-2.519666795e-04,1.902106542e-04,-6.175602527e-05,1.150686850e-04,-2.555208449e-05,8.951660051e-05,1.423326804e-04,-5.512577295e-05,8.720690744e-05,-4.219795077e-05,7.948396488e-05,3.728601410e-05,-3.387458243e-05,-1.172146341e-04,-1.510892165e-04
-7.6,-8.775136086e-05,-7.996611940e-05,-1.677174803e-04,-2.729726953e-04,1.121786964e-04,-1.607939988e-04,-3.199231759e-04,1.000005334e-04,-2.199226426e-04,-1.270910677e-04,4.676649646e-05,-8.032457129e-05,-1.663694472e-04,7.086954277e-05,-9.549990440e-05,-1.682525863e-04,8.671422528e-05,-8.153836101e-05,-2.184851224e-04,1.112338215e-04,-1.072513009e-04,-3.889356832e-04,2.197839427e-04,-1.691517405e-04,-2.161513520e-04,8.741886722e-05,-1.287324848e-04,-2.674255647e-04,5.922152063e-05,-2.082040440e-04,-2.078218225e-04,-1.044015420e-05,-2.182619767e-04,-2.704474540e-04,2.656837680e-04,-4.763686039e-06,-2.162841767e-04,1.541094140e-04,-6.217476272e-05,-2.548931648e-04,1.653618706e-04,-8.953129421e-05,-2.229260136e-04,1.745744625e-04,-4.835155105e-05,-1.170245400e-04,1.524122791e-04,3.538773906e-05,1.574951436e-04,8.587322910e-05,2.433683727e-04,-7.424073442e-04,3.449159590e-04,-3.974913852e-04,-5.791053019e-04,3.547765886e-04,-2.243287133e-04,-4.415401754e-04,1.387724561e-04,-3.027677193e-04,-8.614571036e-05,1.973916486e-05,-6.640654550e-05,-4.448100538e-04,1.491399992e-04,-2.956700546e-04,-3.943013218e-04,1.350760126e-04,-2.592253092e-04,2.320997823e-04,-3.608293991e-06,2.284914883e-04,-4.453196859e-04,2.797806055e-04,-1.655390804e-04,-2.260003115e-04,1.375486505e-04,-8.845166107e-05,-5.035182521e-04,3.987034029e-04,-1.048148492e-04,-2.473155831e-04,2.533654748e-04,6.049891788e-06,-1.569555490e-04,-7.826301697e-06,-1.647818507e-04,-1.113448711e-03,3.530632725e-04,-7.603854382e-04,9.245701777e-05,-7.555819554e-05,1.689882223e-05,-2.707789268e-04,1.921875201e-04,-7.859140673e-05,1.030041693e-04,-2.520846604e-05,7.779570324e-05,1.191273318e-04,-5.364508846e-05,6.548224331e-05,-5.267555949e-05,7.579523099e-05,2.311967150e-05,-4.198765304e-05,-1.243571103e-04,-1.663447633e-04
-7.5,-9.003869520e-05,-7.254685319e-05,-1.625855484e-04,-2.817830866e-04,1.163315372e-04,-1.654515494e-04,-3.143322924e-04,1.042413406e-04,-2.100909518e-04,-1.283412956e-04,4.893295042e-05,-7.940834515e-05,-1.630098653e-04,7.478050191e-05,-8.822936341e-05,-1.782963736e-04,8.491625516e-05,-9.338011848e-05,-2.302912161e-04,1.087005172e-04,-1.215906989e-04,-3.934812095e-04,2.124425000e-04,-1.810387095e-04,-2.211823403e-04,8.365216527e-05,-1.375301750e-04,-2.800460101e-04,5.862493937e-05,-2.214210707e-04,-2.130668860e-04,-1.144080728e-05,-2.245076933e-04,-2.861326653e-04,2.705483533e-04,-1.558431199e-05,-2.613978075e-04,1.715822299e-04,-8.981557761e-05,-3.072759868e-04,1.965044382e-04,-1.107715486e-04,-2.717411812e-04,2.005962520e-04,-7.114492915e-05,-1.446953689e-04,1.550022584e-04,1.030688947e-05,1.234978512e-04,8.824770726e-05,2.117455585e-04,-7.496195308e-04,3.414060483e-04,-4.082134825e-04,-6.000958664e-04,3.473688049e-04,-2.527270616e-04,-4.324857152e-04,1.336703421e-04,-2.988153731e-04,-9.791540730e-05,1.924114917e-05,-7.867425812e-05,-4.411717106e-04,1.475233840e-04,-2.936483266e-04,-3.868873720e-04,1.367088179e-04,-2.501785541e-04,2.124550795e-04,4.528639429e-07,2.129079434e-04,-4.691725594e-04,2.791707393e-04,-1.900018201e-04,-2.616109827e-04,1.517685093e-04,-1.098424734e-04,-5.862517265e-04,4.468758539e-04,-1.393758726e-04,-2.850975065e-04,2.660537990e-04,-1.904370750e-05,-1.743214111e-04,-8.517405157e-06,-1.828388163e-04,-1.099135935e-03,3.421343922e-04,-7.570015432e-04,5.942417954e-05,-7.600984478e-05,-1.658566524e-05,-2.910311363e-04,1.950823934e-04,-9.594874286e-05,9.067084287e-05,-2.471189173e-05,6.595895115e-05,9.509677613e-05,-5.188660213e-05,4.321017400e-05,-6.404417917e-05,7.256516832e-05,8.520989154e-06,-4.967276381e-05,-1.315506511e-04,-1.812234149e-04
-7.4,-9.238110120e-05,-6.507204613e-05,-1.574531473e-04,-2.913716229e-04,1.210143379e-04,-1.703572851e-04,-3.083076534e-04,1.081716011e-04,-2.001360523e-04,-1.307013829e-04,5.138385300e-05,-7.931752989e-05,-1.599285613e-04,7.862303577e-05,-8.130552556e-05,-1.889256947e-04,8.351241202e-05,-1.054132827e-04,-2.417856993e-04,1.063238712e-04,-1.354618281e-04,-3.974528277e-04,2.051724885e-04,-1.922803391e-04,-2.261336364e-04,7.999830655e-05,-1.461353298e-04,-2.925223852e-04,5.844169459e-05,-2.340806907e-04,-2.187425936e-04,-1.197210809e-05,-2.307147016e-04,-3.006471305e-04,2.756385839e-04,-2.500854661e-05,-3.036346432e-04,1.881857959e-04,-1.154488473e-04,-3.574205515e-04,2.269839663e-04,-1.304365852e-04,-3.193230647e-04,2.259739065e-04,-9.334915823e-05,-1.722565961e-04,1.574402509e-04,-1.481634518e-05,8.957837102e-05,9.030677142e-05,1.798851424e-04,-7.550912538e-04,3.370045338e-04,-4.180867200e-04,-6.204891528e-04,3.398653163e-04,-2.806238366e-04,-4.233722468e-04,1.288479899e-04,-2.945242569e-04,-1.106600718e-04,1.909010028e-05,-9.156997150e-05,-4.377574895e-04,1.462599562e-04,-2.914975333e-04,-3.791303809e-04,1.382414364e-04,-2.408889445e-04,1.930039454e-04,4.625301705e-06,1.976292471e-04,-4.911575916e-04,2.777658824e-04,-2.133917091e-04,-2.956008691e-04,1.652766006e-04,-1.303242685e-04,-6.678297701e-04,4.941567888e-04,-1.736729813e-04,-3.222589018e-04,2.778182841e-04,-4.444061765e-05,-1.925032483e-04,-8.072037035e-06,-2.005752853e-04,-1.085764331e-03,3.321688817e-04,-7.535954491e-04,2.539916341e-05,-7.581725769e-05,-5.041809428e-05,-3.124904556e-04,1.988056843e-04,-1.136847712e-04,7.809398148e-05,-2.403207789e-05,5.406190359e-05,7.043825174e-05,-4.987347429e-05,2.056477745e-05,-7.618295254e-05,6.979182815e-05,-6.391124391e-06,-5.686998629e-05,-1.387217051e-04,-1.955916914e-04
-7.3,-9.464589241e-05,-5.757240343e-05,-1.522182958e-04,-3.015991237e-04,1.262116202e-04,-1.753875035e-04,-3.018387771e-04,1.117760958e-04,-1.900626813e-04,-1.341269600e-04,5.413183784e-05,-7.999512217e-05,-1.570889928e-04,8.241147291e-05,-7.467751994e-05,-2.000305690e-04,8.250100092e-05,-1.175295681e-04,-2.528359625e-04,1.040926637e-04,-1.487432989e-04,-4.007623818e-04,1.979595267e-04,-2.028028551e-04,-2.309016135e-04,7.646936126e-05,-1.544322522e-04,-3.046640767e-04,5.864066554e-05,-2.460234112e-04,-2.247327858e-04,-1.200964887e-05,-2.367424346e-04,-3.139651139e-04,2.809747059e-04,-3.299040803e-05,-3.429334935e-04,2.039566836e-04,-1.389768098e-04,-4.051329069e-04,2.567103049e-04,-1.484226020e-04,-3.654491470e-04,2.506002799e-04,-1.148488671e-04,-1.995626907e-04,1.597123870e-04,-3.985030367e-05,5.586515915e-05,9.205309357e-05,1.479182527e-04,-7.586208845e-04,3.316781518e-04,-4.269427327e-04,-6.399675322e-04,3.322305430e-04,-3.077369892e-04,-4.141590034e-04,1.242862468e-04,-2.898727565e-04,-1.242410342e-04,1.928031554e-05,-1.049607187e-04,-4.345227719e-04,1.453271446e-04,-2.891956272e-04,-3.709931083e-04,1.396552167e-04,-2.313378916e-04,1.738419562e-04,8.878057731e-06,1.827200140e-04,-5.112454430e-04,2.756066828e-04,-2.356387602e-04,-3.278474609e-04,1.780354563e-04,-1.498120046e-04,-7.475418833e-04,5.398697607e-04,-2.076721227e-04,-3.586320098e-04,2.886636169e-04,-6.996839291e-05,-2.113655599e-04,-6.495920276e-06,-2.178614802e-04,-1.073033917e-03,3.231129053e-04,-7.499210113e-04,-9.367438417e-06,-7.496966979e-05,-8.433710821e-05,-3.348951655e-04,2.032486522e-04,-1.316465133e-04,6.530297290e-05,-2.313899954e-05,4.216397337e-05,4.535755336e-05,-4.762804634e-05,-2.270492981e-06,-8.895036772e-05,6.746210190e-05,-2.148826582e-05,-6.352411699e-05,-1.457904840e-04,-2.093146010e-04
-7.2,-9.669215889e-05,-5.008113090e-05,-1.467732898e-04,-3.123065553e-04,1.318978434e-04,-1.804087118e-04,-2.949094764e-04,1.150411637e-04,-1.798683127e-04,-1.385586923e-04,5.718403562e-05,-8.137465669e-05,-1.544456006e-04,8.615775088e-05,-6.828784967e-05,-2.114867674e-04,8.187308122e-05,-1.296136862e-04,-2.633051427e-04,1.019920181e-04,-1.613131245e-04,-4.033193106e-04,1.907880460e-04,-2.125312646e-04,-2.353747747e-04,7.307382046e-05,-1.623009543e-04,-3.162753742e-04,5.918435162e-05,-2.570910226e-04,-2.309076924e-04,-1.153718685e-05,-2.424448792e-04,-3.260439599e-04,2.865567180e-04,-3.948724190e-05,-3.792383270e-04,2.189349464e-04,-1.603033805e-04,-4.502258883e-04,2.855955098e-04,-1.646303785e-04,-4.098876354e-04,2.743655752e-04,-1.355220602e-04,-2.264570104e-04,1.618023532e-04,-6.465465714e-05,2.248566438e-05,9.349466644e-05,1.159803308e-04,-7.600072801e-04,3.253993965e-04,-4.346078836e-04,-6.582035194e-04,3.244263704e-04,-3.337771490e-04,-4.047968717e-04,1.199617557e-04,-2.848351160e-04,-1.385061550e-04,1.980258919e-05,-1.187035658e-04,-4.314100552e-04,1.446976828e-04,-2.867123724e-04,-3.624317788e-04,1.409306934e-04,-2.215010854e-04,1.550675209e-04,1.317842521e-05,1.682459461e-04,-5.294203537e-04,2.727432400e-04,-2.566771137e-04,-3.582350461e-04,1.900132184e-04,-1.682218277e-04,-8.246475534e-04,5.833330058e-04,-2.413145475e-04,-3.940427021e-04,2.986041991e-04,-9.543850299e-05,-2.307496503e-04,-3.814434212e-06,-2.345640845e-04,-1.060608706e-03,3.148881716e-04,-7.457205340e-04,-4.461327821e-05,-7.345886662e-05,-1.180721448e-04,-3.579570910e-04,2.082837841e-04,-1.496733068e-04,5.233211123e-05,-2.200428224e-05,3.032782899e-05,2.006659047e-05,-4.517131693e-05,-2.510472646e-05,-1.021857931e-04,6.555250443e-05,-3.663328867e-05,-6.958547212e-05,-1.526705538e-04,-2.222560259e-04
-7.1,-9.837308341e-05,-4.263368067e-05,-1.410067641e-04,-3.233174133e-04,1.380371157e-04,-1.852802976e-04,-2.874983900e-04,1.179545767e-04,-1.695438133e-04,-1.439228213e-04,6.054171409e-05,-8.338110725e-05,-1.519443521e-04,8.987075433e-05,-6.207359781e-05,-2.231578941e-04,8.161228044e-05,-1.415456137e-04,-2.730542145e-04,1.000034811e-04,-1.730507334e-04,-4.050321464e-04,1.836414298e-04,-2.213907166e-04,-2.394358301e-04,6.981653019e-05,-1.696192999e-04,-3.271587822e-04,6.002936079e-05,-2.671294214e-04,-2.371271341e-04,-1.054676125e-05,-2.476738953e-04,-3.368278431e-04,2.923633336e-04,-4.446450951e-05,-4.124989366e-04,2.331631339e-04,-1.793358026e-04,-4.925221465e-04,3.135530053e-04,-1.789691412e-04,-4.524016038e-04,2.971584130e-04,-1.552431907e-04,-2.527745019e-04,1.636919984e-04,-8.908250352e-05,-1.043484023e-05,9.464401111e-05,8.420917088e-05,-7.590535336e-04,3.181479249e-04,-4.409056086e-04,-6.748636858e-04,3.164119946e-04,-3.584516912e-04,-3.952295848e-04,1.158472394e-04,-2.793823454e-04,-1.532922780e-04,2.064414123e-05,-1.326481367e-04,-4.283499164e-04,1.443393898e-04,-2.840105267e-04,-3.533976930e-04,1.420473734e-04,-2.113503197e-04,1.367797390e-04,1.749221028e-05,1.542719493e-04,-5.456802728e-04,2.692337541e-04,-2.764465186e-04,-3.866557262e-04,2.011828364e-04,-1.854728899e-04,-8.983861704e-04,6.238689738e-04,-2.745171966e-04,-4.283108041e-04,3.076610197e-04,-1.206497844e-04,-2.504767485e-04,-7.194187799e-08,-2.505486904e-04,-1.048127509e-03,3.073975996e-04,-7.407299092e-04,-8.006745556e-05,-7.128053678e-05,-1.513479923e-04,-3.813661576e-04,2.137655536e-04,-1.676006040e-04,3.922011841e-05,-2.060247907e-05,1.861763935e-05,-5.220619496e-06,-4.252239504e-05,-4.774301454e-05,-1.157134663e-04,6.403056808e-05,-5.168289820e-05,-7.501201545e-05,-1.592690242e-04,-2.342810397e-04
-7,-9.953970396e-05,-3.526738090e-05,-1.348070849e-04,-3.344419308e-04,1.445831070e-04,-1.898588238e-04,-2.795805655e-04,1.205054497e-04,-1.590751158e-04,-1.501327597e-04,6.420010584e-05,-8.593265385e-05,-1.495244723e-04,9.355577342e-05,-5.596869884e-05,-2.348985868e-04,8.169480192e-05,-1.532037849e-04,-2.819452258e-04,9.810517252e-05,-1.838400533e-04,-4.058108771e-04,1.765021416e-04,-2.293087355e-04,-2.429652047e-04,6.669870288e-05,-1.762665018e-04,-3.371196918e-04,6.112703909e-05,-2.759926527e-04,-2.432455229e-04,-9.038600305e-06,-2.522841232e-04,-3.462538005e-04,2.983518865e-04,-4.790191402e-05,-4.426746664e-04,2.466853774e-04,-1.959892889e-04,-5.318584478e-04,3.404967174e-04,-1.913617304e-04,-4.927559442e-04,3.188677513e-04,-1.738881929e-04,-2.783463953e-04,1.653622571e-04,-1.129841383e-04,-4.277589011e-05,9.551703198e-05,5.274114186e-05,-7.555724675e-04,3.099116102e-04,-4.456608573e-04,-6.896147948e-04,3.081435141e-04,-3.814712807e-04,-3.853955356e-04,1.119118125e-04,-2.734837231e-04,-1.684284845e-04,2.178854182e-05,-1.466399427e-04,-4.252627524e-04,1.442150145e-04,-2.810477379e-04,-3.438395980e-04,1.429836464e-04,-2.008559516e-04,1.190756799e-04,2.178403360e-05,1.408597135e-04,-5.600369642e-04,2.651424824e-04,-2.948944818e-04,-4.130116669e-04,2.115209572e-04,-2.014907097e-04,-9.679918298e-04,6.608191858e-04,-3.071726440e-04,-4.612526258e-04,3.158585503e-04,-1.453940755e-04,-2.703526268e-04,4.669279840e-06,-2.656833470e-04,-1.035215410e-03,3.005303088e-04,-7.346851011e-04,-1.154553324e-04,-6.843532201e-05,-1.838906544e-04,-4.047967244e-04,2.195317347e-04,-1.852649897e-04,2.600869444e-05,-1.891231806e-05,7.096376387e-06,-3.029303136e-05,-3.969824772e-05,-6.999127907e-05,-1.293482363e-04,6.285664633e-05,-6.649159001e-05,-7.977252893e-05,-1.654873881e-04,-2.452599170e-04
-6.9,-1.000455976e-04,-2.802090455e-05,-1.280665021e-04,-3.454823679e-04,1.514793195e-04,-1.940030484e-04,-2.711297107e-04,1.226842182e-04,-1.484454925e-04,-1.570913989e-04,6.814842591e-05,-8.894297300e-05,-1.471208840e-04,9.721411396e-05,-4.990677008e-05,-2.465582703e-04,8.208963288e-05,-1.644686374e-04,-2.898450029e-04,9.627198362e-05,-1.935730192e-04,-4.055696615e-04,1.693518691e-04,-2.362177924e-04,-2.458451044e-04,6.371799929e-05,-1.821271051e-04,-3.459714859e-04,6.242422229e-05,-2.835472636e-04,-2.491174685e-04,-7.020815538e-06,-2.561382840e-04,-3.542582260e-04,3.044590042e-04,-4.979922179e-05,-4.697399404e-04,2.595467101e-04,-2.101932303e-04,-5.680900565e-04,3.663403613e-04,-2.017496952e-04,-5.307252998e-04,3.393852582e-04,-1.913400416e-04,-3.030057792e-04,1.667941973e-04,-1.362115819e-04,-7.442509505e-05,9.613171537e-05,2.170662031e-05,-7.493929206e-04,3.006872060e-04,-4.487057146e-04,-7.021313332e-04,2.995736454e-04,-4.025576878e-04,-3.752299367e-04,1.081214321e-04,-2.671085046e-04,-1.837398013e-04,2.321575478e-05,-1.605240465e-04,-4.220610045e-04,1.442823911e-04,-2.777786135e-04,-3.337062484e-04,1.437169000e-04,-1.899893484e-04,1.020475764e-04,2.601770340e-05,1.280652798e-04,-5.725155734e-04,2.605372230e-04,-3.119783504e-04,-4.372179443e-04,2.210068767e-04,-2.162110676e-04,-1.032711106e-03,6.935619421e-04,-3.391491640e-04,-4.926850666e-04,3.232222424e-04,-1.694628242e-04,-2.901728662e-04,1.033059071e-05,-2.798422755e-04,-1.021494745e-03,2.941656555e-04,-7.273290895e-04,-1.505041145e-04,-6.492948066e-05,-2.154335952e-04,-4.279146790e-04,2.254052316e-04,-2.025094473e-04,1.274080405e-05,-1.691797753e-05,-4.177173484e-06,-5.494785135e-05,-3.671383905e-05,-9.166169039e-05,-1.429019198e-04,6.198586687e-05,-8.091605294e-05,-8.384999760e-05,-1.712229844e-04,-2.550729820e-04
-6.8,-9.975159758e-05,-2.093363502e-05,-1.206852326e-04,-3.562382144e-04,1.586597116e-04,-1.975785029e-04,-2.621204515e-04,1.244826490e-04,-1.376378025e-04,-1.646935181e-04,7.237001267e-05,-9.232350539e-05,-1.446666029e-04,1.008428278e-04,-4.382377512e-05,-2.579846783e-04,8.275897269e-05,-1.752257056e-04,-2.966283702e-04,9.447582183e-05,-2.021525484e-04,-4.042291793e-04,1.621717165e-04,-2.420574628e-04,-2.479629654e-04,6.086870386e-05,-1.870942615e-04,-3.535398730e-04,6.386410387e-05,-2.896757691e-04,-2.546024588e-04,-4.508881125e-06,-2.591113399e-04,-3.607819117e-04,3.106020074e-04,-5.017990429e-05,-4.936888022e-04,2.717921672e-04,-2.218966350e-04,-6.010939883e-04,3.909971660e-04,-2.100968223e-04,-5.661008987e-04,3.586077491e-04,-2.074931496e-04,-3.265925150e-04,1.679698553e-04,-1.586226597e-04,-1.052808375e-04,9.650691236e-05,-8.773925098e-06,-7.403654762e-04,2.904806393e-04,-4.498848368e-04,-7.121029974e-04,2.906518476e-04,-4.214511498e-04,-3.646668734e-04,1.044395262e-04,-2.602273471e-04,-1.990508080e-04,2.490235026e-05,-1.741484577e-04,-4.186512749e-04,1.444949536e-04,-2.741563212e-04,-3.229484673e-04,1.442238059e-04,-1.787246614e-04,8.578053830e-05,3.015663342e-05,1.159371717e-04,-5.831530020e-04,2.554864448e-04,-3.276665572e-04,-4.592049669e-04,2.296218011e-04,-2.295831658e-04,-1.091821159e-03,7.215294655e-04,-3.702916935e-04,-5.224298152e-04,3.297767157e-04,-1.926530996e-04,-3.097275293e-04,1.681887377e-05,-2.929086555e-04,-1.006594464e-03,2.881764723e-04,-7.184179921e-04,-1.849479276e-04,-6.077528394e-05,-2.457232116e-04,-4.503839448e-04,2.311962100e-04,-2.191877349e-04,-5.405390305e-07,-1.461025358e-05,-1.515079262e-05,-7.899505968e-05,-3.358247325e-05,-1.125775329e-04,-1.561888879e-04,6.137003342e-05,-9.481885451e-05,-8.724413759e-05,-1.763708205e-04,-2.636149581e-04
-6.7,-9.852965391e-05,-1.404502024e-05,-1.125746742e-04,-3.665101746e-04,1.660495744e-04,-2.004606002e-04,-2.525299936e-04,1.258938742e-04,-1.266361195e-04,-1.728276448e-04,7.684252704e-05,-9.598511779e-05,-1.420943461e-04,1.044345328e-04,-3.765981323e-05,-2.690264583e-04,8.365889129e-05,-1.853675670e-04,-3.021800531e-04,9.268592443e-05,-2.094941287e-04,-4.017179775e-04,1.549424605e-04,-2.467755170e-04,-2.492133465e-04,5.814197223e-05,-1.910713743e-04,-3.596654996e-04,6.538717059e-05,-2.942783290e-04,-2.595674103e-04,-1.524968196e-06,-2.610923785e-04,-3.657725394e-04,3.166809900e-04,-4.909154942e-05,-5.145357872e-04,2.834649173e-04,-2.310708699e-04,-6.307703620e-04,4.143801038e-04,-2.163902582e-04,-5.986949243e-04,3.764394107e-04,-2.222555136e-04,-3.489560809e-04,1.688725996e-04,-1.800834813e-04,-1.352532075e-04,9.666132188e-05,-3.859188561e-05,-7.283662905e-04,2.793069503e-04,-4.490593402e-04,-7.192406221e-04,2.813250479e-04,-4.379155742e-04,-3.536407959e-04,1.008276750e-04,-2.528131209e-04,-2.141885781e-04,2.682177499e-05,-1.873668031e-04,-4.149357448e-04,1.448023805e-04,-2.701333643e-04,-3.115203136e-04,1.444806840e-04,-1.670396295e-04,7.035106854e-05,3.416429389e-05,1.045153624e-04,-5.919947368e-04,2.500561967e-04,-3.419385401e-04,-4.789193516e-04,2.373484032e-04,-2.415709484e-04,-1.144647075e-03,7.442235691e-04,-4.004235055e-04,-5.503160761e-04,3.355444633e-04,-2.147716129e-04,-3.288043468e-04,2.402847444e-05,-3.047758723e-04,-9.901570827e-04,2.824317406e-04,-7.077253421e-04,-2.185312759e-04,-5.599147791e-05,-2.745227538e-04,-4.718715118e-04,2.367045968e-04,-2.351669151e-04,-1.379245830e-05,-1.198740186e-05,-2.577986015e-05,-1.022604267e-04,-3.031611705e-05,-1.325765438e-04,-1.690298633e-04,6.095946336e-05,-1.080703999e-04,-8.997236660e-05,-1.808252198e-04,-2.707975863e-04
-6.6,-9.626552778e-05,-7.393953032e-06,-1.036594808e-04,-3.761026125e-04,1.735665684e-04,-2.025360441e-04,-2.423390786e-04,1.269124599e-04,-1.154266188e-04,-1.813771254e-04,8.153820161e-05,-9.983892381e-05,-1.393371521e-04,1.079773230e-04,-3.135982913e-05,-2.795347318e-04,8.474016105e-05,-1.947945707e-04,-3.063951704e-04,9.086924416e-05,-2.155259262e-04,-3.979727325e-04,1.476448346e-04,-2.503278979e-04,-2.494982787e-04,5.552606641e-05,-1.939722123e-04,-3.642048745e-04,6.693212051e-05,-2.972727540e-04,-2.638871450e-04,1.902716674e-06,-2.619844283e-04,-3.691851631e-04,3.225813883e-04,-4.660377484e-05,-5.323128182e-04,2.946030669e-04,-2.377097513e-04,-6.570420498e-04,4.364023061e-04,-2.206397437e-04,-6.283425712e-04,3.927935420e-04,-2.355490292e-04,-3.699559855e-04,1.694869412e-04,-2.004690443e-04,-1.642627832e-04,9.661267062e-05,-6.765011261e-05,-7.132985206e-04,2.671899557e-04,-4.461085649e-04,-7.232800299e-04,2.715390193e-04,-4.517410105e-04,-3.420873824e-04,9.724619359e-05,-2.448411888e-04,-2.289848086e-04,2.894455667e-05,-2.000402520e-04,-4.108128551e-04,1.451511162e-04,-2.656617389e-04,-2.993796094e-04,1.444638724e-04,-1.549157369e-04,5.582611010e-05,3.800471087e-05,9.383082097e-05,-5.990906367e-04,2.443072924e-04,-3.547833443e-04,-4.963229135e-04,2.441705040e-04,-2.521524096e-04,-1.190579262e-03,7.612308576e-04,-4.293484046e-04,-5.761816924e-04,3.405450389e-04,-2.356366535e-04,-3.471906744e-04,3.184302968e-05,-3.153476447e-04,-9.718434374e-04,2.767989173e-04,-6.950445201e-04,-2.510106851e-04,-5.060412315e-05,-3.016148083e-04,-4.920513172e-04,2.417234976e-04,-2.503278196e-04,-2.697132601e-05,-9.055648282e-06,-3.602697429e-05,-1.245869759e-04,-2.692563874e-05,-1.515126147e-04,-1.812540850e-04,6.070480917e-05,-1.205492759e-04,-9.206945351e-05,-1.844808707e-04,-2.765503242e-04
-6.5,-9.286082708e-05,-1.018164785e-06,-9.387899187e-05,-3.848252258e-04,1.811218612e-04,-2.037033645e-04,-2.315327047e-04,1.275344715e-04,-1.039982332e-04,-1.902207838e-04,8.642415875e-05,-1.037966251e-04,-1.363285485e-04,1.114547767e-04,-2.487377181e-05,-2.893641751e-04,8.594915141e-05,-2.034150237e-04,-3.091791244e-04,8.899087226e-05,-2.201882521e-04,-3.929380223e-04,1.402597368e-04,-2.526782855e-04,-2.487271378e-04,5.300651772e-05,-1.957206201e-04,-3.670306925e-04,6.843672322e-05,-2.985939693e-04,-2.674442139e-04,5.740479943e-06,-2.617037339e-04,-3.709824472e-04,3.281768642e-04,-4.280558301e-05,-5.470643957e-04,3.052354822e-04,-2.418289135e-04,-6.798537267e-04,4.569772157e-04,-2.228765109e-04,-6.549032061e-04,4.075936140e-04,-2.473095921e-04,-3.894608907e-04,1.697978848e-04,-2.196630059e-04,-1.922382198e-04,9.637715696e-05,-9.586106284e-05,-6.950922289e-04,2.541617545e-04,-4.409304743e-04,-7.239847153e-04,2.612401506e-04,-4.627445647e-04,-3.299442154e-04,9.365462499e-05,-2.362895904e-04,-2.432775656e-04,3.123848310e-05,-2.120390825e-04,-4.061778720e-04,1.454847780e-04,-2.606930940e-04,-2.864885282e-04,1.441500964e-04,-1.423384318e-04,4.226208613e-05,4.164300433e-05,8.390509045e-05,-6.044908442e-04,2.382933159e-04,-3.661975283e-04,-5.113906986e-04,2.500727626e-04,-2.613179360e-04,-1.229091262e-03,7.722372541e-04,-4.568540077e-04,-5.998741176e-04,3.447947217e-04,-2.550793959e-04,-3.646754147e-04,4.013726444e-05,-3.245381502e-04,-9.513365464e-04,2.711462281e-04,-6.801903183e-04,-2.821553721e-04,-4.464780320e-05,-3.268031753e-04,-5.106081500e-04,2.460439749e-04,-2.645641751e-04,-4.003135737e-05,-5.829609247e-06,-4.586096662e-05,-1.458356556e-04,-2.342104574e-05,-1.692567013e-04,-1.927010595e-04,6.055875877e-05,-1.321423007e-04,-9.358676189e-05,-1.872334707e-04,-2.808202325e-04
-6.4,-8.823516259e-05,5.046364848e-06,-8.318879774e-05,-3.924951163e-04,1.886213227e-04,-2.038737936e-04,-2.201011823e-04,1.277574529e-04,-9.234372933e-05,-1.992338194e-04,9.146278849e-05,-1.077710309e-04,-1.330030780e-04,1.148460531e-04,-1.815702483e-05,-2.983743791e-04,8.722870907e-05,-2.111456701e-04,-3.104478934e-04,8.701445592e-05,-2.234334375e-04,-3.865663558e-04,1.327682863e-04,-2.537980695e-04,-2.468172635e-04,5.056625770e-05,-1.962510058e-04,-3.680327860e-04,6.983867308e-05,-2.981941129e-04,-2.701296595e-04,9.949616497e-06,-2.601800430e-04,-3.711360459e-04,3.333324712e-04,-3.780357470e-05,-5.588438782e-04,3.153775099e-04,-2.434663684e-04,-6.991714541e-04,4.760183300e-04,-2.231531242e-04,-6.782619227e-04,4.207735902e-04,-2.574883326e-04,-4.073482140e-04,1.697900456e-04,-2.375581685e-04,-2.191142522e-04,9.596926351e-05,-1.231449887e-04,-6.737043503e-04,2.402620674e-04,-4.334422829e-04,-7.211487955e-04,2.503770850e-04,-4.707717105e-04,-3.171518488e-04,9.001230390e-05,-2.271395449e-04,-2.569132115e-04,3.366890987e-05,-2.232443016e-04,-4.009240698e-04,1.457446719e-04,-2.551793979e-04,-2.728147835e-04,1.435168425e-04,-1.292979410e-04,2.970362269e-05,4.504590437e-05,7.474952706e-05,-6.082429014e-04,2.320596044e-04,-3.761832970e-04,-5.241094850e-04,2.550403874e-04,-2.690690976e-04,-1.259756103e-03,7.770397754e-04,-4.827163272e-04,-6.212525746e-04,3.483063190e-04,-2.729462556e-04,-3.810519654e-04,4.877892804e-05,-3.322730373e-04,-9.283459363e-04,2.653451629e-04,-6.630007734e-04,-3.117480997e-04,-3.816685009e-05,-3.499149497e-04,-5.272424604e-04,2.494610331e-04,-2.777814273e-04,-5.292353343e-05,-2.332791304e-06,-5.525632473e-05,-1.658861388e-04,-1.981179273e-05,-1.856979316e-04,-2.032230183e-04,6.047741243e-05,-1.427456059e-04,-9.459177940e-05,-1.889806333e-04,-2.835724127e-04
-6.3,-8.232878006e-05,1.076593688e-05,-7.156284318e-05,-3.989399097e-04,1.959667516e-04,-2.029731581e-04,-2.080417403e-04,1.275802762e-04,-8.046146408e-05,-2.082893301e-04,9.661216834e-05,-1.116771617e-04,-1.292976466e-04,1.181260754e-04,-1.117157118e-05,-3.064318650e-04,8.851903032e-05,-2.179128346e-04,-3.101292003e-04,8.490261293e-05,-2.252265874e-04,-3.788188269e-04,1.251517861e-04,-2.536670409e-04,-2.436958282e-04,4.818581335e-05,-1.955100148e-04,-3.671201871e-04,7.107651464e-05,-2.960436725e-04,-2.718453351e-04,1.448694711e-05,-2.573583880e-04,-3.696292102e-04,3.379080136e-04,-3.172119661e-05,-5.677123167e-04,3.250275403e-04,-2.426847765e-04,-7.149832281e-04,4.934387715e-04,-2.215444566e-04,-6.983317593e-04,4.322775747e-04,-2.660541846e-04,-4.235053380e-04,1.694468490e-04,-2.540584890e-04,-2.448311293e-04,9.540192088e-05,-1.494292084e-04,-6.491197596e-04,2.255372589e-04,-4.235825008e-04,-7.146009155e-04,2.389017918e-04,-4.756991237e-04,-3.036554857e-04,8.627907570e-05,-2.173764100e-04,-2.697487132e-04,3.619925282e-05,-2.335494603e-04,-3.949447664e-04,1.458705707e-04,-2.490741958e-04,-2.583334589e-04,1.425427139e-04,-1.157907450e-04,1.818201781e-05,4.818217931e-05,6.636419712e-05,-6.103905114e-04,2.256429501e-04,-3.847475612e-04,-5.344775333e-04,2.590589234e-04,-2.754186099e-04,-1.282259324e-03,7.755544315e-04,-5.067048920e-04,-6.401913950e-04,3.510886018e-04,-2.891027932e-04,-3.961223568e-04,5.763088147e-05,-3.384914753e-04,-9.026130510e-04,2.592731001e-04,-6.433399509e-04,-3.395869681e-04,-3.121611298e-05,-3.708030810e-04,-5.416760398e-04,2.517802464e-04,-2.898957934e-04,-6.559552529e-05,1.402015765e-06,-6.419350952e-05,-1.846382603e-04,-1.610703053e-05,-2.007452908e-04,-2.126883001e-04,6.042114670e-05,-1.522671534e-04,-9.516786723e-05,-1.896236726e-04,-2.847915399e-04
-6.2,-7.510548574e-05,1.610956661e-05,-5.899591913e-05,-4.040018243e-04,2.030571618e-04,-2.009446625e-04,-1.953605274e-04,1.270029219e-04,-6.835760548e-05,-2.172604404e-04,1.018265501e-04,-1.154338903e-04,-1.251536192e-04,1.212658325e-04,-3.887786623e-06,-3.134126464e-04,8.975858120e-05,-2.236540652e-04,-3.081644134e-04,8.261739601e-05,-2.255470174e-04,-3.696662989e-04,1.173917259e-04,-2.522745730e-04,-2.393026590e-04,4.584361372e-05,-1.934590453e-04,-3.642239672e-04,7.209064620e-05,-2.921333210e-04,-2.725073337e-04,1.930549786e-05,-2.532018359e-04,-3.664601435e-04,3.417614954e-04,-2.469864810e-05,-5.737397130e-04,3.341649268e-04,-2.395747862e-04,-7.273002012e-04,5.091510461e-04,-2.181491551e-04,-7.150560812e-04,4.420589691e-04,-2.729971121e-04,-4.378324598e-04,1.687500960e-04,-2.690823638e-04,-2.693355447e-04,9.468689986e-05,-1.746486448e-04,-6.213533981e-04,2.100389793e-04,-4.113144188e-04,-7.042088350e-04,2.267700027e-04,-4.774388323e-04,-2.894070401e-04,8.241605779e-05,-2.069909823e-04,-2.816541125e-04,3.879154673e-05,-2.428625657e-04,-3.881359314e-04,1.458016790e-04,-2.423342523e-04,-2.430291130e-04,1.412077462e-04,-1.018213669e-04,7.713760186e-06,5.102296711e-05,5.873672730e-05,-6.109736786e-04,2.190716092e-04,-3.919020694e-04,-5.425054616e-04,2.621141941e-04,-2.803912675e-04,-1.296408884e-03,7.678211395e-04,-5.285877441e-04,-6.565836757e-04,3.531453059e-04,-3.034383698e-04,-4.097018985e-04,6.655314958e-05,-3.431487489e-04,-8.739173964e-04,2.528156842e-04,-6.211017122e-04,-3.654882244e-04,-2.386091565e-05,-3.893491400e-04,-5.536578364e-04,2.528243125e-04,-3.008335239e-04,-7.799281908e-05,5.332859630e-06,-7.265995945e-05,-2.020140961e-04,-1.231552112e-05,-2.143296173e-04,-2.209850453e-04,6.035476440e-05,-1.606302809e-04,-9.541358652e-05,-1.890705427e-04,-2.844841292e-04
-6.1,-6.655536699e-05,2.104936600e-05,-4.550600099e-05,-4.075420184e-04,2.097901909e-04,-1.977518275e-04,-1.820745976e-04,1.260263185e-04,-5.604827905e-05,-2.260227012e-04,1.070569538e-04,-1.189657474e-04,-1.205191662e-04,1.242328319e-04,3.713665685e-06,-3.192048803e-04,9.088510001e-05,-2.283197803e-04,-3.045105890e-04,8.012083690e-05,-2.243897521e-04,-3.590906658e-04,1.094698883e-04,-2.496207776e-04,-2.335931442e-04,4.351637037e-05,-1.900767739e-04,-3.592999543e-04,7.282431496e-05,-2.864756393e-04,-2.720493713e-04,2.435528227e-05,-2.476940890e-04,-3.616455919e-04,3.447527025e-04,-1.689288939e-05,-5.770074804e-04,3.427493955e-04,-2.342580848e-04,-7.361576807e-04,5.230671816e-04,-2.130904991e-04,-7.284100508e-04,4.500792941e-04,-2.783307567e-04,-4.502461416e-04,1.676799324e-04,-2.825662092e-04,-2.925824476e-04,9.383528443e-05,-1.987471632e-04,-5.904526164e-04,1.938226194e-04,-3.966299971e-04,-6.898837645e-04,2.139412281e-04,-4.759425365e-04,-2.743671251e-04,7.838629920e-05,-1.959808259e-04,-2.925147338e-04,4.140693815e-05,-2.511077957e-04,-3.803988407e-04,1.454776354e-04,-2.349212053e-04,-2.268975793e-04,1.394937277e-04,-8.740385169e-05,-1.700461481e-06,5.354205514e-05,5.184159366e-05,-6.100295148e-04,2.123653713e-04,-3.976641435e-04,-5.482175571e-04,2.641925500e-04,-2.840250071e-04,-1.302142053e-03,7.540056266e-04,-5.481364266e-04,-6.703443310e-04,3.544741209e-04,-3.158702100e-04,-4.216232977e-04,7.540480803e-05,-3.462184897e-04,-8.420820836e-04,2.458685243e-04,-5.962135593e-04,-3.892894613e-04,-1.617613058e-05,-4.054655919e-04,-5.629689212e-04,2.524387921e-04,-3.105301292e-04,-9.006057534e-05,9.409454139e-06,-8.065112120e-05,-2.179600455e-04,-8.445248307e-06,-2.264052938e-04,-2.280240982e-04,6.024679941e-05,-1.677772988e-04,-9.544079621e-05,-1.872397606e-04,-2.826805568e-04
-6,-5.669659529e-05,2.556095870e-05,-3.113563659e-05,-4.094441567e-04,2.160636838e-04,-1.933804729e-04,-1.682132656e-04,1.246523153e-04,-4.356095027e-05,-2.344562086e-04,1.122518417e-04,-1.222043669e-04,-1.153510997e-04,1.269916712e-04,1.164057143e-05,-3.237108970e-04,9.183665241e-05,-2.318742446e-04,-2.991417791e-04,7.737553343e-05,-2.217662456e-04,-3.470855229e-04,1.013685164e-04,-2.457170065e-04,-2.265400625e-04,4.117947237e-05,-1.853605901e-04,-3.523301488e-04,7.322449988e-05,-2.791056489e-04,-2.704246419e-04,2.958409666e-05,-2.408405452e-04,-3.552234898e-04,3.467467454e-04,-8.476744384e-06,-5.776103851e-04,3.507220281e-04,-2.268883570e-04,-7.416146477e-04,5.350992327e-04,-2.065154150e-04,-7.383996578e-04,4.563067200e-04,-2.820929378e-04,-4.606820056e-04,1.662150294e-04,-2.944669762e-04,-3.145366915e-04,9.285789525e-05,-2.216787963e-04,-5.564984893e-04,1.769458981e-04,-3.795525913e-04,-6.715830256e-04,2.003786356e-04,-4.712043900e-04,-2.585065331e-04,7.415536283e-05,-1.843511702e-04,-3.022326665e-04,4.400613371e-05,-2.582265328e-04,-3.716422314e-04,1.448394967e-04,-2.268027347e-04,-2.099468743e-04,1.373845851e-04,-7.256228917e-05,-1.007581535e-05,5.571614827e-05,4.564033292e-05,-6.075929313e-04,2.055357456e-04,-4.020571858e-04,-5.516525120e-04,2.652815783e-04,-2.863709337e-04,-1.299526977e-03,7.343958791e-04,-5.651310979e-04,-6.814116274e-04,3.550659441e-04,-3.263456833e-04,-4.317394103e-04,8.404583787e-05,-3.476935724e-04,-8.069770459e-04,2.383381160e-04,-5.686389300e-04,-4.108521599e-04,-8.244504337e-06,-4.190966643e-04,-5.694256846e-04,2.504964712e-04,-3.189292135e-04,-1.017452612e-04,1.357453614e-05,-8.817072508e-05,-2.324476205e-04,-4.503273943e-06,-2.369508944e-04,-2.337399197e-04,6.006811239e-05,-1.736718073e-04,-9.537083346e-05,-1.840646118e-04,-2.794354453e-04
-5.9,-4.557560337e-05,2.962393546e-05,-1.595166791e-05,-4.096161861e-04,2.217773991e-04,-1.878387870e-04,-1.538183032e-04,1.228837469e-04,-3.093455624e-05,-2.424468836e-04,1.173577721e-04,-1.250891115e-04,-1.096155303e-04,1.295046424e-04,1.988911212e-05,-3.268480088e-04,9.255265998e-05,-2.342953488e-04,-2.920489288e-04,7.434522537e-05,-2.177037034e-04,-3.336557624e-04,9.307047818e-05,-2.405852842e-04,-2.181335251e-04,3.880738014e-05,-1.793261449e-04,-3.433220416e-04,7.324263931e-05,-2.700794023e-04,-2.676051922e-04,3.493827514e-05,-2.326669170e-04,-3.472530711e-04,3.476170112e-04,3.639400920e-07,-5.756565425e-04,3.580076693e-04,-2.176488732e-04,-7.437511247e-04,5.451601260e-04,-1.985909987e-04,-7.450574757e-04,4.607144369e-04,-2.843430388e-04,-4.690952692e-04,1.643328077e-04,-3.047624615e-04,-3.351734683e-04,9.176554851e-05,-2.434079198e-04,-5.196049890e-04,1.594678112e-04,-3.601371778e-04,-6.493097022e-04,1.860490346e-04,-4.632606676e-04,-2.418069666e-04,6.969193396e-05,-1.721150327e-04,-3.107272307e-04,4.654991247e-05,-2.641773182e-04,-3.617836431e-04,1.438307282e-04,-2.179529150e-04,-1.921969785e-04,1.348668087e-04,-5.733016977e-05,-1.744232754e-05,5.752512746e-05,4.008279992e-05,-6.036967186e-04,1.985864260e-04,-4.051102926e-04,-5.528627026e-04,2.653712520e-04,-2.874914507e-04,-1.288756496e-03,7.093909210e-04,-5.793655746e-04,-6.897465246e-04,3.549041982e-04,-3.348423264e-04,-4.399244787e-04,9.233920577e-05,-3.475852729e-04,-7.685192748e-04,2.301423499e-04,-5.383769250e-04,-4.300629056e-04,-1.543353097e-07,-4.302172409e-04,-5.728808755e-04,2.469001003e-04,-3.259807752e-04,-1.129952725e-04,1.776543690e-05,-9.522983562e-05,-2.454718518e-04,-4.963649148e-07,-2.459682168e-04,-2.380890205e-04,5.979020360e-05,-1.782988169e-04,-9.532864871e-05,-1.794966987e-04,-2.748253474e-04
-5.8,-3.326551412e-05,3.322226253e-05,-4.325159281e-08,-4.079901252e-04,2.268346703e-04,-1.811554549e-04,-1.389430111e-04,1.207244831e-04,-1.821852805e-05,-2.498868127e-04,1.223199730e-04,-1.275668397e-04,-1.032873055e-04,1.317322987e-04,2.844499324e-05,-3.285481339e-04,9.297482832e-05,-2.355733056e-04,-2.832385110e-04,7.099534059e-05,-2.122431704e-04,-3.188162886e-04,8.455939934e-05,-2.342568893e-04,-2.083793497e-04,3.637403624e-05,-1.720053134e-04,-3.323062088e-04,7.283522940e-05,-2.594709794e-04,-2.635793267e-04,4.036338768e-05,-2.232159390e-04,-3.378122805e-04,3.472473188e-04,9.435038302e-06,-5.712654605e-04,3.645181870e-04,-2.067472735e-04,-7.426642388e-04,5.531649458e-04,-1.894992931e-04,-7.484362843e-04,4.632792019e-04,-2.851570824e-04,-4.754591916e-04,1.620097688e-04,-3.134494228e-04,-3.544771756e-04,9.056902913e-05,-2.639081465e-04,-4.799158492e-04,1.414479331e-04,-3.384679161e-04,-6.231092497e-04,1.709231126e-04,-4.521861370e-04,-2.242610977e-04,6.496840972e-05,-1.592926879e-04,-3.179345514e-04,4.899970091e-05,-2.689348505e-04,-3.507501579e-04,1.423981662e-04,-2.083519917e-04,-1.736788942e-04,1.319297955e-04,-4.174909867e-05,-2.384325004e-05,5.895227303e-05,3.510902299e-05,-5.983710060e-04,1.915140245e-04,-4.068569815e-04,-5.519119926e-04,2.644552157e-04,-2.874567769e-04,-1.270134863e-03,6.794823996e-04,-5.906524630e-04,-6.953302622e-04,3.539639881e-04,-3.413662741e-04,-4.460745896e-04,1.001532261e-04,-3.459213635e-04,-7.266710895e-04,2.212109229e-04,-5.054601666e-04,-4.468335744e-04,8.003407313e-06,-4.388301671e-04,-5.732230660e-04,2.415836079e-04,-3.316394581e-04,-1.237606190e-04,2.191569521e-05,-1.018449238e-04,-2.570475455e-04,3.567765504e-06,-2.534797800e-04,-2.410468177e-04,5.938373273e-05,-1.816630849e-04,-9.543591541e-05,-1.735081186e-04,-2.689440340e-04
-5.7,-1.986362763e-05,3.634457249e-05,1.648094486e-05,-4.045208108e-04,2.311438464e-04,-1.733769644e-04,-1.236508651e-04,1.181794185e-04,-5.471446580e-06,-2.566742058e-04,1.270828825e-04,-1.295913233e-04,-9.634895749e-05,1.336339880e-04,3.728503051e-05,-3.287569853e-04,9.304794431e-05,-2.357090410e-04,-2.727308591e-04,6.729351515e-05,-2.054373440e-04,-3.025906738e-04,7.581979161e-05,-2.267708822e-04,-1.972971816e-04,3.385329251e-05,-1.634438891e-04,-3.193335740e-04,7.196433114e-05,-2.473692429e-04,-2.583487943e-04,4.580485674e-05,-2.125439376e-04,-3.269942662e-04,3.455337253e-04,1.853945912e-05,-5.645659864e-04,3.701560583e-04,-1.944099280e-04,-7.384648955e-04,5.590327438e-04,-1.794321516e-04,-7.486030998e-04,4.639803439e-04,-2.846227559e-04,-4.797630230e-04,1.592221396e-04,-3.205408834e-04,-3.724395481e-04,8.927880634e-05,-2.831607417e-04,-4.376003391e-04,1.229459036e-04,-3.146544355e-04,-5.930648806e-04,1.549759942e-04,-4.380888864e-04,-2.058723177e-04,5.996129736e-05,-1.459110203e-04,-3.238067527e-04,5.131807505e-05,-2.724886776e-04,-3.384791401e-04,1.404928630e-04,-1.979862771e-04,-1.544337800e-04,1.285660335e-04,-2.586774643e-05,-2.933351626e-05,5.998443378e-05,3.065091753e-05,-5.916425285e-04,1.843088121e-04,-4.073337163e-04,-5.488731319e-04,2.625317975e-04,-2.863413343e-04,-1.244060751e-03,6.452318163e-04,-5.988289345e-04,-6.981619770e-04,3.522113332e-04,-3.459506439e-04,-4.501084654e-04,1.073639812e-04,-3.427444842e-04,-6.814380039e-04,2.114855104e-04,-4.699524936e-04,-4.611014189e-04,1.613824272e-05,-4.449631761e-04,-5.703757059e-04,2.345121546e-04,-3.358635513e-04,-1.339925851e-04,2.595675336e-05,-1.080358317e-04,-2.672049348e-04,7.679259449e-06,-2.595256754e-04,-2.426047250e-04,5.881757043e-05,-1.837871546e-04,-9.580503198e-05,-1.660920204e-04,-2.618970523e-04
-5.6,-5.489154112e-06,3.898436228e-05,3.349520817e-05,-3.991849511e-04,2.346194755e-04,-1.645654756e-04,-1.080145408e-04,1.152544405e-04,7.239899731e-06,-2.627137454e-04,1.315907472e-04,-1.311229983e-04,-8.879011421e-05,1.351684168e-04,4.637830255e-05,-3.274336819e-04,9.272055077e-05,-2.347131312e-04,-2.605592332e-04,6.321008838e-05,-1.973491449e-04,-2.850105379e-04,6.683719660e-05,-2.181733413e-04,-1.849196119e-04,3.121932737e-05,-1.537002845e-04,-3.044736336e-04,7.059799357e-05,-2.338756401e-04,-2.519273391e-04,5.120846745e-05,-2.007188716e-04,-3.149049308e-04,3.423864278e-04,2.748149705e-05,-5.556964503e-04,3.748181390e-04,-1.808783113e-04,-7.312765648e-04,5.626888268e-04,-1.685877380e-04,-7.456357257e-04,4.627993363e-04,-2.828363894e-04,-4.820112702e-04,1.559469343e-04,-3.260643358e-04,-3.890585193e-04,8.790480029e-05,-3.011537190e-04,-3.928498320e-04,1.040210135e-04,-2.888288185e-04,-5.592942549e-04,1.381881817e-04,-4.211060733e-04,-1.866546111e-04,5.465136231e-05,-1.320032487e-04,-3.283113252e-04,5.346911947e-05,-2.748422057e-04,-3.249194915e-04,1.380707954e-04,-1.868486961e-04,-1.345127560e-04,1.247711687e-04,-9.741587356e-06,-3.397881287e-05,6.061216878e-05,2.663335591e-05,-5.835342927e-04,1.769552827e-04,-4.065790101e-04,-5.438261245e-04,2.596045692e-04,-2.842215553e-04,-1.211010554e-03,6.072469527e-04,-6.037636015e-04,-6.982580623e-04,3.496029809e-04,-3.486550814e-04,-4.519692727e-04,1.138575625e-04,-3.381117102e-04,-6.328671023e-04,2.009194055e-04,-4.319476968e-04,-4.728297809e-04,2.416322380e-05,-4.486665571e-04,-5.642968052e-04,2.256815075e-04,-3.386152977e-04,-1.436442844e-04,2.981979873e-05,-1.138244857e-04,-2.759862978e-04,1.182536782e-05,-2.641609300e-04,-2.427688874e-04,5.805851281e-05,-1.847103746e-04,-9.653563793e-05,-1.572616696e-04,-2.537973075e-04
-5.5,9.718137656e-06,4.114016623e-05,5.085830389e-05,-3.919812563e-04,2.371833095e-04,-1.547979469e-04,-9.211565303e-05,1.119564039e-04,1.984075090e-05,-2.679177268e-04,1.357882974e-04,-1.321294294e-04,-8.060790371e-05,1.362942937e-04,5.568639003e-05,-3.245511983e-04,9.194552949e-05,-2.326056688e-04,-2.467700940e-04,5.871857716e-05,-1.880515169e-04,-2.661159044e-04,5.759833502e-05,-2.085175694e-04,-1.712927021e-04,2.844705163e-05,-1.428456504e-04,-2.878140769e-04,6.871060435e-05,-2.191034725e-04,-2.443411046e-04,5.652081237e-05,-1.878202922e-04,-3.016623380e-04,3.377318150e-04,3.606947705e-05,-5.448077347e-04,3.783995673e-04,-1.664081674e-04,-7.212363702e-04,5.640673485e-04,-1.571690217e-04,-7.396226868e-04,4.597201558e-04,-2.799025310e-04,-4.822249221e-04,1.521632708e-04,-3.300616513e-04,-4.043387163e-04,8.645649623e-05,-3.178822200e-04,-3.458763448e-04,8.473194162e-05,-2.611444032e-04,-5.219489224e-04,1.205468808e-04,-4.014020416e-04,-1.666328025e-04,4.902367294e-05,-1.176091295e-04,-3.314309512e-04,5.541875652e-05,-2.760121947e-04,-3.100335570e-04,1.350935510e-04,-1.749400060e-04,-1.139774496e-04,1.205440538e-04,6.566604151e-06,-3.785536457e-05,6.082991582e-05,2.297455125e-05,-5.740661805e-04,1.694327643e-04,-4.046334162e-04,-5.368582804e-04,2.556826173e-04,-2.811756632e-04,-1.171525081e-03,5.661601790e-04,-6.053649021e-04,-6.956534079e-04,3.460870103e-04,-3.495663976e-04,-4.516273996e-04,1.195321042e-04,-3.320952954e-04,-5.810459907e-04,1.894765548e-04,-3.915694359e-04,-4.820094912e-04,3.199754986e-05,-4.500119413e-04,-5.549798676e-04,2.151171689e-04,-3.398626987e-04,-1.526723351e-04,3.343763236e-05,-1.192347027e-04,-2.834442049e-04,1.599011354e-05,-2.674540914e-04,-2.415607891e-04,5.707164655e-05,-1.844891426e-04,-9.771406508e-05,-1.470483892e-04,-2.447624543e-04
-5.4,2.559849724e-05,4.281571520e-05,6.841421244e-05,-3.829315377e-04,2.387652048e-04,-1.441663329e-04,-7.604499628e-05,1.082930920e-04,3.224809569e-05,-2.722078620e-04,1.396214337e-04,-1.325864283e-04,-7.180827601e-05,1.369710512e-04,6.516277523e-05,-3.200975524e-04,9.068064620e-05,-2.294169062e-04,-2.314244141e-04,5.379614784e-05,-1.776282662e-04,-2.459562878e-04,4.809125817e-05,-1.978650296e-04,-1.564775408e-04,2.551254916e-05,-1.309649916e-04,-2.694614439e-04,6.628321676e-05,-2.031782271e-04,-2.356304033e-04,6.168978270e-05,-1.739406206e-04,-2.873975375e-04,3.315144918e-04,4.411695430e-05,-5.320681340e-04,3.807977071e-04,-1.512704269e-04,-7.084974902e-04,5.631139702e-04,-1.453835201e-04,-7.306662666e-04,4.547308050e-04,-2.759354616e-04,-4.804439671e-04,1.478535755e-04,-3.325903916e-04,-4.182933397e-04,8.494334127e-05,-3.333499985e-04,-2.969128847e-04,6.513665204e-05,-2.317762327e-04,-4.812162297e-04,1.020475237e-04,-3.791687061e-04,-1.458431320e-04,4.306772497e-05,-1.027754070e-04,-3.331637153e-04,5.713518422e-05,-2.760285311e-04,-2.937994259e-04,1.315290874e-04,-1.622703385e-04,-9.290088881e-05,1.158868235e-04,2.298593471e-05,-4.105014492e-05,6.063619822e-05,1.958605330e-05,-5.632567021e-04,1.617164107e-04,-4.015402913e-04,-5.280657594e-04,2.507807493e-04,-2.772850101e-04,-1.126200808e-03,5.226099852e-04,-6.035908227e-04,-6.904032746e-04,3.416040370e-04,-3.487992376e-04,-4.490835609e-04,1.242996757e-04,-3.247838853e-04,-5.261017013e-04,1.771300557e-04,-3.489716455e-04,-4.886603191e-04,3.956843177e-05,-4.490918874e-04,-5.424558639e-04,2.028733983e-04,-3.395824656e-04,-1.610392932e-04,3.674641276e-05,-1.242928804e-04,-2.896413135e-04,2.015435612e-05,-2.694869574e-04,-2.390189554e-04,5.582121347e-05,-1.831977419e-04,-9.941492442e-05,-1.354989719e-04,-2.349138963e-04
-5.3,4.197267351e-05,4.402003126e-05,8.599270477e-05,-3.720820260e-04,2.393039607e-04,-1.327780653e-04,-5.990275047e-05,1.042731766e-04,4.437042614e-05,-2.755172915e-04,1.430378680e-04,-1.324794235e-04,-6.240769616e-05,1.371596176e-04,7.475192147e-05,-3.140772206e-04,8.888911881e-05,-2.251881018e-04,-2.145993237e-04,4.842411343e-05,-1.661752103e-04,-2.245919570e-04,3.830555715e-05,-1.862863998e-04,-1.405519234e-04,2.239358954e-05,-1.181583338e-04,-2.495419171e-04,6.330388158e-05,-1.862380355e-04,-2.258516871e-04,6.666517980e-05,-1.591865073e-04,-2.722553111e-04,3.236989425e-04,5.144363141e-05,-5.176680167e-04,3.819161158e-04,-1.357519008e-04,-6.932312421e-04,5.597883654e-04,-1.334428767e-04,-7.188870909e-04,4.478260994e-04,-2.710609915e-04,-4.767299324e-04,1.430044188e-04,-3.337255136e-04,-4.309463639e-04,8.337512374e-05,-3.475712401e-04,-2.462144524e-04,4.529236112e-05,-2.009220913e-04,-4.373221735e-04,8.269517652e-05,-3.546269970e-04,-1.243337773e-04,3.677766905e-05,-8.755610821e-05,-3.335232765e-04,5.858937984e-05,-2.749338967e-04,-2.762129882e-04,1.273524670e-04,-1.488605212e-04,-7.136805702e-05,1.108049769e-04,3.943691983e-05,-4.366094674e-05,6.003381780e-05,1.637287106e-05,-5.511255189e-04,1.537785257e-04,-3.973469932e-04,-5.175557364e-04,2.449197302e-04,-2.726360062e-04,-1.075683942e-03,4.772259031e-04,-5.984580393e-04,-6.825842820e-04,3.360888231e-04,-3.464954590e-04,-4.443710614e-04,1.280879294e-04,-3.162831320e-04,-4.681986091e-04,1.638603245e-04,-3.043382846e-04,-4.928313637e-04,4.681189021e-05,-4.460194735e-04,-5.267948949e-04,1.890317673e-04,-3.377631277e-04,-1.687162069e-04,3.968732982e-05,-1.290288771e-04,-2.946510841e-04,2.429641209e-05,-2.703546721e-04,-2.352004121e-04,5.427171790e-05,-1.809286942e-04,-1.017032740e-04,-1.226732986e-04,-2.243765726e-04
-5.2,5.864323810e-05,4.476743610e-05,1.034106742e-04,-3.595037697e-04,2.387481382e-04,-1.207556314e-04,-4.379796213e-05,9.990626349e-05,5.610830136e-05,-2.777921615e-04,1.459877257e-04,-1.318044357e-04,-5.243436012e-05,1.368232116e-04,8.438885151e-05,-3.065119544e-04,8.654022463e-05,-2.199717298e-04,-1.963890365e-04,4.258846292e-05,-1.538005736e-04,-2.020945995e-04,2.823269672e-05,-1.738619028e-04,-1.236109321e-04,1.907016807e-05,-1.045407640e-04,-2.282009948e-04,5.976791111e-05,-1.684330837e-04,-2.150781362e-04,7.139938426e-05,-1.436787520e-04,-2.563929765e-04,3.142705517e-04,5.787757512e-05,-5.018221498e-04,3.816685215e-04,-1.201536283e-04,-6.756272246e-04,5.540664275e-04,-1.215607971e-04,-7.044275724e-04,4.390111195e-04,-2.654164529e-04,-4.711670657e-04,1.376070105e-04,-3.335600553e-04,-4.423336583e-04,8.176212511e-05,-3.605715332e-04,-1.940581492e-04,2.525557760e-05,-1.688025716e-04,-3.905331109e-04,6.250566027e-05,-3.280274506e-04,-1.021647499e-04,3.015252024e-05,-7.201222962e-05,-3.325383758e-04,5.975549163e-05,-2.727828842e-04,-2.572889272e-04,1.225463467e-04,-1.347425804e-04,-4.947536800e-05,1.053074444e-04,5.583207640e-05,-4.579565949e-05,5.902997451e-05,1.323431502e-05,-5.376958986e-04,1.455899928e-04,-3.921059059e-04,-5.054478794e-04,2.381266038e-04,-2.673212756e-04,-1.020663384e-03,4.306160439e-04,-5.900473399e-04,-6.722932969e-04,3.294723693e-04,-3.428209276e-04,-4.375559134e-04,1.308412942e-04,-3.067146192e-04,-4.075347008e-04,1.496533615e-04,-2.578813393e-04,-4.945993724e-04,5.367247923e-05,-4.409268932e-04,-5.081057078e-04,1.736986021e-04,-3.344071057e-04,-1.756844742e-04,4.220836867e-05,-1.334761056e-04,-2.985581751e-04,2.839308923e-05,-2.701650858e-04,-2.301804455e-04,5.238898433e-05,-1.777914612e-04,-1.046356023e-04,-1.086427946e-04,-2.132783968e-04
-5.1,7.539764777e-05,4.507751996e-05,1.204751677e-04,-3.452909806e-04,2.370568862e-04,-1.082340944e-04,-2.784667529e-05,9.520308210e-05,6.735640681e-05,-2.789921028e-04,1.484241187e-04,-1.305679841e-04,-4.192809436e-05,1.359281115e-04,9.400001711e-05,-2.974401929e-04,8.360987488e-05,-2.138303180e-04,-1.769040882e-04,3.628037273e-05,-1.406237155e-04,-1.785466701e-04,1.786646144e-05,-1.606802086e-04,-1.057654134e-04,1.552496625e-05,-9.024044718e-05,-2.056010121e-04,5.567794129e-05,-1.499230708e-04,-2.033975814e-04,7.584792381e-05,-1.275496576e-04,-2.399764219e-04,3.032361615e-04,6.325973958e-05,-4.847678548e-04,3.799825935e-04,-1.047852613e-04,-6.558906985e-04,5.459421408e-04,-1.099485577e-04,-6.874517939e-04,4.283042655e-04,-2.591475285e-04,-4.638608958e-04,1.316574510e-04,-3.322034448e-04,-4.525018041e-04,8.011498890e-05,-3.723868152e-04,-1.407409306e-04,5.082318435e-06,-1.356586122e-04,-3.411543678e-04,4.150647807e-05,-2.996478898e-04,-7.940677913e-05,2.319626639e-05,-5.621051275e-05,-3.302512261e-04,6.061104129e-05,-2.696401848e-04,-2.370601598e-04,1.171011136e-04,-1.199590461e-04,-2.732871153e-05,9.940663823e-05,7.207792670e-05,-4.757040513e-05,5.763628450e-05,1.006587936e-05,-5.229963075e-04,1.371218187e-04,-3.858744888e-04,-4.918738059e-04,2.304351275e-04,-2.614386784e-04,-9.618595772e-04,3.833565789e-04,-5.785029983e-04,-6.596435698e-04,3.216847018e-04,-3.379588680e-04,-4.287342588e-04,1.325216785e-04,-2.962125803e-04,-3.443360422e-04,1.344994246e-04,-2.098366177e-04,-4.940647793e-04,6.010242345e-05,-4.339623558e-04,-4.865320072e-04,1.570009766e-04,-3.295310307e-04,-1.819362735e-04,4.426617455e-05,-1.376700990e-04,-3.014570873e-04,3.242059173e-05,-2.690364955e-04,-2.240497428e-04,5.014097647e-05,-1.739087663e-04,-1.082583547e-04,-9.349002025e-05,-2.017483749e-04
-5,9.201331615e-05,4.497510034e-05,1.369884165e-04,-3.295569735e-04,2.342006892e-04,-9.535628432e-05,-1.216855521e-05,9.017573809e-05,7.800718289e-05,-2.790893319e-04,1.503036403e-04,-1.287856916e-04,-3.093866441e-05,1.344443260e-04,1.035056616e-04,-2.869148752e-04,8.008103465e-05,-2.068338406e-04,-1.562686997e-04,2.949660311e-05,-1.267720966e-04,-1.540393350e-04,7.203419486e-06,-1.468359155e-04,-8.713835857e-05,1.174366958e-05,-7.539468898e-05,-1.819165481e-04,5.104373328e-05,-1.308728148e-04,-1.909078345e-04,7.996982926e-05,-1.109380052e-04,-2.231742869e-04,2.906245893e-04,6.745030248e-05,-4.667585313e-04,3.768029990e-04,-8.995553228e-05,-6.342378038e-04,5.354291184e-04,-9.880868544e-05,-6.681415926e-04,4.157392363e-04,-2.524023563e-04,-4.549337686e-04,1.251566989e-04,-3.297770697e-04,-4.615044058e-04,7.844432654e-05,-3.830600793e-04,-8.657440210e-05,-1.517155416e-05,-1.017459563e-04,-2.895249643e-04,1.973765559e-05,-2.697873087e-04,-5.613931689e-05,1.591791495e-05,-4.022140195e-05,-3.267148658e-04,6.113703713e-05,-2.655778287e-04,-2.155760086e-04,1.110147595e-04,-1.045612491e-04,-5.040455639e-06,9.311844873e-05,8.807799309e-05,-4.910680375e-05,5.586868054e-05,6.761876786e-06,-5.070608152e-04,1.283468374e-04,-3.787139778e-04,-4.769740254e-04,2.218861700e-04,-2.550878555e-04,-9.000096622e-04,3.359835530e-04,-5.640261093e-04,-6.447587040e-04,3.126583355e-04,-3.321003685e-04,-4.180277238e-04,1.331087293e-04,-2.849189945e-04,-2.788498446e-04,1.183919302e-04,-1.604579144e-04,-4.913463440e-04,6.606082766e-05,-4.252855164e-04,-4.622461456e-04,1.390816170e-04,-3.231645286e-04,-1.874734306e-04,4.582782804e-05,-1.416456025e-04,-3.034485556e-04,3.635490264e-05,-2.670936530e-04,-2.169093399e-04,4.749845972e-05,-1.694108802e-04,-1.126040490e-04,-7.730918336e-05,-1.899132324e-04
-4.9,1.082639086e-04,4.449009738e-05,1.527540060e-04,-3.124286487e-04,2.301618387e-04,-8.226681006e-05,3.117388832e-06,8.483785632e-05,8.795524515e-05,-2.780668129e-04,1.515867186e-04,-1.264800943e-04,-1.952313388e-05,1.323461092e-04,1.128229754e-04,-2.750003724e-04,7.594391365e-05,-1.990564587e-04,-1.346171518e-04,2.223970858e-05,-1.123774433e-04,-1.286697998e-04,-3.756694398e-06,-1.324264942e-04,-6.786041667e-05,7.715177464e-06,-6.014523921e-05,-1.573290358e-04,4.588179344e-05,-1.114472424e-04,-1.777110972e-04,8.372779553e-05,-9.398330164e-05,-2.061521757e-04,2.764870854e-04,7.033490971e-05,-4.480543368e-04,3.720932111e-04,-7.596112574e-05,-6.108903771e-04,5.225617427e-04,-8.832863436e-05,-6.466910141e-04,4.013660597e-04,-2.453249544e-04,-4.445185208e-04,1.181101766e-04,-3.264083442e-04,-4.693973649e-04,7.676021096e-05,-3.926371540e-04,-3.187756157e-05,-3.545019739e-05,-6.732775896e-05,-2.360095900e-04,-2.747685243e-06,-2.387572752e-04,-3.244821752e-05,8.331511225e-06,-2.411670629e-05,-3.219900621e-04,6.131809525e-05,-2.606719669e-04,-1.928999601e-04,1.042926381e-04,-8.860732203e-05,1.727370350e-05,8.646209815e-05,1.037358017e-04,-5.052907294e-05,5.374718033e-05,3.218107387e-06,-4.899285980e-04,1.192413231e-04,-3.706872749e-04,-4.608933131e-04,2.125277596e-04,-2.483655535e-04,-8.358522323e-04,2.889878557e-04,-5.468643766e-04,-6.277664396e-04,3.023319829e-04,-3.254344567e-04,-4.055779922e-04,1.325995248e-04,-2.729784674e-04,-2.113371972e-04,1.013262892e-04,-1.100109080e-04,-4.865758477e-04,7.151328448e-05,-4.150625632e-04,-4.354420677e-04,1.200935740e-04,-3.153484937e-04,-1.923055112e-04,4.687232794e-05,-1.454331833e-04,-3.046346921e-04,4.017179325e-05,-2.644628988e-04,-2.088651150e-04,4.443576011e-05,-1.644293549e-04,-1.176863953e-04,-6.020702808e-05,-1.778934234e-04
-4.8,1.239254580e-04,4.365721956e-05,1.675826775e-04,-2.940411828e-04,2.249344636e-04,-6.910671924e-05,1.789694083e-05,7.920452677e-05,9.710146760e-05,-2.759163597e-04,1.522378259e-04,-1.236785338e-04,-7.743405576e-06,1.296123238e-04,1.218689183e-04,-2.617696450e-04,7.119595097e-05,-1.905736940e-04,-1.120905206e-04,1.451807796e-05,-9.757244266e-05,-1.025390993e-04,-1.501072389e-05,-1.175498232e-04,-4.806613266e-05,3.431775212e-06,-4.463435745e-05,-1.320222306e-04,4.021493125e-05,-9.180729937e-05,-1.639095143e-04,8.708823764e-05,-7.682127662e-05,-1.890683536e-04,2.608971598e-04,7.182880618e-05,-4.289133173e-04,3.658362003e-04,-6.307711707e-05,-5.860720086e-04,5.073957734e-04,-7.867623525e-05,-6.233016609e-04,3.852515564e-04,-2.380501045e-04,-4.327523648e-04,1.105270758e-04,-3.222252891e-04,-4.762353040e-04,7.507185463e-05,-4.011634493e-04,2.303054758e-05,-5.569813111e-05,-3.266758353e-05,-1.809901500e-04,-2.588333345e-05,-2.068734835e-04,-8.423622367e-06,4.560354479e-07,-7.967586919e-06,-3.161424075e-04,6.114251222e-05,-2.549998953e-04,-1.691077612e-04,9.694712831e-05,-7.216063293e-05,3.949727264e-05,7.945979168e-05,1.189570643e-04,-5.196157294e-05,5.129553627e-05,-6.660366711e-07,-4.716431725e-04,1.097861706e-04,-3.618570019e-04,-4.437762389e-04,2.024145345e-04,-2.413617043e-04,-7.701149419e-04,2.428133476e-04,-5.273015943e-04,-6.087943330e-04,2.906539005e-04,-3.181404325e-04,-3.915417207e-04,1.310075807e-04,-2.605341400e-04,-1.420668969e-04,8.329892070e-05,-5.876797623e-05,-4.798938794e-04,7.643171918e-05,-4.034621602e-04,-4.063292863e-04,1.001954551e-04,-3.061338313e-04,-1.964484247e-04,4.739172646e-05,-1.490566982e-04,-3.051145770e-04,4.384690963e-05,-2.612676673e-04,-2.000236365e-04,4.093173547e-05,-1.590919011e-04,-1.234961214e-04,-4.230372349e-05,-1.657998449e-04
-4.7,1.387812106e-04,4.251546444e-05,1.812966750e-04,-2.745341280e-04,2.185241341e-04,-5.600999381e-05,3.206388508e-05,7.329212123e-05,1.053560063e-04,-2.726373488e-04,1.522256231e-04,-1.204117256e-04,4.335258413e-06,1.262267205e-04,1.305619790e-04,-2.473023312e-04,6.584166317e-05,-1.814606680e-04,-8.883464014e-05,6.345876575e-06,-8.248876357e-05,-7.575094059e-05,-2.655196087e-05,-1.023029015e-04,-2.789180163e-05,-1.110708966e-06,-2.900251060e-05,-1.061794183e-04,3.407179911e-05,-7.210761919e-05,-1.496029313e-04,9.002130607e-05,-5.958162522e-05,-1.720712442e-04,2.439491585e-04,7.187791429e-05,-4.095856700e-04,3.580348019e-04,-5.155086809e-05,-5.600058193e-04,4.900083239e-04,-6.999749532e-05,-5.981800178e-04,3.674793392e-04,-2.307006786e-04,-4.197725487e-04,1.024196193e-04,-3.173529293e-04,-4.820701840e-04,7.338761753e-05,-4.086825665e-04,7.783655447e-05,-7.586093745e-05,1.975617018e-06,-1.248588561e-04,-4.959060621e-05,-1.744494623e-04,1.584169235e-05,-7.684933462e-06,8.156758890e-06,-3.092399666e-04,6.060218144e-05,-2.486377851e-04,-1.442861287e-04,8.899715398e-05,-5.528897472e-05,6.151457006e-05,7.213622886e-05,1.336507989e-04,-5.352704373e-05,4.854083065e-05,-4.986213088e-06,-4.522518961e-04,9.996754137e-05,-3.522843547e-04,-4.257640569e-04,1.916066025e-04,-2.341574545e-04,-7.035052326e-04,1.978565161e-04,-5.056487165e-04,-5.879679876e-04,2.775843985e-04,-3.103835892e-04,-3.760863140e-04,1.283613021e-04,-2.477250120e-04,-7.131146091e-05,6.430702853e-05,-7.004432383e-06,-4.714468919e-04,8.079413356e-05,-3.906527583e-04,-3.751287893e-04,7.954770547e-05,-2.955810838e-04,-1.999242930e-04,4.739187025e-05,-1.525324228e-04,-3.049813664e-04,4.735624040e-05,-2.576251260e-04,-1.904901201e-04,3.697083040e-05,-1.535192897e-04,-1.299985166e-04,-2.373357340e-05,-1.537320900e-04
-4.6,1.526248616e-04,4.110755653e-05,1.937324181e-04,-2.540491644e-04,2.109472102e-04,-4.310195425e-05,4.552207344e-05,6.711809513e-05,1.126401686e-04,-2.682362009e-04,1.515231168e-04,-1.167130841e-04,1.664461475e-05,1.221782041e-04,1.388228188e-04,-2.316838158e-04,5.989240142e-05,-1.717914143e-04,-6.499937456e-05,-2.257046675e-06,-6.725642123e-05,-4.841155902e-05,-3.837010223e-05,-8.678166126e-05,-7.474886922e-06,-5.912776638e-06,-1.338766356e-05,-7.998225668e-05,2.748639372e-05,-5.249586296e-05,-1.348886548e-04,9.250088434e-05,-4.238777044e-05,-1.552980532e-04,2.257552259e-04,7.045717272e-05,-3.903114842e-04,3.487121182e-04,-4.159936600e-05,-5.329133898e-04,4.704972265e-04,-6.241616329e-05,-5.715365184e-04,3.481493495e-04,-2.233871689e-04,-4.057142518e-04,9.380264166e-05,-3.119116102e-04,-4.869515003e-04,7.171512846e-05,-4.152363719e-04,1.322361305e-04,-9.588588382e-05,3.635024670e-05,-6.801375300e-05,-7.377920387e-05,-1.417929569e-04,4.025344109e-05,-1.606373401e-05,2.418970708e-05,-3.013515332e-04,5.969238569e-05,-2.416591475e-04,-1.185319953e-04,8.046762624e-05,-3.806436910e-05,8.321154208e-05,6.451811628e-05,1.477296584e-04,-5.534545283e-05,4.551310013e-05,-9.832352699e-06,-4.318059997e-04,8.977707938e-05,-3.420289203e-04,-4.069932108e-04,1.801681065e-04,-2.268251043e-04,-6.367017014e-04,1.544648138e-04,-4.822368876e-04,-5.654110274e-04,2.630972468e-04,-3.023137806e-04,-3.593864467e-04,1.247021401e-04,-2.346843066e-04,6.543365706e-07,4.434951976e-05,4.500385633e-05,-4.613852708e-04,8.458415283e-05,-3.768011180e-04,-3.420711389e-04,5.831013312e-05,-2.837610058e-04,-2.027622828e-04,4.689253241e-05,-1.558697504e-04,-3.043210040e-04,5.067699644e-05,-2.536440075e-04,-1.803681104e-04,3.254397910e-05,-1.478241313e-04,-1.371329191e-04,-4.645214646e-06,-1.417781337e-04
-4.5,1.652625058e-04,3.947941676e-05,2.047419225e-04,-2.327289825e-04,2.022301044e-04,-3.049887807e-05,5.818664595e-05,6.070081591e-05,1.188874619e-04,-2.627263689e-04,1.501078371e-04,-1.126185318e-04,2.911310533e-05,1.174610996e-04,1.465742049e-04,-2.150048701e-04,5.336603986e-05,-1.616388302e-04,-4.073868604e-05,-1.126525206e-05,-5.200393811e-05,-2.063015073e-05,-5.045122486e-05,-7.108137559e-05,1.304572360e-05,-1.097115332e-05,2.074570281e-06,-5.361049422e-05,2.049752306e-05,-3.311297116e-05,-1.198621875e-04,9.450459651e-05,-2.535759099e-05,-1.388733683e-04,2.064406971e-04,6.756732882e-05,-3.713200561e-04,3.379114270e-04,-3.340862911e-05,-5.050138350e-04,4.489799045e-04,-5.603393054e-05,-5.435854212e-04,3.273770923e-04,-2.162083289e-04,-3.907102002e-04,8.469364635e-05,-3.060165538e-04,-4.909268429e-04,7.006121743e-05,-4.208656255e-04,1.859352536e-04,-1.157221026e-04,7.021315100e-05,-1.085644536e-05,-9.834788093e-05,-1.092043263e-04,6.471654011e-05,-2.464912335e-05,4.006741676e-05,-2.925453230e-04,5.841162706e-05,-2.341336959e-04,-9.195199725e-05,7.138898998e-05,-2.056300726e-05,1.044762809e-04,5.663376376e-05,1.611100446e-04,-5.753308601e-05,4.224502658e-05,-1.528805942e-05,-4.103610613e-04,7.921182963e-05,-3.311492317e-04,-3.875950483e-04,1.681659008e-04,-2.194291475e-04,-5.703438835e-04,1.129319249e-04,-4.574119586e-04,-5.412456985e-04,2.471801756e-04,-2.940655229e-04,-3.416207943e-04,1.200826959e-04,-2.215380984e-04,7.355299788e-05,2.342912885e-05,9.698212673e-05,-4.498620409e-04,8.779057761e-05,-3.620714633e-04,-3.073961541e-04,3.664038534e-05,-2.707557688e-04,-2.049994438e-04,4.592671965e-05,-1.590727241e-04,-3.032120464e-04,5.378878493e-05,-2.494232615e-04,-1.697598209e-04,2.764913763e-05,-1.421106833e-04,-1.448137699e-04,1.479910972e-05,-1.300146602e-04
-4.4,1.765141618e-04,3.767963139e-05,2.141937932e-04,-2.107162636e-04,1.924085320e-04,-1.830773168e-05,6.998502632e-05,5.405940075e-05,1.240444271e-04,-2.561282731e-04,1.479619842e-04,-1.081662889e-04,4.166552878e-05,1.120753820e-04,1.537409108e-04,-1.973611724e-04,4.628662560e-05,-1.510745468e-04,-1.621059773e-05,-2.064777901e-05,-3.685837674e-05,7.480805739e-06,-6.277769730e-05,-5.529689157e-05,3.352975526e-05,-1.627867114e-05,1.725108412e-05,-2.724143175e-05,1.314827268e-05,-1.409315907e-05,-1.046174673e-04,9.601385446e-05,-8.603612811e-06,-1.229068314e-04,1.861385675e-04,6.323173611e-05,-3.528281998e-04,3.256950938e-04,-2.713310600e-05,-4.765218642e-04,4.255918461e-04,-5.093001802e-05,-5.145439432e-04,3.052927344e-04,-2.092512088e-04,-3.748906759e-04,7.511314253e-05,-2.997775333e-04,-4.940417783e-04,6.843158464e-05,-4.256101937e-04,2.386504089e-04,-1.353202470e-04,1.033301618e-04,4.620936486e-05,-1.231848667e-04,-7.697550184e-05,8.913579623e-05,-3.340665219e-05,5.572914404e-05,-2.828876689e-04,5.676157584e-05,-2.261260931e-04,-6.466163374e-05,6.179692757e-05,-2.864706171e-06,1.251999920e-04,4.851271685e-05,1.737127089e-04,-6.020129464e-05,3.877164516e-05,-2.142964949e-05,-3.879772756e-04,6.827387925e-05,-3.197033964e-04,-3.676957853e-04,1.556685340e-04,-2.120272513e-04,-5.050204385e-04,7.349119351e-05,-4.315292450e-04,-5.155934296e-04,2.298353249e-04,-2.857581047e-04,-3.229681804e-04,1.145649353e-04,-2.084032451e-04,1.471036366e-04,1.555335144e-06,1.486589717e-04,-4.370315073e-04,9.040709944e-05,-3.466244079e-04,-2.713522557e-04,1.469257057e-05,-2.566596851e-04,-2.066805887e-04,4.453919810e-05,-1.621413906e-04,-3.017257676e-04,5.667488852e-05,-2.450508791e-04,-1.587657758e-04,2.229129012e-05,-1.364744857e-04,-1.529323941e-04,3.442532983e-05,-1.185070643e-04
-4.3,1.862159841e-04,3.575882365e-05,2.219748077e-04,-1.881515787e-04,1.815267332e-04,-6.624845530e-06,8.085836435e-05,4.721356802e-05,1.280719324e-04,-2.484684837e-04,1.450724949e-04,-1.033959888e-04,5.422353081e-05,1.060268313e-04,1.602503621e-04,-1.788519703e-04,3.868401413e-05,-1.401679561e-04,8.423919298e-06,-3.036820007e-05,-2.194428077e-05,3.580606632e-05,-7.532798479e-05,-3.952191846e-05,5.383697951e-05,-2.182414810e-05,3.201283140e-05,-1.048030500e-06,5.485459146e-06,4.437428646e-06,-8.924524953e-05,9.701390984e-05,7.768660310e-06,-1.074896413e-04,1.649840048e-04,5.749436347e-05,-3.350357411e-04,3.121425839e-04,-2.289315719e-05,-4.476438496e-04,4.004845803e-04,-4.715926931e-05,-4.846290434e-04,2.820400398e-04,-2.025890035e-04,-3.583823471e-04,6.508498572e-05,-2.932973614e-04,-4.963381222e-04,6.683022281e-05,-4.295078994e-04,2.901092999e-04,-1.546317656e-04,1.354775343e-04,1.027806763e-04,-1.481683028e-04,-4.538762650e-05,1.134171087e-04,-4.229900842e-05,7.111810027e-05,-2.724411823e-04,5.474701910e-05,-2.176941632e-04,-3.678343530e-05,5.173200223e-05,1.494856693e-05,1.452790199e-04,4.018531765e-05,1.854643376e-04,-6.345442042e-05,3.512998755e-05,-2.832443287e-05,-3.647184017e-04,5.696953170e-05,-3.077488700e-04,-3.474153589e-04,1.427454095e-04,-2.046699494e-04,-4.412570577e-04,3.631019625e-05,-4.049468615e-04,-4.885747712e-04,2.110805108e-04,-2.774942604e-04,-3.036023372e-04,1.082184962e-04,-1.953838409e-04,2.210231570e-04,-2.125281410e-05,1.997703429e-04,-4.230468556e-04,9.243203266e-05,-3.306148230e-04,-2.341934646e-04,-7.384505399e-06,-2.415779700e-04,-2.078565923e-04,4.278451849e-05,-1.650720738e-04,-2.999255524e-04,5.932340192e-05,-2.406021505e-04,-1.474827286e-04,1.648193886e-05,-1.310007898e-04,-1.613585447e-04,5.405010835e-05,-1.073084363e-04
-4.2,1.942238521e-04,3.376889854e-05,2.279927507e-04,-1.651695285e-04,1.696366143e-04,4.467085737e-06,9.076371536e-05,4.018352370e-05,1.309472391e-04,-2.397776919e-04,1.414310169e-04,-9.834667500e-05,6.670735310e-05,9.932709999e-05,1.660344531e-04,-1.595775582e-04,3.059346272e-05,-1.289840954e-04,3.300355815e-05,-4.038471872e-05,-7.381160571e-06,6.422928502e-05,-8.807640039e-05,-2.384711537e-05,7.383035168e-05,-2.759234013e-05,4.623801155e-05,2.480462846e-05,-2.441004963e-06,2.236362349e-05,-7.382934036e-05,9.749379532e-05,2.366445496e-05,-9.269043816e-05,1.431096032e-04,5.041916505e-05,-3.181177630e-04,2.973476447e-04,-2.077011829e-05,-4.185718959e-04,3.738229247e-04,-4.474897119e-05,-4.540515390e-04,2.577749202e-04,-1.962766188e-04,-3.413051015e-04,5.463669931e-05,-2.866684022e-04,-4.978500030e-04,6.525848836e-05,-4.325915146e-04,3.400533831e-04,-1.736080051e-04,1.664453781e-04,1.584609258e-04,-1.731669290e-04,-1.470600325e-05,1.374694032e-04,-5.128648915e-05,8.618291408e-05,-2.612621800e-04,5.237563179e-05,-2.088865482e-04,-8.443945802e-06,4.123896668e-05,3.279502088e-05,1.646178561e-04,3.168214131e-05,1.962999975e-04,-6.738698686e-05,3.135863521e-05,-3.602835165e-05,-3.406486039e-04,4.530789080e-05,-2.953407132e-04,-3.268642540e-04,1.294659035e-04,-1.973983505e-04,-3.795049593e-04,1.488574451e-06,-3.780163849e-04,-4.603080588e-04,1.909513692e-04,-2.693566896e-04,-2.836852668e-04,1.011189873e-04,-1.825662796e-04,2.950298946e-04,-4.496461226e-05,2.500652824e-04,-4.080562564e-04,9.386778185e-05,-3.141884745e-04,-1.961739032e-04,-2.944913733e-05,-2.256230406e-04,-2.085810691e-04,4.072480960e-05,-1.678562595e-04,-2.978649395e-04,6.172794080e-05,-2.361369987e-04,-1.359999330e-04,1.023832612e-05,-1.257616068e-04,-1.699412236e-04,7.348368098e-05,-9.645754258e-05
-4.1,2.004179245e-04,3.176223516e-05,2.321801596e-04,-1.418936147e-04,1.567967257e-04,1.490311097e-05,9.967657271e-05,3.298984759e-05,1.326664203e-04,-2.300876827e-04,1.370337963e-04,-9.305388638e-05,7.903847432e-05,9.199368287e-05,1.710321572e-04,-1.396360051e-04,2.205511162e-05,-1.175808935e-04,5.737022496e-05,-5.065039213e-05,6.719832826e-06,9.263538464e-05,-1.009929362e-04,-8.357551541e-06,9.337997132e-05,-3.356403451e-05,5.981593681e-05,5.016360817e-05,-1.057887604e-05,3.958473213e-05,-5.844192374e-05,9.744606166e-05,3.900413792e-05,-7.855205400e-05,1.206417403e-04,4.208968631e-05,-3.022149498e-04,2.814142988e-04,-2.080065097e-05,-3.894773334e-04,3.457814481e-04,-4.369588525e-05,-4.230091911e-04,2.326634228e-04,-1.903457683e-04,-3.237674975e-04,4.379988387e-05,-2.799676137e-04,-4.985982174e-04,6.371374258e-05,-4.348844749e-04,3.882421685e-04,-1.921993235e-04,1.960428449e-04,2.128683217e-04,-1.980410971e-04,1.482722456e-05,1.612069290e-04,-6.032762244e-05,1.008793066e-04,-2.493978120e-04,4.965755422e-05,-1.997402578e-04,2.022986277e-05,3.036572354e-05,5.059558631e-05,1.831323182e-04,2.303334291e-05,2.061656611e-04,-7.208085722e-05,2.749721366e-05,-4.458364356e-05,-3.158276050e-04,3.329917573e-05,-2.825284293e-04,-3.061387890e-04,1.158983410e-04,-1.902404480e-04,-3.201301149e-04,-3.094080196e-05,-3.510709169e-04,-4.309067904e-04,1.695036955e-04,-2.614030948e-04,-2.633605008e-04,9.334636110e-05,-1.700141397e-04,3.688484446e-04,-6.953626044e-05,2.993121842e-04,-3.921981784e-04,9.472000915e-05,-2.974781693e-04,-1.575415906e-04,-5.136789738e-05,-2.089094880e-04,-2.089061271e-04,3.842742290e-05,-1.704787042e-04,-2.955844736e-04,6.388765868e-05,-2.316968149e-04,-1.243950418e-04,3.582707384e-06,-1.208123344e-04,-1.785092517e-04,9.253264814e-05,-8.597660360e-05
-4,2.047068301e-04,2.979091926e-05,2.344977493e-04,-1.184312981e-04,1.430710044e-04,2.463970630e-05,1.075929469e-04,2.565328863e-05,1.332462356e-04,-2.194281322e-04,1.318814719e-04,-8.754666032e-05,9.114216373e-05,8.404977042e-05,1.751919342e-04,-1.191200912e-04,1.311331862e-05,-1.060067726e-04,8.137234565e-05,-6.111351034e-05,2.025883531e-05,1.209127174e-04,-1.140432751e-04,6.869442306e-06,1.123664190e-04,-3.971626056e-05,7.265015844e-05,7.489160588e-05,-1.887440370e-05,5.601720218e-05,-4.313989171e-05,9.686634737e-05,5.372645567e-05,-6.509078601e-05,9.769817578e-05,3.260738976e-05,-2.874249421e-04,2.644516811e-04,-2.297326099e-05,-3.605056097e-04,3.165404253e-04,-4.396518435e-05,-3.916811127e-04,2.068791789e-04,-1.848019338e-04,-3.058624033e-04,3.261063256e-05,-2.732517707e-04,-4.985845650e-04,6.218771647e-05,-4.363968485e-04,4.344577076e-04,-2.103543436e-04,2.241033640e-04,2.656446533e-04,-2.226442577e-04,4.300039558e-05,1.845512719e-04,-6.937983080e-05,1.151714411e-04,-2.368836462e-04,4.660492415e-05,-1.902787221e-04,4.911378730e-05,1.916217797e-05,6.827596527e-05,2.007519817e-04,1.426797500e-05,2.150199567e-04,-7.760310411e-05,2.358583366e-05,-5.401727045e-05,-2.903055749e-04,2.095332888e-05,-2.693522460e-04,-2.853165488e-04,1.021088435e-04,-1.832077053e-04,-2.634035617e-04,-6.100886013e-05,-3.244124219e-04,-4.004765997e-04,1.468151046e-04,-2.536614951e-04,-2.427479524e-04,8.498354165e-05,-1.577644108e-04,4.422139050e-04,-9.490974851e-05,3.473041564e-04,-3.755973390e-04,9.499681108e-05,-2.806005279e-04,-1.185336084e-04,-7.301580906e-05,-1.915494174e-04,-2.088784006e-04,3.596243078e-05,-1.729159699e-04,-2.931083398e-04,6.580653778e-05,-2.273018021e-04,-1.127312224e-04,-3.458107664e-06,-1.161893300e-04,-1.868726957e-04,1.110028777e-04,-7.586981803e-05
-3.9,2.070303053e-04,2.790605458e-05,2.349363598e-04,-9.487059223e-05,1.285272660e-04,3.365667376e-05,1.145303620e-04,1.819442658e-05,1.327247886e-04,-2.078240558e-04,1.259787850e-04,-8.184527082e-05,1.029491004e-04,7.552398853e-05,1.784730889e-04,-9.811530080e-05,3.815904719e-06,-9.429939608e-05,1.048669745e-04,-7.171808027e-05,3.314889421e-05,1.489542583e-04,-1.271889606e-04,2.176529762e-05,1.306824885e-04,-4.602252562e-05,8.465996290e-05,9.886867042e-05,-2.727308582e-05,7.159558460e-05,-2.796340099e-05,9.575292246e-05,6.778952146e-05,-5.229851901e-05,7.438663620e-05,2.208811719e-05,-2.737976581e-04,2.465688809e-04,-2.722877724e-05,-3.317737236e-04,2.862817687e-04,-4.549195482e-05,-3.602247152e-04,1.806003493e-04,-1.796243659e-04,-2.876641102e-04,2.110967568e-05,-2.665544345e-04,-4.977879643e-04,6.066493985e-05,-4.371230245e-04,4.785074677e-04,-2.280194129e-04,2.504880548e-04,3.164624072e-04,-2.468251057e-04,6.963730149e-05,2.074326715e-04,-7.840008214e-05,1.290325893e-04,-2.237422116e-04,4.323147704e-05,-1.805107346e-04,7.808868482e-05,7.679150523e-06,8.576783535e-05,2.174214417e-04,5.413309596e-06,2.228347513e-04,-8.400486926e-05,1.966443523e-05,-6.434043403e-05,-2.641191374e-04,8.279229752e-06,-2.558399077e-04,-2.644535507e-04,8.816013005e-05,-1.762934207e-04,-2.094937961e-04,-8.880723315e-05,-2.983010292e-04,-3.691129570e-04,1.229853658e-04,-2.461275912e-04,-2.219411644e-04,7.611528703e-05,-1.458258773e-04,5.148745208e-04,-1.210119421e-04,3.938625787e-04,-3.583623855e-04,9.470824899e-05,-2.636541365e-04,-7.937373652e-05,-9.427527235e-05,-1.736490089e-04,-2.085363982e-04,3.340008036e-05,-1.751363179e-04,-2.904420803e-04,6.749233621e-05,-2.229497441e-04,-1.010564272e-04,-1.085283997e-05,-1.119092672e-04,-1.948259705e-04,1.287029280e-04,-6.612304248e-05
-3.8,2.073599262e-04,2.615716398e-05,2.335170902e-04,-7.127864736e-05,1.132355416e-04,4.195689425e-05,1.205276337e-04,1.063327806e-05,1.311609118e-04,-1.952942656e-04,1.193342595e-04,-7.596000617e-05,1.143958304e-04,6.645008019e-05,1.808459106e-04,-7.669919784e-05,-5.786579261e-06,-8.248577710e-05,1.277204077e-04,-8.240431832e-05,4.531608936e-05,1.766576166e-04,-1.403876310e-04,3.626998565e-05,1.482331933e-04,-5.245301789e-05,9.578017538e-05,1.219920602e-04,-3.572028827e-05,8.627177194e-05,-1.293671854e-05,9.410632050e-05,8.116960195e-05,-4.014660449e-05,5.080389015e-05,1.065728567e-05,-2.613357127e-04,2.278712495e-04,-3.346446327e-05,-3.033701883e-04,2.551854192e-04,-4.818476907e-05,-3.287748366e-04,1.540059838e-04,-1.747688528e-04,-2.692273480e-04,9.342104923e-06,-2.598852430e-04,-4.961632949e-04,5.912161776e-05,-4.370416771e-04,5.202247986e-04,-2.451382523e-04,2.750865462e-04,3.650292060e-04,-2.704302933e-04,9.459891275e-05,2.297906276e-04,-8.734559928e-05,1.424450284e-04,-2.099825294e-04,3.955217225e-05,-1.704303571e-04,1.070419839e-04,-4.032734284e-06,1.030092496e-04,2.331005080e-04,-3.505803982e-06,2.295947040e-04,-9.132107584e-05,1.577203068e-05,-7.554904516e-05,-2.372891619e-04,-4.715492251e-06,-2.420046542e-04,-2.435837043e-04,7.411042179e-05,-1.694732825e-04,-1.584625231e-04,-1.144854736e-04,-2.729479968e-04,-3.369004313e-04,9.813523108e-05,-2.387652003e-04,-2.010066925e-04,6.682713214e-05,-1.341795603e-04,5.865926922e-04,-1.477540932e-04,4.388385990e-04,-3.405854158e-04,9.386625004e-05,-2.467191657e-04,-4.027247503e-05,-1.150337829e-04,-1.553062580e-04,-2.079094038e-04,3.080837357e-05,-1.771010302e-04,-2.875722681e-04,6.895568536e-05,-2.186165827e-04,-8.940477878e-05,-1.856551733e-05,-1.079702961e-04,-2.021526280e-04,1.454480464e-04,-5.670458161e-05
-3.7,2.056982851e-04,2.459171866e-05,2.302900038e-04,-4.770197006e-05,9.726644583e-05,4.956447577e-05,1.256437095e-04,2.988986388e-06,1.286326959e-04,-1.818507138e-04,1.119599168e-04,-6.989079700e-05,1.254243755e-04,5.686660123e-05,1.822909768e-04,-5.494195846e-05,-1.564149801e-05,-7.058345646e-05,1.498076112e-04,-9.310908697e-05,5.669852422e-05,2.039241842e-04,-1.535932706e-04,5.033091360e-05,1.649346094e-04,-5.897479776e-05,1.059598117e-04,1.441748675e-04,-4.416176194e-05,1.000131056e-04,1.929457507e-06,9.192906839e-05,9.385852590e-05,-2.859016957e-05,2.703505000e-05,-1.555119579e-06,-2.499986089e-04,2.084585480e-04,-4.154006089e-05,-2.753567804e-04,2.234265256e-04,-5.193025479e-05,-2.974440112e-04,1.272718792e-04,-1.701721320e-04,-2.505880260e-04,-2.643132109e-06,-2.532311581e-04,-4.936428398e-04,5.752517686e-05,-4.361176630e-04,5.594672727e-04,-2.616516856e-04,2.978155871e-04,4.110896910e-04,-2.933072885e-04,1.177824025e-04,2.515740214e-04,-9.617467617e-05,1.553993452e-04,-1.956003575e-04,3.558276446e-05,-1.600175930e-04,1.358688469e-04,-1.592431312e-05,1.199445338e-04,2.477637685e-04,-1.246747565e-05,2.352962929e-04,-9.957068736e-05,1.194595285e-05,-8.762473451e-05,-2.098202743e-04,-1.802419951e-05,-2.278444738e-04,-2.227202169e-04,6.001265306e-05,-1.627075638e-04,-1.102648202e-04,-1.382475343e-04,-2.485123545e-04,-3.039136381e-04,7.240398413e-05,-2.315096540e-04,-1.799848756e-04,5.720437454e-05,-1.227805010e-04,6.571450456e-04,-1.750320338e-04,4.821130118e-04,-3.223425047e-04,9.248459093e-05,-2.298579138e-04,-1.428510030e-06,-1.351811548e-04,-1.366096649e-04,-2.070173853e-04,2.825090463e-05,-1.787664806e-04,-2.844679405e-04,7.020938940e-05,-2.142585511e-04,-7.779918696e-05,-2.655520198e-05,-1.043543889e-04,-2.086312729e-04,1.610643219e-04,-4.756695101e-05
-3.6,2.020773537e-04,2.325484065e-05,2.253321944e-04,-2.416743032e-05,8.068976755e-05,5.652233724e-05,1.299561336e-04,-4.720326696e-06,1.252358069e-04,-1.674982603e-04,1.038710366e-04,-6.362722368e-05,1.359816268e-04,4.681664490e-05,1.827982717e-04,-3.290739141e-05,-2.569470723e-05,-5.860209864e-05,1.710112426e-04,-1.037662802e-04,6.724496241e-05,2.306581076e-04,-1.667564915e-04,6.390161604e-05,1.807125685e-04,-6.555202550e-05,1.151605430e-04,1.653444738e-04,-5.254411861e-05,1.128003552e-04,1.663554764e-05,8.922547050e-05,1.058610181e-04,-1.757169067e-05,3.153077214e-06,-1.441861346e-05,-2.397079250e-04,1.884242373e-04,-5.128368766e-05,-2.477708211e-04,1.911734705e-04,-5.659735059e-05,-2.663226714e-04,1.005663019e-04,-1.657563695e-04,-2.317650038e-04,-1.479366404e-05,-2.465586678e-04,-4.901392840e-04,5.583437093e-05,-4.343049130e-04,5.961140105e-04,-2.774974204e-04,3.186165901e-04,4.544258290e-04,-3.153069764e-04,1.391188526e-04,2.727410719e-04,-1.048474928e-04,1.678935791e-04,-1.805787516e-04,3.133936233e-05,-1.492393892e-04,1.644734139e-04,-2.794921977e-05,1.365241942e-04,2.614001624e-04,-2.145313169e-05,2.399470307e-04,-1.087570820e-04,8.221244677e-06,-1.005358373e-04,-1.817014426e-04,-3.164077306e-05,-2.133422157e-04,-2.018580186e-04,4.591416412e-05,-1.559438545e-04,-6.475422668e-05,-1.603458087e-04,-2.251000354e-04,-2.702187977e-04,4.594607367e-05,-2.242727240e-04,-1.588910204e-04,4.733111217e-05,-1.115599082e-04,7.263226237e-04,-2.027269340e-04,5.235956897e-04,-3.036940808e-04,9.057876741e-05,-2.131153134e-04,3.696978798e-05,-1.546074116e-04,-1.176376236e-04,-2.058710173e-04,2.578503960e-05,-1.800859777e-04,-2.810826010e-04,7.126757503e-05,-2.098150259e-04,-6.625382574e-05,-3.477594121e-05,-1.010297670e-04,-2.140418579e-04,1.753926068e-04,-3.864925104e-05
-3.5,1.965570194e-04,2.218914710e-05,2.187461665e-04,-6.829422465e-07,6.357335384e-05,6.289041159e-05,1.335598456e-04,-1.247757917e-05,1.210822664e-04,-1.522342094e-04,9.508589219e-05,-5.714831720e-05,1.460192981e-04,3.634753502e-05,1.823668331e-04,-1.065357502e-05,-3.589111660e-05,-4.654469161e-05,1.912212825e-04,-1.143072016e-04,7.691408091e-05,2.567658821e-04,-1.798248357e-04,7.694104637e-05,1.955023297e-04,-7.214623646e-05,1.233560933e-04,1.854419874e-04,-6.081528852e-05,1.246266989e-04,3.119196248e-05,8.600141995e-05,1.171933824e-04,-7.022620976e-06,-2.078161213e-05,-2.780423311e-05,-2.303509309e-04,1.678551681e-04,-6.249576285e-05,-2.206264957e-04,1.585864918e-04,-6.204000382e-05,-2.354779099e-04,7.404589950e-05,-1.614320104e-04,-2.127615519e-04,-2.705405926e-05,-2.398156111e-04,-4.855486893e-04,5.399963684e-05,-4.315490525e-04,6.300637477e-04,-2.926100581e-04,3.374536895e-04,4.948573278e-04,-3.362859470e-04,1.585713809e-04,2.932594636e-04,-1.133267692e-04,1.799326944e-04,-1.648885074e-04,2.683808808e-05,-1.380504193e-04,1.927704605e-04,-4.006507674e-05,1.527053837e-04,2.740131402e-04,-3.044770531e-05,2.435654349e-04,-1.188680677e-04,4.630213025e-06,-1.142378547e-04,-1.529067091e-04,-4.555916442e-05,-1.984658736e-04,-1.809759215e-04,3.185685577e-05,-1.491190658e-04,-2.169258786e-05,-1.810712557e-04,-2.027638436e-04,-2.358740293e-04,1.892716831e-05,-2.169468610e-04,-1.377159822e-04,3.728915238e-05,-1.004268299e-04,7.939320648e-04,-2.307061921e-04,5.632258727e-04,-2.846844281e-04,8.816588763e-05,-1.965185405e-04,7.474433561e-05,-1.732022929e-04,-9.845795724e-05,-2.044709787e-04,2.346048627e-05,-1.810104924e-04,-2.773554503e-04,7.214450528e-05,-2.052109450e-04,-5.477508475e-05,-4.317708533e-05,-9.795217008e-05,-2.181713521e-04,1.882920763e-04,-2.987927580e-05
