Time,S1D1HbO,S1D1HbR,S1D1HbT,S2D2HbO,S2D2HbR,S2D2HbT,S3D3HbO,S3D3HbR,S3D3HbT,S4D4HbO,S4D4HbR,S4D4HbT,S5D5HbO,S5D5HbR,S5D5HbT,S6D6HbO,S6D6HbR,S6D6HbT,S7D7HbO,S7D7HbR,S7D7HbT,S8D8HbO,S8D8HbR,S8D8HbT,S9D9HbO,S9D9HbR,S9D9HbT,S10D10HbO,S10D10HbR,S10D10HbT,S11D11HbO,S11D11HbR,S11D11HbT,S12D12HbO,S12D12HbR,S12D12HbT,S13D13HbO,S13D13HbR,S13D13HbT,S14D14HbO,S14D14HbR,S14D14HbT,S15D15HbO,S15D15HbR,S15D15HbT,S16D16HbO,S16D16HbR,S16D16HbT,S17D17HbO,S17D17HbR,S17D17HbT,S18D18HbO,S18D18HbR,S18D18HbT,S19D19HbO,S19D19HbR,S19D19HbT,S20D20HbO,S20D20HbR,S20D20HbT,S21D21HbO,S21D21HbR,S21D21HbT,S22D22HbO,S22D22HbR,S22D22HbT,S23D23HbO,S23D23HbR,S23D23HbT,S24D24HbO,S24D24HbR,S24D24HbT,S25D25HbO,S25D25HbR,S25D25HbT,S26D26HbO,S26D26HbR,S26D26HbT,S27D27HbO,S27D27HbR,S27D27HbT,S28D28HbO,S28D28HbR,S28D28HbT,S29D29HbO,S29D29HbR,S29D29HbT,S30D30HbO,S30D30HbR,S30D30HbT,S31D31HbO,S31D31HbR,S31D31HbT,S32D32HbO,S32D32HbR,S32D32HbT,S33D33HbO,S33D33HbR,S33D33HbT,S34D34HbO,S34D34HbR,S34D34HbT,S35D35HbO,S35D35HbR,S35D35HbT,S36D36HbO,S36D36HbR,S36D36HbT,
-10,-1.225010435e-03,2.051439835e-04,-1.019866451e-03,-1.390495728e-03,1.462181359e-04,-1.244277592e-03,-4.326032601e-03,2.167515306e-04,-4.109281071e-03,-2.592772275e-03,2.786096694e-05,-2.564911308e-03,-2.395662098e-03,2.091158299e-04,-2.186546268e-03,-1.866147923e-03,1.160502607e-04,-1.750097662e-03,-1.694942640e-03,1.428369490e-04,-1.552105691e-03,-2.460295983e-03,1.569345229e-04,-2.303361460e-03,-2.028380299e-03,3.114005670e-04,-1.716979732e-03,-2.438969070e-03,1.342733861e-04,-2.304695684e-03,-3.288378320e-03,8.912372871e-05,-3.199254592e-03,-1.470087057e-03,1.253852126e-04,-1.344701845e-03,-3.328916019e-03,7.255092801e-04,-2.603406739e-03,-1.471823065e-03,2.734562107e-04,-1.198366854e-03,-2.996546385e-03,6.594192960e-04,-2.337127089e-03,-2.941684065e-03,2.551602592e-04,-2.686523806e-03,-2.878820791e-03,-1.802363833e-04,-3.059057174e-03,-2.652174466e-03,1.335957238e-04,-2.518578742e-03,-2.203093532e-03,-8.715748120e-05,-2.290251013e-03,-2.178972531e-03,3.253563117e-05,-2.146436900e-03,-2.790308588e-03,-1.947248610e-04,-2.985033449e-03,-2.908739458e-03,8.841504447e-05,-2.820324414e-03,-4.962378861e-03,-2.345323644e-04,-5.196911226e-03,-3.444691999e-03,-1.374394326e-04,-3.582131432e-03,-2.670412837e-03,3.814194135e-05,-2.632270896e-03,-1.833537457e-03,3.060263020e-05,-1.802934827e-03,-2.464858184e-03,4.948941510e-05,-2.415368769e-03,-2.664321456e-03,2.094651338e-04,-2.454856322e-03,-3.182195888e-03,2.492257719e-04,-2.932970116e-03,-2.472191498e-03,-3.554620825e-05,-2.507737706e-03,-3.035719097e-03,-5.255752238e-04,-3.561294321e-03,-2.751321151e-03,1.633010281e-04,-2.588020123e-03,-2.689434162e-03,1.884146576e-04,-2.501019505e-03,-4.099437457e-03,7.559573108e-04,-3.343480146e-03,-2.272106092e-03,-2.500862427e-04,-2.522192335e-03,-2.136597447e-03,-9.255004268e-04,-3.062097874e-03
-9.9,-1.179913744e-03,2.027769119e-04,-9.771368317e-04,-1.360323703e-03,1.447519986e-04,-1.215571705e-03,-4.185550176e-03,2.181493849e-04,-3.967400791e-03,-2.515608881e-03,3.125646290e-05,-2.484352418e-03,-2.326822936e-03,2.032232685e-04,-2.123599668e-03,-1.803740762e-03,1.205799165e-04,-1.683160846e-03,-1.640990125e-03,1.456780305e-04,-1.495312095e-03,-2.423490955e-03,1.720315017e-04,-2.251459453e-03,-1.991426902e-03,3.095328368e-04,-1.681894065e-03,-2.405226217e-03,1.382238743e-04,-2.267002343e-03,-3.215683012e-03,9.174497723e-05,-3.123938035e-03,-1.416183725e-03,1.257623461e-04,-1.290421379e-03,-3.274420278e-03,7.506010705e-04,-2.523819208e-03,-1.418581165e-03,2.614483264e-04,-1.157132838e-03,-2.921358166e-03,6.575471020e-04,-2.263811064e-03,-2.877963914e-03,2.602548879e-04,-2.617709026e-03,-2.703769692e-03,-2.180930457e-04,-2.921862738e-03,-2.551280451e-03,1.239488682e-04,-2.427331583e-03,-2.108808907e-03,-8.798535845e-05,-2.196794265e-03,-2.127774361e-03,3.434379472e-05,-2.093430567e-03,-2.717573420e-03,-1.854172651e-04,-2.902990685e-03,-2.824867411e-03,8.985426395e-05,-2.735013148e-03,-4.791015918e-03,-2.258889665e-04,-5.016904884e-03,-3.331500663e-03,-1.334713515e-04,-3.464972014e-03,-2.614654444e-03,4.330114417e-05,-2.571353300e-03,-1.773667248e-03,2.415075054e-05,-1.749516498e-03,-2.404557617e-03,5.236161319e-05,-2.352196004e-03,-2.587380268e-03,2.012458653e-04,-2.386134403e-03,-3.117828621e-03,2.535845812e-04,-2.864244040e-03,-2.400067495e-03,-4.511151470e-05,-2.445179010e-03,-2.973677474e-03,-4.854441417e-04,-3.459121616e-03,-2.657587001e-03,1.510423648e-04,-2.506544636e-03,-2.613463848e-03,2.374793740e-04,-2.375984474e-03,-3.979697468e-03,7.461069197e-04,-3.233590548e-03,-2.184309182e-03,-2.549644865e-04,-2.439273668e-03,-2.016657816e-03,-9.610365148e-04,-2.977694331e-03
-9.8,-1.134428728e-03,2.000639604e-04,-9.343647680e-04,-1.328448512e-03,1.432069329e-04,-1.185241579e-03,-4.041890552e-03,2.193026063e-04,-3.822587946e-03,-2.435211272e-03,3.458873657e-05,-2.400622535e-03,-2.252098376e-03,1.970035048e-04,-2.055094871e-03,-1.737786882e-03,1.244847098e-04,-1.613302172e-03,-1.583094757e-03,1.484886126e-04,-1.434606144e-03,-2.379596791e-03,1.858236487e-04,-2.193773143e-03,-1.949255975e-03,3.081165425e-04,-1.641139432e-03,-2.365996887e-03,1.421832663e-04,-2.223813620e-03,-3.137239349e-03,9.393127875e-05,-3.043308070e-03,-1.358511696e-03,1.250127141e-04,-1.233498982e-03,-3.210112230e-03,7.706036004e-04,-2.439508630e-03,-1.363000037e-03,2.488831161e-04,-1.114116920e-03,-2.840442929e-03,6.546579812e-04,-2.185784948e-03,-2.811099599e-03,2.651536978e-04,-2.545945902e-03,-2.528437593e-03,-2.553320598e-04,-2.783769652e-03,-2.447910678e-03,1.149092202e-04,-2.333001457e-03,-2.012217321e-03,-8.776932236e-05,-2.099986644e-03,-2.071534409e-03,3.618725737e-05,-2.035347152e-03,-2.641186136e-03,-1.759982910e-04,-2.817184427e-03,-2.737998149e-03,9.136485623e-05,-2.646633292e-03,-4.615145474e-03,-2.170014744e-04,-4.832146948e-03,-3.215064710e-03,-1.294325171e-04,-3.344497227e-03,-2.554922152e-03,4.792922784e-05,-2.506992924e-03,-1.711095856e-03,1.749503541e-05,-1.693600821e-03,-2.341079679e-03,5.560013769e-05,-2.285479541e-03,-2.507490595e-03,1.921719036e-04,-2.315318691e-03,-3.049350859e-03,2.578694902e-04,-2.791481369e-03,-2.325885037e-03,-5.390037057e-05,-2.379785407e-03,-2.908876460e-03,-4.425577472e-04,-3.351434208e-03,-2.560914858e-03,1.387012803e-04,-2.422213578e-03,-2.535006332e-03,2.876679009e-04,-2.247338431e-03,-3.847445777e-03,7.305014080e-04,-3.116944369e-03,-2.099146827e-03,-2.541283564e-04,-2.353275184e-03,-1.889091373e-03,-9.939072048e-04,-2.882998577e-03
-9.7,-1.088521199e-03,1.970248348e-04,-8.914963639e-04,-1.294877184e-03,1.415978141e-04,-1.153279370e-03,-3.895221133e-03,2.202215785e-04,-3.674999555e-03,-2.351731089e-03,3.786000919e-05,-2.313871080e-03,-2.171691520e-03,1.904853460e-04,-1.981206174e-03,-1.668375926e-03,1.277526292e-04,-1.540623297e-03,-1.521298116e-03,1.512473290e-04,-1.370050787e-03,-2.328545205e-03,1.981498705e-04,-2.130395335e-03,-1.901963722e-03,3.071366855e-04,-1.594827036e-03,-2.321307469e-03,1.461197001e-04,-2.175187769e-03,-3.053165608e-03,9.567523396e-05,-2.957490374e-03,-1.297152966e-03,1.231494524e-04,-1.174003514e-03,-3.136012369e-03,7.853442150e-04,-2.350668154e-03,-1.305178029e-03,2.358093555e-04,-1.069368673e-03,-2.753752903e-03,6.505734288e-04,-2.103179474e-03,-2.741093567e-03,2.698822527e-04,-2.471211315e-03,-2.353911927e-03,-2.911269013e-04,-2.645038828e-03,-2.342299457e-03,1.066228993e-04,-2.235676558e-03,-1.913413214e-03,-8.649836381e-05,-1.999911578e-03,-2.010361489e-03,3.805780381e-05,-1.972303685e-03,-2.561263963e-03,-1.664796966e-04,-2.727743660e-03,-2.648270246e-03,9.294260062e-05,-2.555327645e-03,-4.435037911e-03,-2.078830879e-04,-4.642920999e-03,-3.095553652e-03,-1.253353912e-04,-3.220889043e-03,-2.491282022e-03,5.201415961e-05,-2.439267862e-03,-1.645891322e-03,1.065219398e-05,-1.635239128e-03,-2.274376860e-03,5.916319606e-05,-2.215213664e-03,-2.424813519e-03,1.823139034e-04,-2.242499616e-03,-2.976887033e-03,2.620877253e-04,-2.714799307e-03,-2.249809373e-03,-6.182205233e-05,-2.311631425e-03,-2.840940664e-03,-3.974427691e-04,-3.238383433e-03,-2.461566770e-03,1.264415111e-04,-2.335125259e-03,-2.454225051e-03,3.386554614e-04,-2.115569590e-03,-3.703080364e-03,7.093872002e-04,-2.993693164e-03,-2.016291598e-03,-2.478901770e-04,-2.264181775e-03,-1.754355071e-03,-1.023774309e-03,-2.778129381e-03
-9.6,-1.042180537e-03,1.936795332e-04,-8.485010034e-04,-1.259632930e-03,1.399375264e-04,-1.119695404e-03,-3.745751639e-03,2.209165025e-04,-3.524835137e-03,-2.265353614e-03,4.107284482e-05,-2.224280769e-03,-2.085856339e-03,1.836998052e-04,-1.902156534e-03,-1.595621285e-03,1.303745159e-04,-1.465246769e-03,-1.455679648e-03,1.539347800e-04,-1.301744868e-03,-2.270345805e-03,2.088882221e-04,-2.061457582e-03,-1.849679194e-03,3.065742964e-04,-1.543104898e-03,-2.271211780e-03,1.499981448e-04,-2.121213636e-03,-2.963618079e-03,9.696986135e-05,-2.866648218e-03,-1.232223018e-03,1.201979711e-04,-1.112025047e-03,-3.052241903e-03,7.947324905e-04,-2.257509412e-03,-1.245228728e-03,2.222796382e-04,-1.022949090e-03,-2.661282580e-03,6.451131417e-04,-2.016169439e-03,-2.667950241e-03,2.744614614e-04,-2.393488780e-03,-2.181238138e-03,-3.246623930e-04,-2.505900531e-03,-2.234697153e-03,9.922440054e-05,-2.135472753e-03,-1.812501940e-03,-8.418264572e-05,-1.896684585e-03,-1.944391374e-03,3.994475284e-05,-1.904446622e-03,-2.477947648e-03,-1.568733552e-04,-2.634821003e-03,-2.555839904e-03,9.458275881e-05,-2.461257145e-03,-4.250997234e-03,-1.985494717e-04,-4.449546706e-03,-2.973166031e-03,-1.211920469e-04,-3.094358078e-03,-2.423815754e-03,5.555111105e-05,-2.368264643e-03,-1.578139460e-03,3.639199454e-06,-1.574500261e-03,-2.204396428e-03,6.298910183e-05,-2.141407327e-03,-2.339517278e-03,1.717510002e-04,-2.167766277e-03,-2.900570182e-03,2.662470434e-04,-2.634323138e-03,-2.171996982e-03,-6.880368434e-05,-2.240800667e-03,-2.769469157e-03,-3.506439517e-04,-3.120113109e-03,-2.359812252e-03,1.144215026e-04,-2.245390750e-03,-2.371209236e-03,3.900333763e-04,-1.981175860e-03,-3.547124977e-03,6.830997991e-04,-2.864025178e-03,-1.935392754e-03,-2.366004561e-04,-2.171993211e-03,-1.612989894e-03,-1.050302005e-03,-2.663291898e-03
-9.5,-9.954195344e-04,1.900481319e-04,-8.053714025e-04,-1.222754703e-03,1.382366681e-04,-1.084518035e-03,-3.593731349e-03,2.213970349e-04,-3.372334314e-03,-2.176294804e-03,4.423008464e-05,-2.132064720e-03,-1.994894969e-03,1.766797542e-04,-1.818215215e-03,-1.519658919e-03,1.323430985e-04,-1.387315820e-03,-1.386355860e-03,1.565335772e-04,-1.229822283e-03,-2.205083905e-03,2.179578654e-04,-1.987126040e-03,-1.792564095e-03,3.064064752e-04,-1.486157620e-03,-2.215790707e-03,1.537809318e-04,-2.062009776e-03,-2.868790687e-03,9.780889944e-05,-2.770981787e-03,-1.163867146e-03,1.161939726e-04,-1.047673173e-03,-2.959015111e-03,7.987548166e-04,-2.160260295e-03,-1.183280239e-03,2.083501654e-04,-9.749300735e-04,-2.563077061e-03,6.381039349e-04,-1.924973126e-03,-2.591673306e-03,2.789049069e-04,-2.312768399e-03,-2.011404923e-03,-3.551557461e-04,-2.366560669e-03,-2.125364403e-03,9.283182205e-05,-2.032532581e-03,-1.709603832e-03,-8.085152950e-05,-1.790455361e-03,-1.873786325e-03,4.183518328e-05,-1.831951141e-03,-2.391401077e-03,-1.471914337e-04,-2.538592510e-03,-2.460880607e-03,9.627994829e-05,-2.364600659e-03,-4.063360126e-03,-1.890186659e-04,-4.252378792e-03,-2.848129023e-03,-1.170140849e-04,-2.965143108e-03,-2.352620105e-03,5.854277927e-05,-2.294077326e-03,-1.507942792e-03,-3.526558263e-06,-1.511469350e-03,-2.131086448e-03,6.700132782e-05,-2.064085121e-03,-2.251774786e-03,1.605679586e-04,-2.091206827e-03,-2.820541434e-03,2.703542770e-04,-2.550187157e-03,-2.092594627e-03,-7.479473281e-05,-2.167389360e-03,-2.694059187e-03,-3.027024358e-04,-2.996761623e-03,-2.255927117e-03,1.027925168e-04,-2.153134600e-03,-2.285959870e-03,4.412990442e-04,-1.844660826e-03,-3.380239283e-03,6.520678442e-04,-2.728171439e-03,-1.856099728e-03,-2.206297992e-04,-2.076729527e-03,-1.465616003e-03,-1.073161311e-03,-2.538777314e-03
-9.4,-9.482743452e-04,1.861506176e-04,-7.621237276e-04,-1.184297382e-03,1.365033868e-04,-1.047793995e-03,-3.439447007e-03,2.216719416e-04,-3.217775065e-03,-2.084799041e-03,4.733482494e-05,-2.037464216e-03,-1.899155798e-03,1.694595848e-04,-1.729696213e-03,-1.440647591e-03,1.336522776e-04,-1.306995313e-03,-1.313480383e-03,1.590282383e-04,-1.154452145e-03,-2.132916894e-03,2.253192937e-04,-1.907597600e-03,-1.730813085e-03,3.066065230e-04,-1.424206562e-03,-2.155152935e-03,1.574283931e-04,-1.997724542e-03,-2.768915567e-03,9.818711481e-05,-2.670728453e-03,-1.092259298e-03,1.111818965e-04,-9.810774018e-04,-2.856630958e-03,7.974655601e-04,-2.059165398e-03,-1.119475600e-03,1.940802686e-04,-9.253953311e-04,-2.459242480e-03,6.293886507e-04,-1.829853829e-03,-2.512265716e-03,2.832160289e-04,-2.229049687e-03,-1.845330053e-03,-3.818767053e-04,-2.227206758e-03,-2.014568317e-03,8.754200366e-05,-1.927026314e-03,-1.604859163e-03,-7.655143758e-05,-1.681410600e-03,-1.798736060e-03,4.371407885e-05,-1.755021981e-03,-2.301812038e-03,-1.374467170e-04,-2.439258755e-03,-2.363584399e-03,9.802785972e-05,-2.265556539e-03,-3.872496544e-03,-1.793110843e-04,-4.051807628e-03,-2.720699002e-03,-1.128126630e-04,-2.833511665e-03,-2.277806930e-03,6.099917575e-05,-2.216807754e-03,-1.435420934e-03,-1.082723080e-05,-1.446248165e-03,-2.054403509e-03,7.111422808e-05,-1.983289281e-03,-2.161762865e-03,1.488524178e-04,-2.012910447e-03,-2.736951774e-03,2.744137552e-04,-2.462538019e-03,-2.011742029e-03,-7.977048662e-05,-2.091512515e-03,-2.614332472e-03,-2.541359727e-04,-2.868468445e-03,-2.150192537e-03,9.169534374e-05,-2.058497193e-03,-2.198389361e-03,4.918595295e-04,-1.706529832e-03,-3.203227502e-03,6.168115655e-04,-2.586415936e-03,-1.778090065e-03,-2.003514805e-04,-1.978441546e-03,-1.312932569e-03,-1.092030683e-03,-2.404963252e-03
-9.3,-9.008050137e-04,1.820067803e-04,-7.187982334e-04,-1.144332902e-03,1.347433515e-04,-1.009589551e-03,-3.283221926e-03,2.217487878e-04,-3.061473138e-03,-1.991138128e-03,5.039044089e-05,-1.940747687e-03,-1.799032899e-03,1.620749364e-04,-1.636957963e-03,-1.358770678e-03,1.342968239e-04,-1.224473854e-03,-1.237245373e-03,1.614049565e-04,-1.075840416e-03,-2.054070322e-03,2.309729106e-04,-1.823097412e-03,-1.664654701e-03,3.071441716e-04,-1.357510530e-03,-2.089436851e-03,1.608996095e-04,-1.928537242e-03,-2.664264685e-03,9.810061625e-05,-2.566164069e-03,-1.017604113e-03,1.052138830e-04,-9.123902297e-04,-2.745464877e-03,7.909759884e-04,-1.954488889e-03,-1.053974559e-03,1.795317000e-04,-8.744428590e-04,-2.349957225e-03,6.188337302e-04,-1.731123495e-03,-2.429733280e-03,2.873853769e-04,-2.142347903e-03,-1.683847223e-03,-4.041653730e-04,-2.088012596e-03,-1.902582279e-03,8.342669876e-05,-1.819155580e-03,-1.498434403e-03,-7.134390655e-05,-1.569778309e-03,-1.719460264e-03,4.556451773e-05,-1.673895746e-03,-2.209394144e-03,-1.276529340e-04,-2.337047078e-03,-2.264164681e-03,9.981899416e-05,-2.164345687e-03,-3.678811553e-03,-1.694495428e-04,-3.848261096e-03,-2.591162912e-03,-1.085985913e-04,-2.699761503e-03,-2.199504462e-03,6.293690523e-05,-2.136567557e-03,-1.360713187e-03,-1.824441213e-05,-1.378957599e-03,-1.974321746e-03,7.523852098e-05,-1.899083225e-03,-2.069663624e-03,1.366924309e-04,-1.932971194e-03,-2.649965372e-03,2.784255054e-04,-2.371539867e-03,-1.929577922e-03,-8.373330351e-05,-2.013311226e-03,-2.529961726e-03,-2.054232148e-04,-2.735384941e-03,-2.042895201e-03,8.125625059e-05,-1.961638950e-03,-2.108335659e-03,5.410482951e-04,-1.567287364e-03,-3.017040850e-03,5.779330954e-04,-2.439107754e-03,-1.701100448e-03,-1.761262222e-04,-1.877226670e-03,-1.155724721e-03,-1.106591489e-03,-2.262316210e-03
-9.2,-8.530965037e-04,1.776361179e-04,-6.754603858e-04,-1.102952182e-03,1.329598237e-04,-9.699923585e-04,-3.125415997e-03,2.216336877e-04,-2.903782310e-03,-1.895611259e-03,5.340064539e-05,-1.842210614e-03,-1.694966424e-03,1.545625345e-04,-1.540403889e-03,-1.274239220e-03,1.342726679e-04,-1.139966552e-03,-1.157883931e-03,1.636513467e-04,-9.942325841e-04,-1.968834296e-03,2.349562123e-04,-1.733878083e-03,-1.594352582e-03,3.079859158e-04,-1.286366666e-03,-2.018813159e-03,1.641532874e-04,-1.854659872e-03,-2.555151932e-03,9.754720118e-05,-2.457604731e-03,-9.401412075e-04,9.834918360e-05,-8.417920239e-04,-2.625962317e-03,7.794431355e-04,-1.846519181e-03,-9.869563045e-04,1.647678437e-04,-8.221884608e-04,-2.235482063e-03,6.063349220e-04,-1.629147141e-03,-2.344091404e-03,2.913884481e-04,-2.052702956e-03,-1.527697052e-03,-4.214451303e-04,-1.949142183e-03,-1.789689580e-03,8.053048404e-05,-1.709159096e-03,-1.390529599e-03,-6.530390184e-05,-1.455833500e-03,-1.636211887e-03,4.736788046e-05,-1.588844007e-03,-2.114389337e-03,-1.178249764e-04,-2.232214313e-03,-2.162859694e-03,1.016445015e-04,-2.061215193e-03,-3.482747417e-03,-1.594592385e-04,-3.642206656e-03,-2.459839701e-03,-1.043824449e-04,-2.564222146e-03,-2.117859782e-03,6.437800128e-05,-2.053481781e-03,-1.283982777e-03,-2.575896173e-05,-1.309741739e-03,-1.890842089e-03,7.928555517e-05,-1.811556534e-03,-1.975667788e-03,1.241744379e-04,-1.851493350e-03,-2.559763153e-03,2.823830640e-04,-2.277380089e-03,-1.846248078e-03,-8.671114446e-05,-1.932959222e-03,-2.440693946e-03,-1.569933029e-04,-2.597687249e-03,-1.934328580e-03,7.158305791e-05,-1.862745522e-03,-2.015587592e-03,5.881516092e-04,-1.427435983e-03,-2.822772095e-03,5.360994054e-04,-2.286672690e-03,-1.624954174e-03,-1.482930356e-04,-1.773247209e-03,-9.948749157e-04,-1.116520226e-03,-2.111395142e-03
-9.1,-8.052596971e-04,1.730577040e-04,-6.322019931e-04,-1.060267180e-03,1.311537860e-04,-9.291133938e-04,-2.966425618e-03,2.213311718e-04,-2.745094447e-03,-1.798544989e-03,5.636956192e-05,-1.742175427e-03,-1.587442827e-03,1.469601475e-04,-1.440482679e-03,-1.187295582e-03,1.335779131e-04,-1.053717668e-03,-1.075672580e-03,1.657562755e-04,-9.099163042e-04,-1.877559765e-03,2.373397769e-04,-1.640219988e-03,-1.520206373e-03,3.090953885e-04,-1.211110985e-03,-1.943487401e-03,1.671487598e-04,-1.776338641e-03,-2.441934749e-03,9.652670817e-05,-2.345408041e-03,-8.601498934e-04,9.065377261e-05,-7.694961208e-04,-2.498634724e-03,7.630603477e-04,-1.735574377e-03,-9.186222191e-04,1.498529954e-04,-7.687692237e-04,-2.116166871e-03,5.918209968e-04,-1.524345874e-03,-2.255373303e-03,2.951846287e-04,-1.960188674e-03,-1.377523200e-03,-4.332299371e-04,-1.810753137e-03,-1.676189513e-03,7.887053554e-05,-1.597318977e-03,-1.281386025e-03,-5.851816950e-05,-1.339904194e-03,-1.549280029e-03,4.910401992e-05,-1.500176009e-03,-2.017069949e-03,-1.079790063e-04,-2.125048955e-03,-2.059935266e-03,1.034941024e-04,-1.956441164e-03,-3.284784426e-03,-1.493676061e-04,-3.434152032e-03,-2.327080704e-03,-1.001746431e-04,-2.427255347e-03,-2.033041698e-03,6.534839599e-05,-1.967693302e-03,-1.205421416e-03,-3.335065837e-05,-1.238772074e-03,-1.804000276e-03,8.316987815e-05,-1.720830398e-03,-1.879978923e-03,1.113818964e-04,-1.768597027e-03,-2.466545310e-03,2.862712449e-04,-2.180274065e-03,-1.761912507e-03,-8.875424450e-05,-1.850666752e-03,-2.346367093e-03,-1.092210664e-04,-2.455588159e-03,-1.824794117e-03,6.276177922e-05,-1.762032337e-03,-1.919913863e-03,6.324383039e-04,-1.287475559e-03,-2.621642959e-03,4.920208709e-04,-2.129622089e-03,-1.549576457e-03,-1.171706194e-04,-1.666747076e-03,-8.313733649e-04,-1.121480736e-03,-1.952854101e-03
-9,-7.574315728e-04,1.682900372e-04,-5.891415356e-04,-1.016412197e-03,1.293241070e-04,-8.870880904e-04,-2.806682197e-03,2.208442263e-04,-2.585837971e-03,-1.700291930e-03,5.930177825e-05,-1.640990152e-03,-1.476993380e-03,1.393066188e-04,-1.337686761e-03,-1.098216498e-03,1.322145036e-04,-9.660019945e-04,-9.909324043e-04,1.677097882e-04,-8.232226161e-04,-1.780653255e-03,2.382220122e-04,-1.542431243e-03,-1.442551556e-03,3.104336836e-04,-1.132117872e-03,-1.863701419e-03,1.698470308e-04,-1.693854388e-03,-2.325014043e-03,9.504129478e-05,-2.229972748e-03,-7.779521582e-04,8.219983083e-05,-6.957523274e-04,-2.364056600e-03,7.420505370e-04,-1.622006063e-03,-8.491974187e-04,1.348517581e-04,-7.143456606e-04,-1.992451662e-03,5.752554455e-04,-1.417196217e-03,-2.163637355e-03,2.987175355e-04,-1.864919819e-03,-1.233871746e-03,-4.391271259e-04,-1.672998872e-03,-1.562403187e-03,7.843808528e-05,-1.483965102e-03,-1.171292594e-03,-5.108335563e-05,-1.222375949e-03,-1.458991008e-03,5.075148978e-05,-1.408239518e-03,-1.917739033e-03,-9.813245341e-05,-2.015871487e-03,-1.955685284e-03,1.053561178e-04,-1.850329166e-03,-3.085438822e-03,-1.392039951e-04,-3.224642817e-03,-2.193267715e-03,-9.598541104e-05,-2.289253126e-03,-1.945242712e-03,6.587615538e-05,-1.879366557e-03,-1.125252604e-03,-4.099756844e-05,-1.166250173e-03,-1.713872717e-03,8.681081724e-05,-1.627061900e-03,-1.782816920e-03,9.839476215e-05,-1.684422158e-03,-2.370531758e-03,2.900647424e-04,-2.080467015e-03,-1.676748791e-03,-8.993124003e-05,-1.766680031e-03,-2.246919101e-03,-6.242646678e-05,-2.309345567e-03,-1.714600549e-03,5.485394708e-05,-1.659746602e-03,-1.821086746e-03,6.731856292e-04,-1.147901117e-03,-2.414985796e-03,4.464286230e-04,-1.968557173e-03,-1.474993371e-03,-8.306890468e-05,-1.558062276e-03,-6.663240574e-04,-1.121117578e-03,-1.787441636e-03
-8.9,-7.097737545e-04,1.633509366e-04,-5.464228179e-04,-9.715435031e-04,1.274677386e-04,-8.440757644e-04,-2.646647898e-03,2.201744861e-04,-2.426473412e-03,-1.601227028e-03,6.220234053e-05,-1.539024688e-03,-1.364189529e-03,1.316418901e-04,-1.232547639e-03,-1.007313933e-03,1.301903122e-04,-8.771236207e-04,-9.040274345e-04,1.695030694e-04,-7.345243651e-04,-1.678568425e-03,2.377225067e-04,-1.440845918e-03,-1.361757407e-03,3.119595600e-04,-1.049797847e-03,-1.779732806e-03,1.722117186e-04,-1.607521087e-03,-2.204831321e-03,9.309558030e-05,-2.111735741e-03,-6.939121830e-04,7.306496506e-05,-6.208472179e-04,-2.222861296e-03,7.166628957e-04,-1.506198400e-03,-7.789298935e-04,1.198285118e-04,-6.591013817e-04,-1.864860301e-03,5.566362073e-04,-1.308224094e-03,-2.068971484e-03,3.019167053e-04,-1.767054779e-03,-1.097191611e-03,-4.388372718e-04,-1.536028883e-03,-1.448676239e-03,7.920110257e-05,-1.369475137e-03,-1.060589441e-03,-4.310374879e-05,-1.103693190e-03,-1.365706474e-03,5.228798084e-05,-1.313418493e-03,-1.816727995e-03,-8.830384604e-05,-1.905031841e-03,-1.850428880e-03,1.072177212e-04,-1.743211159e-03,-2.885256815e-03,-1.289991473e-04,-3.014255962e-03,-2.058808069e-03,-9.182456307e-05,-2.150632632e-03,-1.854678826e-03,6.598975676e-05,-1.788689069e-03,-1.043732132e-03,-4.867520311e-05,-1.092407335e-03,-1.620579891e-03,9.013413377e-05,-1.530445758e-03,-1.684419325e-03,8.528991173e-05,-1.599129413e-03,-2.271959903e-03,2.937281062e-04,-1.978231796e-03,-1.590950255e-03,-9.032523531e-05,-1.681275490e-03,-2.142390823e-03,-1.687552143e-05,-2.159266345e-03,-1.604060226e-03,4.789496117e-05,-1.556165265e-03,-1.718895772e-03,7.096973398e-04,-1.009198432e-03,-2.204221283e-03,4.000533563e-04,-1.804167927e-03,-1.401316924e-03,-4.630400408e-05,-1.447620928e-03,-5.009442952e-04,-1.115051088e-03,-1.615995383e-03
-8.8,-6.624689599e-04,1.582574955e-04,-5.042114644e-04,-9.258368065e-04,1.255799451e-04,-8.002568613e-04,-2.486808045e-03,2.193224732e-04,-2.267485571e-03,-1.501740894e-03,6.507665571e-05,-1.436664238e-03,-1.249634553e-03,1.240069213e-04,-1.125627632e-03,-9.149327499e-04,1.275212627e-04,-7.874114872e-04,-8.153596200e-04,1.711283819e-04,-6.442312382e-04,-1.571794571e-03,2.359743830e-04,-1.335820188e-03,-1.278222811e-03,3.136295296e-04,-9.645932817e-04,-1.691891884e-03,1.742097731e-04,-1.517682111e-03,-2.081862830e-03,9.069667310e-05,-1.991166157e-03,-6.084319796e-04,6.333138023e-05,-5.451005994e-04,-2.075734774e-03,6.871731302e-04,-1.388561644e-03,-7.080868734e-04,1.048469395e-04,-6.032399339e-04,-1.733987140e-03,5.359936218e-04,-1.197993518e-03,-1.971493368e-03,3.047001869e-04,-1.666793181e-03,-9.678336238e-04,-4.321534954e-04,-1.399987119e-03,-1.335377087e-03,8.110751352e-05,-1.254269574e-03,-9.496677757e-04,-3.468855949e-05,-9.843563352e-04,-1.269818397e-03,5.369095957e-05,-1.216127437e-03,-1.714391529e-03,-7.851244943e-05,-1.792903978e-03,-1.744504625e-03,1.090654614e-04,-1.635439163e-03,-2.684805261e-03,-1.187845504e-04,-2.803589812e-03,-1.924127167e-03,-8.770115194e-05,-2.011828319e-03,-1.761586753e-03,6.571674985e-05,-1.695870003e-03,-9.611449822e-04,-5.635565011e-05,-1.017500632e-03,-1.524287067e-03,9.307392117e-05,-1.431213146e-03,-1.585040393e-03,7.214242995e-05,-1.512897963e-03,-2.171079958e-03,2.972167288e-04,-1.873863230e-03,-1.504720461e-03,-9.002956789e-05,-1.594750029e-03,-2.032924639e-03,2.721856131e-05,-2.005706078e-03,-1.493483061e-03,4.189400383e-05,-1.451589058e-03,-1.613151597e-03,7.413138900e-04,-8.718377070e-04,-1.990834440e-03,3.536079586e-04,-1.637226481e-03,-1.328721667e-03,-7.209265103e-06,-1.335930932e-03,-3.365561461e-04,-1.102877267e-03,-1.439433414e-03
-8.7,-6.157156314e-04,1.530260405e-04,-4.626895909e-04,-8.794829735e-04,1.236545398e-04,-7.558284337e-04,-2.327660968e-03,2.182877612e-04,-2.109373207e-03,-1.402230859e-03,6.793029922e-05,-1.334300559e-03,-1.133952454e-03,1.164434397e-04,-1.017509014e-03,-8.214456393e-04,1.242329189e-04,-6.972127204e-04,-7.253611308e-04,1.725789239e-04,-5.527822069e-04,-1.460844653e-03,2.331168462e-04,-1.227727807e-03,-1.192370456e-03,3.153978773e-04,-8.769725787e-04,-1.600516771e-03,1.758119137e-04,-1.424704858e-03,-1.956611733e-03,8.785414939e-05,-1.868757584e-03,-5.219444666e-04,5.308531390e-05,-4.688591527e-04,-1.923408819e-03,6.538860097e-04,-1.269522809e-03,-6.369493387e-04,8.996962742e-05,-5.469797113e-04,-1.600479212e-03,5.133871501e-04,-1.087092062e-03,-1.871347089e-03,3.069774749e-04,-1.564369614e-03,-8.460455829e-04,-4.189636235e-04,-1.265009206e-03,-1.222891728e-03,8.408829586e-05,-1.138803432e-03,-8.389663768e-04,-2.594864223e-05,-8.649150190e-04,-1.171742135e-03,5.493833633e-05,-1.116803799e-03,-1.611101075e-03,-6.877783135e-05,-1.679878907e-03,-1.638263342e-03,1.108858824e-04,-1.527377459e-03,-2.484661104e-03,-1.085918198e-04,-2.593252924e-03,-1.789659953e-03,-8.362313400e-05,-1.873283087e-03,-1.666219291e-03,6.508302514e-05,-1.601136266e-03,-8.777993581e-04,-6.400681347e-05,-9.418061716e-04,-1.425202546e-03,9.557423121e-05,-1.329628315e-03,-1.484949005e-03,5.902748485e-05,-1.425921520e-03,-2.068149382e-03,3.004781715e-04,-1.767671210e-03,-1.418267121e-03,-8.914320648e-05,-1.507410327e-03,-1.918758746e-03,6.969236030e-05,-1.849066386e-03,-1.383170305e-03,3.683566675e-05,-1.346334639e-03,-1.503683275e-03,7.674166964e-04,-7.362665783e-04,-1.776351412e-03,3.077753575e-04,-1.468576054e-03,-1.257417244e-03,3.385985394e-05,-1.223557390e-03,-1.745707332e-04,-1.084176018e-03,-1.258746751e-03
-8.6,-5.697217620e-04,1.476720599e-04,-4.220497021e-04,-8.326831059e-04,1.216841222e-04,-7.109989837e-04,-2.169707145e-03,2.170690316e-04,-1.952638114e-03,-1.303091387e-03,7.076875588e-05,-1.232322631e-03,-1.017776108e-03,1.089935157e-04,-9.087825921e-04,-7.272469561e-04,1.203610661e-04,-6.068858900e-04,-6.344857739e-04,1.738485492e-04,-4.606372248e-04,-1.346246072e-03,2.292892230e-04,-1.116956849e-03,-1.104640543e-03,3.172166875e-04,-7.874238560e-04,-1.505967858e-03,1.769928029e-04,-1.328975055e-03,-1.829600105e-03,8.458002565e-05,-1.745020080e-03,-4.349062193e-04,4.241671639e-05,-3.924895029e-04,-1.766655718e-03,6.171384079e-04,-1.149517310e-03,-5.658064098e-04,7.525775015e-05,-4.905486596e-04,-1.465017705e-03,4.889018347e-04,-9.761158701e-04,-1.768698789e-03,3.086525396e-04,-1.460046250e-03,-7.319624029e-04,-3.992574057e-04,-1.131219809e-03,-1.111617762e-03,8.806018320e-05,-1.023557579e-03,-7.289661289e-04,-1.699278567e-05,-7.459589145e-04,-1.071909472e-03,5.600899376e-05,-1.015900478e-03,-1.507238420e-03,-5.911955887e-05,-1.566357979e-03,-1.532061533e-03,1.126659762e-04,-1.419395557e-03,-2.285401957e-03,-9.845222665e-05,-2.383854184e-03,-1.655843071e-03,-7.959719456e-05,-1.735440265e-03,-1.568840488e-03,6.411273723e-05,-1.504727751e-03,-7.940197586e-04,-7.159193836e-05,-8.656116969e-04,-1.323574347e-03,9.758985509e-05,-1.225984491e-03,-1.384426843e-03,4.602228075e-05,-1.338404562e-03,-1.963428835e-03,3.034536132e-04,-1.659975222e-03,-1.331798260e-03,-8.776600282e-05,-1.419564263e-03,-1.800216925e-03,1.104254544e-04,-1.689791471e-03,-1.273410264e-03,3.268252986e-05,-1.240727734e-03,-1.390335891e-03,7.874317408e-04,-6.029041503e-04,-1.562318472e-03,2.632010944e-04,-1.299117378e-03,-1.187619701e-03,7.652471652e-05,-1.111094984e-03,-1.646896428e-05,-1.058526794e-03,-1.074995758e-03
-8.5,-5.246991022e-04,1.422101245e-04,-3.824889777e-04,-7.856441904e-04,1.196603528e-04,-6.659838376e-04,-2.013439499e-03,2.156640696e-04,-1.797775429e-03,-1.204705588e-03,7.359712728e-05,-1.131108461e-03,-9.017366408e-04,1.016990239e-04,-8.000376170e-04,-6.327473413e-04,1.159512489e-04,-5.167960923e-04,-5.432013736e-04,1.749313702e-04,-3.682700033e-04,-1.228535865e-03,2.246271439e-04,-1.003908721e-03,-1.015485040e-03,3.190359428e-04,-6.964490970e-04,-1.408622966e-03,1.777310530e-04,-1.230891913e-03,-1.701362115e-03,8.088873628e-05,-1.620473379e-03,-3.477916993e-04,3.141879524e-05,-3.163729041e-04,-1.606285629e-03,5.773016964e-04,-1.028983932e-03,-4.949509758e-04,6.077076140e-05,-4.341802144e-04,-1.328301880e-03,4.626454728e-04,-8.656564076e-04,-1.663734535e-03,3.096271538e-04,-1.354107381e-03,-6.255944745e-04,-3.731369716e-04,-9.987314461e-04,-1.001960421e-03,9.292831918e-05,-9.090321021e-04,-6.201839796e-04,-7.924132302e-06,-6.281081119e-04,-9.707631010e-04,5.688317245e-05,-9.138799285e-04,-1.403190524e-03,-4.955713366e-05,-1.452747657e-03,-1.426256629e-03,1.143933458e-04,-1.311863283e-03,-2.087599197e-03,-8.839638236e-05,-2.175995580e-03,-1.523108707e-03,-7.562876945e-05,-1.598737477e-03,-1.469722203e-03,6.282879791e-05,-1.406893405e-03,-7.101409766e-04,-7.906967310e-05,-7.892106497e-04,-1.219686601e-03,9.908596838e-05,-1.120600632e-03,-1.283767306e-03,3.320745765e-05,-1.250559848e-03,-1.857181360e-03,3.060795572e-04,-1.551101803e-03,-1.245521977e-03,-8.599398168e-05,-1.331515958e-03,-1.677695100e-03,1.493305924e-04,-1.528364508e-03,-1.164476968e-03,2.937766725e-05,-1.135099301e-03,-1.272977387e-03,8.008398334e-04,-4.721375536e-04,-1.350283198e-03,2.204887657e-04,-1.129794432e-03,-1.119523571e-03,1.203825482e-04,-9.991410226e-04,1.362187132e-04,-1.025527484e-03,-8.893087712e-04
-8.4,-4.808585033e-04,1.366538268e-04,-3.442046765e-04,-7.385759990e-04,1.175743029e-04,-6.210016961e-04,-1.859335879e-03,2.140697542e-04,-1.645266125e-03,-1.107438908e-03,7.641982576e-05,-1.031019082e-03,-7.864551339e-04,9.460106434e-05,-6.918540695e-04,-5.383701809e-04,1.110575826e-04,-4.273125983e-04,-4.519841687e-04,1.758213222e-04,-2.761628465e-04,-1.108259901e-03,2.192607555e-04,-8.889991458e-04,-9.253629830e-04,3.208037529e-04,-6.045592301e-04,-1.308873886e-03,1.780092353e-04,-1.130864651e-03,-1.572438922e-03,7.679714008e-05,-1.495641782e-03,-2.610895587e-04,2.018713311e-05,-2.409024256e-04,-1.443146847e-03,5.347831979e-04,-9.083636493e-04,-4.246768995e-04,4.656592223e-05,-3.781109773e-04,-1.191037037e-03,4.347469088e-04,-7.562901277e-04,-1.556662588e-03,3.098047874e-04,-1.246857801e-03,-5.268206546e-04,-3.408255866e-04,-8.676462411e-04,-8.943321433e-04,9.858945686e-05,-7.957426865e-04,-5.131670308e-04,1.162532254e-06,-5.120044986e-04,-8.687531295e-04,5.754285184e-05,-8.112102777e-04,-1.299345857e-03,-4.011009844e-05,-1.339455956e-03,-1.321204254e-03,1.160561455e-04,-1.205148109e-03,-1.891813646e-03,-7.845401128e-05,-1.970267657e-03,-1.391880319e-03,-7.172218968e-05,-1.463602508e-03,-1.369142955e-03,6.125381511e-05,-1.307889140e-03,-6.265039612e-04,-8.639470519e-05,-7.128986664e-04,-1.113856864e-03,1.000369174e-04,-1.013819947e-03,-1.183274843e-03,2.066752073e-05,-1.162607322e-03,-1.749674686e-03,3.082898355e-04,-1.441384850e-03,-1.159649607e-03,-8.391475769e-05,-1.243564365e-03,-1.551646415e-03,1.863425768e-04,-1.365303838e-03,-1.056632099e-03,2.684706275e-05,-1.029785036e-03,-1.151519027e-03,8.071967286e-04,-3.443222983e-04,-1.141776732e-03,1.801964119e-04,-9.615803205e-04,-1.053277060e-03,1.650035048e-04,-8.882735552e-04,2.819345555e-04,-9.848141827e-04,-7.028796272e-04
-8.3,-4.384065197e-04,1.310157181e-04,-3.073908016e-04,-6.916892519e-04,1.154168511e-04,-5.762724008e-04,-1.707853806e-03,2.122820850e-04,-1.495571721e-03,-1.011635138e-03,7.924027476e-05,-9.323948629e-04,-6.725366775e-04,8.773940781e-05,-5.847972697e-04,-4.445497974e-04,1.057411906e-04,-3.388086068e-04,-3.613152608e-04,1.765117796e-04,-1.848034812e-04,-9.859745502e-04,2.133141903e-04,-7.726603599e-04,-8.347368353e-04,3.224667467e-04,-5.122700886e-04,-1.207124284e-03,1.778140056e-04,-1.029310279e-03,-1.443375003e-03,7.232457925e-05,-1.371050424e-03,-1.753005629e-04,8.818623386e-06,-1.664819395e-04,-1.278127684e-03,4.900264468e-04,-7.881012371e-04,-3.552773707e-04,3.269760067e-05,-3.225797700e-04,-1.053926455e-03,4.053554409e-04,-6.485710142e-04,-1.447719864e-03,3.090948609e-04,-1.138625003e-03,-4.353914381e-04,-3.026708738e-04,-7.380623119e-04,-7.891554431e-04,1.049359470e-04,-6.842194962e-04,-4.084870015e-04,1.018222044e-05,-3.983047811e-04,-7.663351703e-04,5.797219874e-05,-7.083629715e-04,-1.196091903e-03,-3.079816851e-05,-1.226890072e-03,-1.217256915e-03,1.176429252e-04,-1.099613990e-03,-1.698593030e-03,-6.865374485e-05,-1.767246774e-03,-1.262569746e-03,-6.788084841e-05,-1.330450595e-03,-1.267389026e-03,5.941139666e-05,-1.207977630e-03,-5.434535090e-04,-9.351868569e-05,-6.369721947e-04,-1.006434636e-03,1.004246360e-04,-9.060100000e-04,-1.083264258e-03,8.490400068e-06,-1.074773858e-03,-1.641185095e-03,3.100177412e-04,-1.331167354e-03,-1.074400992e-03,-8.160313264e-05,-1.156004125e-03,-1.422565908e-03,2.214064544e-04,-1.201159453e-03,-9.501299543e-04,2.500290208e-05,-9.251270522e-04,-1.025946793e-03,8.061593476e-04,-2.197874450e-04,-9.382958982e-04,1.428324556e-04,-7.954634426e-04,-9.889632127e-04,2.099268333e-04,-7.790363795e-04,4.191206092e-04,-9.360829742e-04,-5.169623649e-04
-8.2,-3.975428852e-04,1.253072230e-04,-2.722356622e-04,-6.451945210e-04,1.131790355e-04,-5.320154855e-04,-1.559426751e-03,2.102962893e-04,-1.349130462e-03,-9.176140870e-04,8.206063786e-05,-8.355534491e-04,-5.605659608e-04,8.115200102e-05,-4.794139598e-04,-3.517304504e-04,1.000685371e-04,-2.516619133e-04,-2.716783204e-04,1.769953220e-04,-9.468299839e-05,-8.622488395e-04,2.069051760e-04,-6.553436635e-04,-7.440694773e-04,3.239706141e-04,-4.200988632e-04,-1.103788360e-03,1.771362978e-04,-9.266520618e-04,-1.314715083e-03,6.749296141e-05,-1.247222121e-03,-9.093615204e-05,-2.589188102e-06,-9.352534014e-05,-1.112157327e-03,4.435098976e-04,-6.686474297e-04,-2.870437277e-04,1.921652192e-05,-2.678272058e-04,-9.176661151e-04,3.746413132e-04,-5.430248019e-04,-1.337179797e-03,3.074166787e-04,-1.029763118e-03,-3.509438704e-04,-2.591416011e-04,-6.100854715e-04,-6.868668745e-04,1.118601826e-04,-5.750066920e-04,-3.067349650e-04,1.906004679e-05,-2.876749182e-04,-6.639689090e-04,5.815800133e-05,-6.058109077e-04,-1.093813098e-03,-2.164128490e-05,-1.115454383e-03,-1.114763013e-03,1.191424609e-04,-9.956205518e-04,-1.508469827e-03,-5.902289393e-05,-1.567492721e-03,-1.135574776e-03,-6.410732031e-05,-1.199682096e-03,-1.164756936e-03,5.732766873e-05,-1.107429267e-03,-4.613369204e-04,-1.003911531e-04,-5.617280735e-04,-8.978002563e-04,1.002370237e-04,-7.975632326e-04,-9.840597632e-04,-3.233387639e-06,-9.872931508e-04,-1.532000635e-03,3.111979474e-04,-1.220802687e-03,-9.900096551e-04,-7.911707826e-05,-1.069126733e-03,-1.290976722e-03,2.544663338e-04,-1.036510388e-03,-8.452240076e-04,2.374820498e-05,-8.214758026e-04,-8.963556681e-04,7.975105255e-04,-9.884514260e-05,-7.412847247e-04,1.088510992e-04,-6.324336254e-04,-9.265891244e-04,2.546595829e-04,-6.719295416e-04,5.462524228e-04,-8.791151171e-04,-3.328626942e-04
-8.1,-3.584581859e-04,1.195385742e-04,-2.389196118e-04,-5.993010127e-04,1.108522979e-04,-4.884487148e-04,-1.414460762e-03,2.081070489e-04,-1.206353713e-03,-8.256697547e-04,8.488157646e-05,-7.407881783e-04,-4.511030476e-04,7.487453864e-05,-3.762285090e-04,-2.603648628e-04,9.410983914e-05,-1.662550237e-04,-1.835571960e-04,1.772636520e-04,-6.293543987e-06,-7.376654528e-04,2.001441720e-04,-5.375212808e-04,-6.538211386e-04,3.252606967e-04,-3.285604419e-04,-9.992891639e-04,1.759714428e-04,-8.233177212e-04,-1.187000496e-03,6.232677555e-05,-1.124673721e-03,-8.516323356e-06,-1.393808612e-05,-2.245440947e-05,-9.462029332e-04,3.957438514e-04,-5.504590818e-04,-2.202639489e-04,6.169242116e-06,-2.140947068e-04,-7.829404535e-04,3.427969946e-04,-4.401434589e-04,-1.225357946e-03,3.047024916e-04,-9.206554542e-04,-2.730266200e-04,-2.108180625e-04,-4.838446825e-04,-5.879184888e-04,1.192587766e-04,-4.686597122e-04,-2.085155668e-04,2.773084113e-05,-1.807847257e-04,-5.621157426e-04,5.809001880e-05,-5.040257238e-04,-9.928881711e-04,-1.265954129e-05,-1.005547712e-03,-1.014064810e-03,1.205436218e-04,-8.935211880e-04,-1.321957856e-03,-4.958716225e-05,-1.371545018e-03,-1.011275894e-03,-6.040338389e-05,-1.071679278e-03,-1.061555837e-03,5.503267648e-05,-1.006523160e-03,-3.805022570e-04,-1.069603728e-04,-4.874626297e-04,-7.883630858e-04,9.946674759e-05,-6.888963382e-04,-8.859931846e-04,-1.441165983e-05,-9.004048444e-04,-1.422421613e-03,3.117679190e-04,-1.110653694e-03,-9.067250542e-04,-7.649460098e-05,-9.832196552e-04,-1.157421048e-03,2.854584221e-04,-8.719626261e-04,-7.421723977e-04,2.298204623e-05,-7.191903514e-04,-7.629764325e-04,7.811749553e-04,1.819852278e-05,-5.521155931e-04,7.864907877e-05,-4.734665144e-04,-8.660822651e-04,2.986814673e-04,-5.674007978e-04,6.618794561e-04,-8.138037726e-04,-1.519243165e-04
-8,-3.213309370e-04,1.137188309e-04,-2.076121061e-04,-5.542142781e-04,1.084286300e-04,-4.457856481e-04,-1.273330088e-03,2.057088238e-04,-1.067621265e-03,-7.360677332e-04,8.770200358e-05,-6.483657296e-04,-3.446779174e-04,6.894006895e-05,-2.757378485e-04,-1.709109393e-04,8.793761379e-05,-8.297332554e-05,-9.743186595e-05,1.773075305e-04,7.987566459e-05,-6.128196819e-04,1.931333615e-04,-4.196863204e-04,-5.644454166e-04,3.262824952e-04,-2.381629214e-04,-8.940554774e-04,1.743191178e-04,-7.197363595e-04,-1.060763874e-03,5.685296250e-05,-1.003910912e-03,7.143469137e-05,-2.512883920e-05,4.630585216e-05,-7.812605389e-04,3.472647615e-04,-4.339957773e-04,-1.552198911e-04,-6.402075754e-06,-1.616219669e-04,-6.504173352e-04,3.100383322e-04,-3.403790030e-04,-1.112612631e-03,3.008997378e-04,-8.117128930e-04,-2.011320521e-04,-1.583758767e-04,-3.595079288e-04,-4.927735061e-04,1.270357669e-04,-3.657377393e-04,-1.144393588e-04,3.613861858e-05,-7.830074022e-05,-4.612343537e-04,5.776131300e-05,-4.034730407e-04,-8.936858809e-04,-3.872948039e-06,-8.975588290e-04,-9.154942464e-04,1.218353392e-04,-7.936589072e-04,-1.139546390e-03,-4.037026073e-05,-1.179916651e-03,-8.900313344e-04,-5.676991409e-05,-9.468012485e-04,-9.581082318e-04,5.256136607e-05,-9.055468658e-04,-3.012947891e-04,-1.131741044e-04,-4.144688936e-04,-6.785579474e-04,9.811077904e-05,-5.804471684e-04,-7.894002286e-04,-2.495166821e-05,-8.143518968e-04,-1.312757292e-03,3.116688595e-04,-1.001088432e-03,-8.248098351e-04,-7.375196141e-05,-8.985617965e-04,-1.022457107e-03,3.143111479e-04,-7.081459591e-04,-6.412399079e-04,2.260437516e-05,-6.186355327e-04,-6.261870977e-04,7.572236271e-04,1.310365294e-04,-3.720687707e-04,5.256514950e-05,-3.195036212e-04,-8.072896244e-04,3.414564523e-04,-4.658331722e-04,7.646709160e-04,-7.401770924e-04,2.449382360e-05
-7.9,-2.863234752e-04,1.078559851e-04,-1.784674901e-04,-5.101322483e-04,1.059006605e-04,-4.042315878e-04,-1.136371062e-03,2.030961857e-04,-9.332748759e-04,-6.490410558e-04,9.051879694e-05,-5.585222588e-04,-2.417829432e-04,6.337856067e-05,-1.784043826e-04,-8.382590498e-05,8.162529324e-05,-2.200611741e-06,-1.377179442e-05,1.771166369e-04,1.633448425e-04,-4.883156699e-04,1.859658831e-04,-3.023497868e-04,-4.763838323e-04,3.269820423e-04,-1.494017900e-04,-7.885166724e-04,1.721831371e-04,-6.163335353e-04,-9.365216519e-04,5.110064980e-05,-8.854210021e-04,1.483959410e-04,-3.606107584e-05,1.123348652e-04,-6.183380821e-04,2.986252162e-04,-3.197128659e-04,-9.218270411e-05,-1.845970427e-05,-1.106424084e-04,-5.207407554e-04,2.766042044e-04,-2.441365509e-04,-9.993397794e-04,2.959729404e-04,-7.033668390e-04,-1.347309583e-04,-1.025636286e-04,-2.372945869e-04,-4.018951804e-04,1.351045953e-04,-2.667905852e-04,-2.511223805e-05,4.423631852e-05,1.912408046e-05,-3.617740279e-04,5.716865887e-05,-3.046053691e-04,-7.965589093e-04,4.698978941e-06,-7.918599303e-04,-8.193665641e-04,1.230067254e-04,-6.963598387e-04,-9.616920083e-04,-3.139343732e-05,-9.930854456e-04,-7.721705521e-04,-5.320668725e-05,-8.253772393e-04,-8.547480242e-04,4.995407275e-05,-8.047939514e-04,-2.240508452e-04,-1.189803276e-04,-3.430311729e-04,-5.688387037e-04,9.617013420e-05,-4.726685695e-04,-6.946142148e-04,-3.476157233e-05,-7.293757871e-04,-1.203319302e-03,3.108464106e-04,-8.924728915e-04,-7.445324106e-04,-7.088338069e-05,-8.154157913e-04,-8.866596029e-04,3.409515627e-04,-5.457080402e-04,-5.426956229e-04,2.252000365e-05,-5.201756193e-04,-4.865082583e-04,7.258709516e-04,2.393626934e-04,-2.023068315e-04,3.087971593e-05,-1.714271156e-04,-7.499752165e-04,3.824471975e-04,-3.675280190e-04,8.534632113e-04,-6.584118782e-04,1.950513332e-04
-7.8,-2.535767671e-04,1.019571077e-04,-1.516196594e-04,-4.672398273e-04,1.032616893e-04,-3.639781380e-04,-1.003874668e-03,2.002640443e-04,-8.036106235e-04,-5.647848441e-04,9.332646102e-05,-4.714583831e-04,-1.428637960e-04,5.821635684e-05,-8.464743915e-05,4.416289479e-07,7.524581006e-05,7.568743901e-05,6.697275559e-05,1.766794493e-04,2.436522049e-04,-3.647594115e-04,1.787248772e-04,-1.860345342e-04,-3.900591643e-04,3.273062325e-04,-6.275293186e-05,-6.830960149e-04,1.695711235e-04,-5.135248914e-04,-8.147651251e-04,4.510085013e-05,-7.696642750e-04,2.218600844e-04,-4.663373063e-05,1.752263538e-04,-4.584314235e-04,2.503789538e-04,-2.080524697e-04,-3.140692822e-05,-2.997029570e-05,-6.137722392e-05,-3.945210012e-04,2.427534101e-04,-1.517675911e-04,-8.859633400e-04,2.899055566e-04,-5.960577833e-04,-7.330503814e-05,-4.417634552e-05,-1.174813837e-04,-3.157307061e-04,1.433890144e-04,-1.723416916e-04,5.887794156e-05,5.198570187e-05,1.108636434e-04,-2.641668495e-04,5.631302785e-05,-2.078538216e-04,-7.018368298e-04,1.303771849e-05,-6.887991113e-04,-7.259730930e-04,1.240472626e-04,-6.019258304e-04,-7.888099980e-04,-2.267503529e-05,-8.114850333e-04,-6.579874561e-04,-4.971222235e-05,-7.076996784e-04,-7.518160600e-04,4.725650330e-05,-7.045595567e-04,-1.490896394e-04,-1.243280128e-04,-2.734176522e-04,-4.596688713e-04,9.364908320e-05,-3.660197881e-04,-6.019579872e-04,-4.375233692e-05,-6.457103242e-04,-1.094413909e-03,3.092512359e-04,-7.851626727e-04,-6.661575326e-04,-6.786219985e-05,-7.340197324e-04,-7.506201455e-04,3.653148219e-04,-3.853053236e-04,-4.468074711e-04,2.264155177e-05,-4.241659193e-04,-3.445873509e-04,6.874701668e-04,3.428828159e-04,-4.384213008e-05,1.381002064e-05,-3.003210944e-05,-6.938162471e-04,4.211283469e-04,-2.726879002e-04,9.273011392e-04,-5.688337579e-04,3.584673813e-04
-7.7,-2.232050523e-04,9.602850917e-05,-1.271765432e-04,-4.257031140e-04,1.005056649e-04,-3.251974491e-04,-8.760794648e-04,1.972077137e-04,-6.788717511e-04,-4.834512590e-04,9.611676978e-05,-3.873344893e-04,-4.831052409e-05,5.347551664e-05,5.164992543e-06,8.145994334e-05,6.887018294e-05,1.503301263e-04,1.443795503e-04,1.759833099e-04,3.203628602e-04,-2.427491337e-04,1.714817253e-04,-7.126740832e-05,-3.058685341e-04,3.272032439e-04,2.133470972e-05,-5.782037497e-04,1.664940994e-04,-4.117096503e-04,-6.959517333e-04,3.888621825e-05,-6.570655151e-04,2.913449603e-04,-5.674630905e-05,2.345986513e-04,-3.024977802e-04,2.030628129e-04,-9.943496729e-05,2.687526780e-05,-4.090474661e-05,-1.402947882e-05,-2.723237584e-04,2.087584719e-04,-6.356528649e-05,-7.729240565e-04,2.827014366e-04,-4.902226199e-04,-1.637270445e-05,1.597130702e-05,-4.013974317e-07,-2.346935579e-04,1.518229125e-04,-8.287064545e-05,1.369765106e-04,5.935678403e-05,1.963332947e-04,-1.688206443e-04,5.520002763e-05,-1.136206167e-04,-6.098197285e-04,2.112614179e-05,-5.886935867e-04,-6.355751181e-04,1.249468707e-04,-5.106282474e-04,-6.212675735e-04,-1.423022574e-05,-6.354977992e-04,-5.477351138e-04,-4.628376040e-05,-5.940188742e-04,-6.496544998e-04,4.451911361e-05,-6.051353862e-04,-7.670499448e-05,-1.291680333e-04,-2.058730278e-04,-3.515111902e-04,9.055397413e-05,-2.609572161e-04,-5.117354823e-04,-5.184016779e-05,-5.635756500e-04,-9.863357509e-04,3.068395882e-04,-6.794961627e-04,-5.899378875e-04,-6.464351811e-05,-6.545814056e-04,-6.149470509e-04,3.873541445e-04,-2.275929064e-04,-3.538361744e-04,2.289120538e-05,-3.309449690e-04,-2.011780888e-04,6.425070937e-04,4.413290048e-04,1.024983489e-04,1.499962923e-06,1.039983118e-04,-6.384035552e-04,4.569991334e-04,-1.814044218e-04,9.854642135e-04,-4.719033424e-04,5.135608711e-04
-7.6,-1.952915480e-04,9.007593966e-05,-1.052156083e-04,-3.856645374e-04,9.762714585e-05,-2.880373915e-04,-7.531666109e-04,1.939228549e-04,-5.592437560e-04,-4.051465385e-04,9.887845883e-05,-3.062680797e-04,4.154919510e-05,4.917314096e-05,9.072233607e-05,1.588208483e-04,6.256625459e-05,2.213871029e-04,2.180613225e-04,1.750146831e-04,3.930760056e-04,-1.228649880e-04,1.642935981e-04,4.142861015e-05,-2.241773310e-04,3.266231064e-04,1.024457754e-04,-4.742314922e-04,1.629660462e-04,-3.112654460e-04,-5.804982103e-04,3.249087504e-05,-5.480073352e-04,3.564044367e-04,-6.630108533e-05,2.901033514e-04,-1.514318239e-04,1.571784651e-04,5.746641263e-06,8.245834688e-05,-5.123809960e-05,3.122024729e-05,-1.546606619e-04,1.748972982e-04,2.023663631e-05,-6.606691115e-04,2.743850245e-04,-3.862840869e-04,3.649426842e-05,7.706806287e-05,1.135623313e-04,-1.591472600e-04,1.603486840e-04,1.201423946e-06,2.086772213e-04,6.632628230e-05,2.750035036e-04,-7.611412541e-05,5.384015938e-05,-2.227396603e-05,-5.207737358e-04,2.894865263e-05,-4.918250832e-04,-5.484002050e-04,1.256957435e-04,-4.227044615e-04,-4.593803172e-04,-6.070981408e-06,-4.654512986e-04,-4.416230365e-04,-4.291738655e-05,-4.845404231e-04,-5.486016602e-04,4.179575966e-05,-5.068059005e-04,-7.159150930e-06,-1.334541737e-04,-1.406133247e-04,-2.448188067e-04,8.689233261e-05,-1.579264741e-04,-4.242242707e-04,-5.894966488e-05,-4.831739355e-04,-8.793649059e-04,3.035740084e-04,-5.757908975e-04,-5.161084756e-04,-6.116827148e-05,-5.772767471e-04,-4.802662904e-04,4.070497418e-04,-7.321654865e-05,-2.640310420e-04,2.320162849e-05,-2.408294135e-04,-5.712086459e-05,5.915890517e-04,5.344681871e-04,2.361017891e-04,-5.991520113e-06,2.301102690e-04,-5.832512028e-04,4.895965980e-04,-9.365460489e-05,1.027476663e-03,-3.681932090e-04,6.592834540e-04
-7.5,-1.698860676e-04,8.410485524e-05,-8.578121232e-05,-3.472397262e-04,9.462131132e-05,-2.526184149e-04,-6.352580628e-04,1.904053712e-04,-4.448526915e-04,-3.299312767e-04,1.015970263e-04,-2.283342503e-04,1.264533987e-04,4.532079731e-05,1.717741960e-04,2.321433681e-04,5.639766776e-05,2.885410358e-04,2.876696672e-04,1.737595030e-04,4.614291703e-04,-5.660051962e-06,1.572010250e-04,1.515409730e-04,-1.453146424e-04,3.255183977e-04,1.802037554e-04,-3.715488639e-04,1.590034888e-04,-2.125453751e-04,-4.687764277e-04,2.595024062e-05,-4.428261871e-04,4.166368210e-04,-7.520573521e-05,3.414310858e-04,-6.047428855e-06,1.131757134e-04,1.071282846e-04,1.351656153e-04,-6.094963469e-05,7.421598058e-05,-4.198315695e-05,1.414443238e-04,9.946116683e-05,-5.496437261e-04,2.649995428e-04,-2.846441833e-04,8.566224857e-05,1.383237834e-04,2.239860319e-04,-8.939233331e-05,1.689140233e-04,7.952168998e-05,2.735356759e-04,7.287521359e-05,3.464108895e-04,1.360528520e-05,5.224882200e-05,6.585410720e-05,-4.349289642e-04,3.649110053e-05,-3.984378636e-04,-4.646413565e-04,1.262840432e-04,-3.383573133e-04,-3.034120336e-04,1.793748815e-06,-3.016182848e-04,-3.398172305e-04,-3.960823736e-05,-3.794254679e-04,-4.489882796e-04,3.914158874e-05,-4.098466908e-04,5.931992807e-05,-1.371440696e-04,-7.782414154e-05,-1.400295358e-04,8.267244568e-05,-5.735709009e-05,-3.396701522e-04,-6.501752550e-05,-4.046876777e-04,-7.737677754e-04,2.994242863e-04,-4.743434891e-04,-4.448841703e-04,-5.736840079e-05,-5.022525710e-04,-3.472239892e-04,4.244149174e-04,7.719092816e-05,-1.776286441e-04,2.351667669e-05,-1.541119674e-04,8.667191568e-05,5.354287604e-04,6.221006761e-04,3.565843592e-04,-8.699316691e-06,3.478850425e-04,-5.278140177e-04,5.185059295e-04,-9.308088131e-06,1.053108053e-03,-2.583643807e-04,7.947436722e-04
-7.4,-1.470047508e-04,7.812070262e-05,-6.888404819e-05,-3.105162505e-04,9.148403228e-05,-2.190322182e-04,-5.224180390e-04,1.866512998e-04,-3.357667393e-04,-2.578241269e-04,1.042546485e-04,-1.535694784e-04,2.062056039e-04,4.192410609e-05,2.481297100e-04,3.010741756e-04,5.042309351e-05,3.514972691e-04,3.528957599e-04,1.722036021e-04,5.250993620e-04,1.083462818e-04,1.502260861e-04,2.585723679e-04,-6.957036223e-05,3.238450509e-04,2.542746887e-04,-2.705024202e-04,1.546250971e-04,-1.158773231e-04,-3.611118425e-04,1.930083679e-05,-3.418110057e-04,4.716899210e-04,-8.337548762e-05,3.883144334e-04,1.329346184e-04,7.143836105e-05,2.043729794e-04,1.848495273e-04,-7.002312607e-05,1.148264012e-04,6.531991848e-05,1.086626408e-04,1.739825593e-04,-4.402848950e-04,2.546033568e-04,-1.856815382e-04,1.314315224e-04,1.989828835e-04,3.304144059e-04,-2.565729645e-05,1.774678757e-04,1.518105793e-04,3.311793055e-04,7.898637215e-05,4.101656776e-04,1.000213140e-04,5.044605876e-05,1.504673728e-04,-3.524796464e-04,4.374062464e-05,-3.087390217e-04,-3.844585042e-04,1.267016245e-04,-2.577568797e-04,-1.535773036e-04,9.357756219e-06,-1.442195474e-04,-2.424424543e-04,-3.635073728e-05,-2.787931915e-04,-3.511353144e-04,3.661031681e-05,-3.145249975e-04,1.225376068e-04,-1.401999782e-04,-1.766237137e-05,-3.756321129e-05,7.790323811e-05,4.034002682e-05,-2.582846864e-04,-6.999617243e-05,-3.282808588e-04,-6.698010540e-04,2.943686967e-04,-3.754323573e-04,-3.764598675e-04,-5.317253872e-05,-4.296324063e-04,-2.164888319e-04,4.394979437e-04,2.230091118e-04,-9.485355641e-05,2.379208423e-05,-7.106147218e-05,2.292263102e-04,4.748255768e-04,7.040518870e-04,4.637902353e-04,-6.757619306e-06,4.570326160e-04,-4.715079584e-04,5.433629624e-04,7.185500404e-05,1.062370957e-03,-1.431485150e-04,9.192224420e-04
-7.3,-1.266315398e-04,7.212913780e-05,-5.450240204e-05,-2.755538488e-04,8.821194239e-05,-1.873419064e-04,-4.146570835e-04,1.826567269e-04,-2.320003566e-04,-1.888081713e-04,1.068301967e-04,-8.197797460e-05,2.806717092e-04,3.898250204e-05,3.196542112e-04,3.652855257e-04,4.469578919e-05,4.099813148e-04,4.134685804e-04,1.703333342e-04,5.838019146e-04,2.186724137e-04,1.433714870e-04,3.620439007e-04,2.806171028e-06,3.215632378e-04,3.243694088e-04,-1.714162058e-04,1.498512605e-04,-2.156494529e-05,-2.577838494e-04,1.258007308e-05,-2.452037763e-04,5.212631345e-04,-9.073449120e-05,4.305286433e-04,2.648940264e-04,3.227381319e-05,2.971678396e-04,2.313905765e-04,-7.844708600e-05,1.529434905e-04,1.669215953e-04,7.679794939e-05,2.437195447e-04,-3.330172489e-04,2.432658288e-04,-8.975142008e-05,1.740331145e-04,2.583344273e-04,4.323675417e-04,3.190571295e-05,1.859569180e-04,2.178626310e-04,3.813131693e-04,8.464244264e-05,4.659556119e-04,1.828472527e-04,4.845605613e-05,2.313033088e-04,-2.735857274e-04,5.068552600e-05,-2.229002014e-04,-3.079812651e-04,1.269378781e-04,-1.810433870e-04,-1.004549132e-05,1.661725754e-05,6.571766218e-06,-1.495856742e-04,-3.313882783e-05,-1.827245020e-04,-2.553528743e-04,3.425119623e-05,-2.211016781e-04,1.823290219e-04,-1.425893782e-04,3.973964374e-05,6.217879100e-05,7.259427821e-05,1.347730692e-04,-1.802457519e-04,-7.385660014e-05,-2.541023520e-04,-5.677169432e-04,2.883952478e-04,-2.793216954e-04,-3.110117769e-04,-4.851178305e-05,-3.595235599e-04,-8.875278668e-05,4.523804175e-04,3.636276308e-04,-1.591916457e-05,2.399569004e-05,8.076525467e-06,3.695182868e-04,4.106445398e-04,7.801628266e-04,5.577790081e-04,-4.037063024e-07,5.573753018e-04,-4.137290725e-04,5.638487657e-04,1.501196931e-04,1.055515701e-03,-2.333603489e-05,1.032179666e-03
-7.2,-1.087207184e-04,6.613615661e-05,-4.258456177e-05,-2.423855150e-04,8.480245417e-05,-1.575830608e-04,-3.119375524e-04,1.784177814e-04,-1.335197710e-04,-1.228384352e-04,1.092993917e-04,-1.353904348e-05,3.497753305e-04,3.648917711e-05,3.862645076e-04,4.244724529e-04,3.926349874e-05,4.637359517e-04,4.691519938e-04,1.681364430e-04,6.372884368e-04,3.248765290e-04,1.366208453e-04,4.614973743e-04,7.160635466e-05,3.186381990e-04,3.902445536e-04,-7.459290497e-05,1.447036323e-04,7.011072728e-05,-1.590269807e-04,5.826040211e-06,-1.532009405e-04,5.651080242e-04,-9.721694506e-05,4.678910791e-04,3.893147304e-04,-4.092523206e-06,3.852222072e-04,2.746955268e-04,-8.621484478e-05,1.884806820e-04,2.625540493e-04,4.607424814e-05,3.086282975e-04,-2.282504125e-04,2.310639215e-04,2.813508970e-06,2.136272700e-04,3.157182020e-04,5.293454720e-04,8.322064025e-05,1.943237353e-04,2.775443755e-04,4.237219783e-04,8.982499202e-05,5.135469703e-04,2.618241487e-04,4.630643142e-05,3.081305801e-04,-1.983747629e-04,5.731515614e-05,-1.410596068e-04,-2.353115616e-04,1.269816891e-04,-1.083298725e-04,1.270554019e-04,2.357059775e-05,1.506259996e-04,-6.129945909e-05,-2.996615163e-05,-9.126561071e-05,-1.619395924e-04,3.210602421e-05,-1.298335682e-04,2.385546426e-04,-1.442854030e-04,9.426923952e-05,1.588135222e-04,6.675571631e-05,2.255692385e-04,-1.056999509e-04,-7.659007391e-05,-1.822900248e-04,-4.677670154e-04,2.815024032e-04,-1.862646122e-04,-2.486978044e-04,-4.332524208e-05,-2.920230464e-04,3.527092992e-05,4.631740032e-04,4.984449331e-04,5.897356441e-05,2.410666110e-05,8.308022551e-05,5.064912807e-04,3.437918886e-04,8.502831694e-04,6.388083735e-04,1.001949061e-05,6.488278641e-04,-3.538686361e-04,5.796801508e-04,2.258115148e-04,1.033021070e-03,1.002314145e-04,1.133252484e-03
-7.1,-9.319966436e-05,6.014821150e-05,-3.305145286e-05,-2.110187463e-04,8.125373876e-05,-1.297650075e-04,-2.141791072e-04,1.739307661e-04,-4.024834107e-05,-5.984865767e-05,1.116351427e-04,5.178648504e-05,4.134931471e-04,3.443119884e-05,4.479243459e-04,4.783515884e-04,3.416846769e-05,5.125200560e-04,5.197424791e-04,1.656030568e-04,6.853455359e-04,4.265570909e-04,1.299408022e-04,5.564978931e-04,1.366619287e-04,3.150408274e-04,4.517027561e-04,1.968552332e-05,1.392046995e-04,1.588902228e-04,-6.503170737e-05,-9.227075376e-07,-6.595441491e-05,6.030289985e-04,-1.027684161e-04,5.002605825e-04,5.057859219e-04,-3.751797491e-05,4.682679470e-04,3.146959766e-04,-9.332440916e-05,2.213715674e-04,3.520059554e-04,1.669055373e-05,3.686965092e-04,-1.263760526e-04,2.180797246e-04,9.170367200e-05,2.503070334e-04,3.705260467e-04,6.208330802e-04,1.282840963e-04,2.025069292e-04,3.307910255e-04,4.582697319e-04,9.451408030e-05,5.527838122e-04,3.367200910e-04,4.402739692e-05,3.807474879e-04,-1.269428792e-04,6.361982483e-05,-6.332305432e-05,-1.665246798e-04,1.268215217e-04,-3.970315808e-05,2.576366446e-04,3.021800565e-05,2.878546503e-04,2.239591629e-05,-2.682613830e-05,-4.430222006e-06,-7.118153095e-05,3.020661797e-05,-4.097491298e-05,2.910968059e-04,-1.452671039e-04,1.458297019e-04,2.519777860e-04,6.039795231e-05,3.123757383e-04,-3.476484259e-05,-7.820876244e-05,-1.129736050e-04,-3.702022149e-04,2.736987925e-04,-9.650342238e-05,-1.896551148e-04,-3.756492039e-05,-2.272200352e-04,1.548535810e-04,4.720171089e-04,6.268706899e-04,1.296406779e-04,2.411348281e-05,1.537541607e-04,6.390819632e-04,2.751873255e-04,9.142692888e-04,7.073171200e-04,2.406412994e-05,7.313812499e-04,-2.913235393e-04,5.906000451e-04,2.992765058e-04,9.955842304e-04,2.266638220e-04,1.222248052e-03
-7,-7.997096104e-05,5.417240104e-05,-2.579856001e-05,-1.814362779e-04,7.756473105e-05,-1.038715468e-04,-1.212629455e-04,1.691924156e-04,4.792947017e-05,2.442357986e-07,1.138080441e-04,1.140522799e-04,4.718516354e-04,3.278974854e-05,5.046413840e-04,5.266634587e-04,2.944724318e-05,5.561107019e-04,5.650691414e-04,1.627265902e-04,7.277957315e-04,5.233526820e-04,1.232852510e-04,6.466379329e-04,1.978447769e-04,3.107478897e-04,5.085926666e-04,1.111585666e-04,1.333774358e-04,2.445360024e-04,2.405617143e-05,-7.627422432e-06,1.642874900e-05,6.348849141e-04,-1.073469938e-04,5.275379202e-04,6.140015281e-04,-6.793972138e-05,5.460618067e-04,3.513481805e-04,-9.977813647e-05,2.515700440e-04,4.351221305e-04,-1.118212668e-05,4.239400039e-04,-2.776257732e-05,2.043984307e-04,1.766358533e-04,2.841084482e-04,4.222003512e-04,7.063087994e-04,1.671619130e-04,2.104425270e-04,3.776044400e-04,4.848989351e-04,9.868818066e-05,5.835871157e-04,4.073315210e-04,4.165083356e-05,4.489823545e-04,-5.935404753e-05,6.959079556e-05,1.023674803e-05,-1.016679997e-04,1.264456819e-04,2.477768216e-05,3.816491937e-04,3.656141872e-05,4.182106124e-04,1.015122425e-04,-2.371196599e-05,7.780027648e-05,1.665020927e-05,2.857323163e-05,4.522344090e-05,3.398587332e-04,-1.455195852e-04,1.943391480e-04,3.413317017e-04,5.353130720e-05,3.948630089e-04,3.247081942e-05,-7.874563704e-05,-4.627481762e-05,-2.752679684e-04,2.650018108e-04,-1.026615762e-05,-1.339941853e-04,-3.119961335e-05,-1.651937986e-04,2.692608890e-04,4.790722623e-04,7.483331513e-04,1.959230096e-04,2.401126143e-05,2.199342710e-04,7.662527404e-04,2.057357976e-04,9.719885380e-04,7.639081512e-04,4.118489558e-05,8.050930468e-04,-2.255027287e-04,5.963706076e-04,3.708678789e-04,9.441135356e-04,3.550213512e-04,1.299134887e-03
-6.9,-6.891341316e-05,4.821672979e-05,-2.069668338e-05,-1.535959874e-04,7.373518422e-05,-7.986080318e-05,-3.303432882e-05,1.642001782e-04,1.311658494e-04,5.753835990e-05,1.157869273e-04,1.733252872e-04,5.249255968e-04,3.154038884e-05,5.564659856e-04,5.691784475e-04,2.513012889e-05,5.943085764e-04,6.049965242e-04,1.595043673e-04,7.645008915e-04,6.149417118e-04,1.166011889e-04,7.315429007e-04,2.550673005e-04,3.057419540e-04,5.608092546e-04,1.995893082e-04,1.272450699e-04,3.268343781e-04,1.081376272e-04,-1.424948873e-05,9.388813849e-05,6.605913463e-04,-1.109237430e-04,5.496676034e-04,7.137590564e-04,-9.536973413e-05,6.183893223e-04,3.846343042e-04,-1.055823441e-04,2.790519601e-04,5.118058049e-04,-3.740387556e-05,4.744019294e-04,6.725287527e-05,1.901064983e-04,2.573593735e-04,3.150241313e-04,4.702339861e-04,7.852581174e-04,1.999876006e-04,2.180659518e-04,4.180535524e-04,5.036309062e-04,1.023242949e-04,6.059552011e-04,4.734864864e-04,3.920915936e-05,5.126956458e-04,4.362003844e-06,7.522038189e-05,7.958238574e-05,-4.075801707e-05,1.258427421e-04,8.508472506e-05,4.990856962e-04,4.260434128e-05,5.416900375e-04,1.760943849e-04,-2.061646117e-05,1.554779237e-04,1.013034568e-04,2.721415174e-05,1.285176085e-04,3.847664408e-04,-1.450341274e-04,2.397323134e-04,4.265635889e-04,4.616659930e-05,4.727301882e-04,9.594950441e-05,-7.825403330e-05,1.769547110e-05,-1.831957818e-04,2.554353135e-04,7.223953172e-05,-8.179059601e-05,-2.421796925e-05,-1.060085653e-04,3.777677616e-04,4.845234260e-04,8.622911876e-04,2.576950154e-04,2.379957168e-05,2.814945871e-04,8.870260076e-04,1.363021068e-04,1.023328114e-03,8.093273011e-04,6.075512138e-05,8.700824225e-04,-1.558318906e-04,5.967703595e-04,4.409384689e-04,8.797222439e-04,4.843120005e-04,1.364034244e-03
-6.8,-5.988230948e-05,4.229034342e-05,-1.759196606e-05,-1.274304112e-04,6.976574143e-05,-5.766466974e-05,5.069575848e-05,1.589524115e-04,2.096481700e-04,1.121467216e-04,1.175394061e-04,2.296861277e-04,5.728374662e-04,3.065331125e-05,6.034907775e-04,6.057046027e-04,2.124054860e-05,6.269451513e-04,6.394290640e-04,1.559378965e-04,7.953669605e-04,7.010414811e-04,1.098353364e-04,8.108768174e-04,3.082829380e-04,3.000112023e-04,6.082941403e-04,2.847671348e-04,1.208309542e-04,4.055980890e-04,1.871628451e-04,-2.075076207e-05,1.664120830e-04,6.801226525e-04,-1.134825197e-04,5.666401328e-04,8.049574363e-04,-1.198879283e-04,6.850695080e-04,4.145641635e-04,-1.107469711e-04,3.038171923e-04,5.820211718e-04,-6.186843120e-05,5.201527406e-04,1.583729901e-04,1.752901507e-04,3.336631408e-04,3.430152251e-04,5.141747468e-04,8.571899719e-04,2.269613750e-04,2.253141490e-04,4.522755240e-04,5.145671267e-04,1.053982649e-04,6.199653916e-04,5.350486120e-04,3.673388057e-05,5.717824926e-04,6.421194429e-05,8.050202266e-05,1.447139670e-04,1.622260041e-05,1.250019820e-04,1.412245824e-04,6.099819499e-04,4.835165121e-05,6.583336011e-04,2.462209991e-04,-1.753206303e-05,2.286889361e-04,1.825497618e-04,2.612630839e-05,2.086760702e-04,4.257724114e-04,-1.438084553e-04,2.819639560e-04,5.073940857e-04,3.831734197e-05,5.457114276e-04,1.556490132e-04,-7.680711522e-05,7.884189798e-05,-9.419434621e-05,2.450267443e-04,1.508323981e-04,-3.307703333e-05,-1.663122694e-05,-4.970826027e-05,4.796779213e-04,4.885709481e-04,9.682488694e-04,3.148717371e-04,2.348153252e-05,3.383532696e-04,1.000513764e-03,6.769057123e-05,1.068204335e-03,8.444352186e-04,8.208980616e-05,9.265250248e-04,-8.176121267e-05,5.915964586e-04,5.098352459e-04,8.037178105e-04,6.134912288e-04,1.417209039e-03
-6.7,-5.270988349e-05,3.640364837e-05,-1.630623512e-05,-1.028469107e-04,6.565800333e-05,-3.718890738e-05,1.301482286e-04,1.534484730e-04,2.835967016e-04,1.641968507e-04,1.190324469e-04,2.832292976e-04,6.157556261e-04,3.009360088e-05,6.458492269e-04,6.360946221e-04,1.779475822e-05,6.538893803e-04,6.683150435e-04,1.520328172e-04,8.203478606e-04,7.814055081e-04,1.029408012e-04,8.843463093e-04,3.574858981e-04,2.935492556e-04,6.510351537e-04,3.665097097e-04,1.141584451e-04,4.806681548e-04,2.611323274e-04,-2.709389217e-05,2.340384352e-04,6.935128134e-04,-1.150196821e-04,5.784931312e-04,8.875927731e-04,-1.416337027e-04,7.459590704e-04,4.411759234e-04,-1.152853042e-04,3.258906193e-04,6.457926929e-04,-8.450398708e-05,5.612887059e-04,2.453459415e-04,1.600346275e-04,4.053805690e-04,3.680199702e-04,5.536334108e-04,9.216533810e-04,2.483469897e-04,2.321274413e-04,4.804744310e-04,5.178901497e-04,1.078853887e-04,6.257755384e-04,5.919200745e-04,3.425393846e-05,6.261740129e-04,1.202396119e-04,8.543018592e-05,2.056697978e-04,6.932622919e-05,1.239136529e-04,1.932398821e-04,7.144159706e-04,5.380928631e-05,7.682252569e-04,3.120035595e-04,-1.445093193e-05,2.975526276e-04,2.601885656e-04,2.529647918e-05,2.854850447e-04,4.628590738e-04,-1.418472443e-04,3.210118294e-04,5.835778144e-04,3.000328270e-05,6.135810971e-04,2.115862065e-04,-7.449708316e-05,1.370891233e-04,-8.443108630e-06,2.338042490e-04,2.253611403e-04,1.216209444e-05,-8.475695692e-06,3.686398743e-06,5.743469863e-04,4.914224822e-04,1.065769469e-03,3.674119198e-04,2.306358637e-05,3.904755062e-04,1.105937858e-03,6.309200697e-07,1.106568778e-03,8.701742932e-04,1.044706054e-04,9.746448986e-04,-2.784021850e-06,5.806747319e-04,5.778907100e-04,7.175837250e-04,7.414628920e-04,1.459046617e-03
-6.6,-4.720688930e-05,3.056830660e-05,-1.663858271e-05,-7.972943948e-05,6.141462219e-05,-1.831481728e-05,2.055714956e-04,1.476887599e-04,3.532602555e-04,2.138287294e-04,1.202330300e-04,3.340617594e-04,6.538903403e-04,2.982160463e-05,6.837119450e-04,6.602501544e-04,1.480205279e-05,6.750522072e-04,6.916482936e-04,1.477985685e-04,8.394468622e-04,8.558184769e-04,9.588314587e-05,9.517016227e-04,4.027093497e-04,2.863550177e-04,6.890643674e-04,4.446632618e-04,1.072506814e-04,5.519139432e-04,3.300954659e-04,-3.324264103e-05,2.968528249e-04,7.008540384e-04,-1.155439232e-04,5.853101152e-04,9.617516525e-04,-1.607971498e-04,8.009545028e-04,4.645346389e-04,-1.192136823e-04,3.453209566e-04,7.031990025e-04,-1.052715326e-04,5.979274699e-04,3.279657948e-04,1.444245106e-04,4.723903054e-04,3.899607446e-04,5.882918308e-04,9.782525754e-04,2.644653589e-04,2.384503028e-04,5.029156617e-04,5.138625527e-04,1.097614277e-04,6.236239803e-04,6.440422881e-04,3.179415785e-05,6.758364459e-04,1.725245652e-04,9.000008011e-05,2.625246453e-04,1.186389940e-04,1.225689843e-04,2.412079783e-04,8.125039899e-04,5.898381605e-05,8.714878059e-04,3.735831298e-04,-1.136517503e-05,3.622179547e-04,3.340495199e-04,2.470266986e-05,3.587521898e-04,4.960405672e-04,-1.391628001e-04,3.568777671e-04,6.549020667e-04,2.125433435e-05,6.761564010e-04,2.638183452e-04,-7.143372200e-05,1.923846232e-04,7.390992330e-05,2.217945620e-04,2.957044853e-04,5.399169885e-05,1.859091570e-07,5.417760801e-05,6.612055718e-04,4.932811090e-04,1.154486681e-03,4.153169172e-04,2.255517807e-05,4.378720953e-04,1.202639251e-03,-6.422904536e-05,1.138410206e-03,8.875354076e-04,1.271681515e-04,1.014703559e-03,8.152912136e-05,5.638786431e-04,6.454077645e-04,6.229533290e-04,8.670808833e-04,1.490034212e-03
-6.5,-4.316571966e-05,2.479713373e-05,-1.836858593e-05,-5.794227106e-05,5.703944454e-05,-9.028265141e-07,2.772346617e-04,1.416747533e-04,4.189094149e-04,2.611905149e-04,1.211089019e-04,3.822994167e-04,6.874868823e-04,2.979346298e-05,7.172803453e-04,6.781230317e-04,1.226520300e-05,6.903882347e-04,7.094670486e-04,1.432478332e-04,8.527148818e-04,9.240891999e-04,8.864515553e-05,1.012734355e-03,4.440218238e-04,2.784325137e-04,7.224543374e-04,5.191008728e-04,1.001302671e-04,6.192311399e-04,3.941463477e-04,-3.916221087e-05,3.549841368e-04,7.022923095e-04,-1.150758955e-04,5.872164140e-04,1.027602186e-03,-1.776115023e-04,8.499906835e-04,4.847283968e-04,-1.225511023e-04,3.621772945e-04,7.543620715e-04,-1.241614811e-04,6.302005903e-04,4.060676956e-04,1.285447978e-04,5.346124933e-04,4.087510915e-04,6.179087268e-04,1.026659818e-03,2.756859139e-04,2.442303998e-04,5.199163137e-04,5.028234602e-04,1.110037882e-04,6.138272483e-04,6.913939740e-04,2.937406455e-05,7.207680386e-04,2.211783769e-04,9.420730428e-05,3.153856812e-04,1.642770723e-04,1.209600160e-04,2.852370883e-04,9.043937610e-04,6.388196814e-05,9.682757291e-04,4.311250843e-04,-8.267099421e-06,4.228579849e-04,4.039923976e-04,2.431551913e-05,4.283079167e-04,5.253621107e-04,-1.357756888e-04,3.895864220e-04,7.211827461e-04,1.211409462e-05,7.332968408e-04,3.124407504e-04,-6.774198773e-05,2.446987627e-04,1.527458977e-04,2.090223033e-04,3.617682010e-04,9.252206148e-05,9.265292507e-06,1.017873540e-04,7.397783214e-04,4.943340101e-04,1.234112331e-03,4.586262446e-04,2.196799196e-05,4.805942365e-04,1.290078014e-03,-1.263244487e-04,1.163753565e-03,8.975289318e-04,1.494594398e-04,1.046988372e-03,1.714851144e-04,5.411546443e-04,7.126397587e-04,5.215757235e-04,9.891539787e-04,1.510729702e-03
-6.4,-4.036495862e-05,1.910389366e-05,-2.126106496e-05,-3.733540525e-05,5.253765679e-05,1.520225153e-05,3.454187073e-04,1.354090925e-04,4.808277998e-04,3.064324506e-04,1.216293361e-04,4.280617867e-04,7.168163123e-04,2.996180302e-05,7.467781153e-04,6.897141496e-04,1.018080779e-05,6.998949574e-04,7.218504351e-04,1.383958204e-04,8.602462555e-04,9.860431174e-04,8.122965648e-05,1.067272774e-03,4.815220553e-04,2.697907394e-04,7.513127947e-04,5.897189908e-04,9.281902951e-05,6.825380203e-04,4.534173495e-04,-4.481955385e-05,4.085977956e-04,6.980198336e-04,-1.136471794e-04,5.843726542e-04,1.085382779e-03,-1.923472273e-04,8.930355513e-04,5.018626300e-04,-1.253187359e-04,3.765438941e-04,7.994341416e-04,-1.411896857e-04,6.582444559e-04,4.795198216e-04,1.124818493e-04,5.920016709e-04,4.243021014e-04,6.423232576e-04,1.066625359e-03,2.824164286e-04,2.494164272e-04,5.318328558e-04,4.851829200e-04,1.115925544e-04,5.967754744e-04,7.339872213e-04,2.700716513e-05,7.609943864e-04,2.663392245e-04,9.804760560e-05,3.643868301e-04,2.063813142e-04,1.190794259e-04,3.254607401e-04,9.902562008e-04,6.851018985e-05,1.058766391e-03,4.848125051e-04,-5.149417988e-06,4.796630871e-04,4.699047028e-04,2.409978401e-05,4.940044868e-04,5.508969608e-04,-1.317150580e-04,4.191819028e-04,7.822584626e-04,2.642429041e-06,7.849008917e-04,3.575804622e-04,-6.355855994e-05,2.940219023e-04,2.279695325e-04,1.955107292e-04,4.234802617e-04,1.279008512e-04,1.865149743e-05,1.465523487e-04,8.096967630e-04,4.947435074e-04,1.304440270e-03,4.974114390e-04,2.131456110e-05,5.187260001e-04,1.367827423e-03,-1.851690822e-04,1.182658341e-03,9.011619161e-04,1.706404408e-04,1.071802357e-03,2.672206832e-04,5.125501242e-04,7.797708074e-04,4.152761143e-04,1.106456624e-03,1.521732739e-03
-6.3,-3.857487468e-05,1.350297505e-05,-2.507189962e-05,-1.775091668e-05,4.791587885e-05,3.016496217e-05,4.104066913e-04,1.288957134e-04,5.393024047e-04,3.496999559e-04,1.217658170e-04,4.714657729e-04,7.421650302e-04,3.027655554e-05,7.724415857e-04,6.950713285e-04,8.539443431e-06,7.036107719e-04,7.289137090e-04,1.332594838e-04,8.621731928e-04,1.041516402e-03,7.366006081e-05,1.115176463e-03,5.153328384e-04,2.604435257e-04,7.757763640e-04,6.564328786e-04,8.533803664e-05,7.417709152e-04,5.080715602e-04,-5.018361742e-05,4.578879428e-04,6.882655594e-04,-1.112984108e-04,5.769671485e-04,1.135388552e-03,-2.053067948e-04,9.300817575e-04,5.160537391e-04,-1.275394359e-04,3.885143032e-04,8.385849941e-04,-1.563931406e-04,6.821918535e-04,5.482143087e-04,9.632375750e-05,6.445380662e-04,4.365279814e-04,6.614562465e-04,1.097984228e-03,2.850911505e-04,2.539565447e-04,5.390476952e-04,4.614145481e-04,1.115113165e-04,5.729258645e-04,7.718626411e-04,2.470069935e-05,7.965633405e-04,3.081657331e-04,1.015168095e-04,4.096825426e-04,2.451113221e-04,1.169204598e-04,3.620317819e-04,1.070276798e-03,7.287430247e-05,1.143151100e-03,5.348393165e-04,-2.005381268e-06,5.328339353e-04,5.316977764e-04,2.401586920e-05,5.557136456e-04,5.727417126e-04,-1.270185895e-04,4.457231231e-04,8.379845733e-04,-7.083388016e-06,8.309011853e-04,3.993871068e-04,-5.902770015e-05,3.403594067e-04,2.995023319e-04,1.812834546e-04,4.807857865e-04,1.603034431e-04,2.821494402e-05,1.885183871e-04,8.707072312e-04,4.946390968e-04,1.365346328e-03,5.317701352e-04,2.060608104e-05,5.523762162e-04,1.435564920e-03,-2.403470110e-04,1.195217909e-03,8.994202528e-04,1.900361628e-04,1.089456416e-03,3.686594495e-04,4.782404771e-04,8.468999266e-04,3.059148527e-04,1.217746242e-03,1.523661095e-03
-6.2,-3.756310432e-05,8.008998339e-06,-2.955410598e-05,9.707134503e-07,4.318223224e-05,4.415294569e-05,4.724743235e-04,1.221400897e-04,5.946144132e-04,3.911271692e-04,1.214926120e-04,5.126197813e-04,7.638246454e-04,3.068586204e-05,7.945105074e-04,6.942876846e-04,7.325639899e-06,7.016133245e-04,7.308035603e-04,1.278568014e-04,8.586603618e-04,1.090353190e-03,6.597891671e-05,1.156332107e-03,5.455947584e-04,2.504093340e-04,7.960040924e-04,7.191721168e-04,7.770790082e-05,7.968800176e-04,5.582953492e-04,-5.522552018e-05,5.030698290e-04,6.732857936e-04,-1.080766624e-04,5.652091312e-04,1.177955937e-03,-2.168182756e-04,9.611376616e-04,5.274234366e-04,-1.292373044e-04,3.981861322e-04,8.719916822e-04,-1.698254426e-04,7.021662396e-04,6.120587941e-04,8.016059317e-05,6.922193873e-04,4.453523988e-04,6.753080033e-04,1.120660402e-03,2.841577693e-04,2.577992035e-04,5.419569728e-04,4.320471842e-04,1.107478609e-04,5.427950451e-04,8.050848789e-04,2.245590210e-05,8.275407810e-04,3.468312988e-04,1.046108856e-04,4.514421843e-04,2.806404024e-04,1.144769873e-04,3.951173897e-04,1.144648425e-03,7.697929730e-05,1.221627722e-03,5.814044172e-04,1.171168034e-06,5.825755852e-04,5.893027792e-04,2.402120113e-05,6.133239803e-04,5.910114543e-04,-1.217322929e-04,4.692791615e-04,8.882293620e-04,-1.696929133e-05,8.712600707e-04,4.380235099e-04,-5.429716355e-05,3.837263464e-04,3.672770310e-04,1.663666520e-04,5.336436830e-04,1.899242943e-04,3.781184095e-05,2.277361353e-04,9.226760621e-04,4.941091830e-04,1.416785245e-03,5.618218561e-04,1.984975371e-05,5.816716099e-04,1.493062759e-03,-2.915021739e-04,1.201560585e-03,8.932530974e-04,2.070114565e-04,1.100264554e-03,4.754797365e-04,4.385506432e-04,9.140303797e-04,1.953480355e-04,1.321786502e-03,1.517134538e-03
-6.1,-3.709962033e-05,2.636444569e-06,-3.446317576e-05,1.898526156e-05,3.834646540e-05,5.733172696e-05,5.318823225e-04,1.151495775e-04,6.470319000e-04,4.308322274e-04,1.207872348e-04,5.516194622e-04,7.820837401e-04,3.113703122e-05,8.132207713e-04,6.875016519e-04,6.517824467e-06,6.940194763e-04,7.276947534e-04,1.222061843e-04,8.499009377e-04,1.132406468e-03,5.824529570e-05,1.190651764e-03,5.724607719e-04,2.397108708e-04,8.121716427e-04,7.778773870e-04,6.994924553e-05,8.478266325e-04,6.042923887e-04,-5.991869690e-05,5.443736918e-04,6.533570561e-04,-1.040324802e-04,5.493245759e-04,1.213447740e-03,-2.272265122e-04,9.862212276e-04,5.360950227e-04,-1.304373097e-04,4.056577130e-04,8.998322269e-04,-1.815524078e-04,7.182798191e-04,6.709703660e-04,6.408499882e-05,7.350553648e-04,4.507157952e-04,6.839535191e-04,1.134669314e-03,2.800653652e-04,2.608967528e-04,5.409621180e-04,3.976570123e-04,1.092946291e-04,5.069516414e-04,8.337396885e-04,2.026878051e-05,8.540084690e-04,3.825200245e-04,1.073261234e-04,4.898461479e-04,3.131525749e-04,1.117437175e-04,4.248962924e-04,1.213566849e-03,8.082931976e-05,1.294396169e-03,6.247078289e-04,4.385820902e-06,6.290936498e-04,6.426681455e-04,2.407128586e-05,6.667394313e-04,6.058364171e-04,-1.159103447e-04,4.899260724e-04,9.328737658e-04,-2.690657369e-05,9.059671922e-04,4.736583510e-04,-4.951463354e-05,4.241437175e-04,4.312351535e-04,1.507915456e-04,5.820266991e-04,2.169714307e-04,4.728871655e-05,2.642601472e-04,9.655927150e-04,4.931940996e-04,1.458786815e-03,5.877063256e-04,1.904655248e-05,6.067528780e-04,1.540182969e-03,-3.383302981e-04,1.201852671e-03,8.835587502e-04,2.209845574e-04,1.104543308e-03,5.871004267e-04,3.939651958e-04,9.810656226e-04,8.539132478e-05,1.417374518e-03,1.502765842e-03
-6,-3.696021978e-05,-2.600638835e-06,-3.956085861e-05,3.644111596e-05,3.342015214e-05,6.986126810e-05,5.888714585e-04,1.079337595e-04,6.968052180e-04,4.689150803e-04,1.196308010e-04,5.885458812e-04,7.972225008e-04,3.157746886e-05,8.287999696e-04,6.748987884e-04,6.088454855e-06,6.809872433e-04,7.197888580e-04,1.163259908e-04,8.361148488e-04,1.167542281e-03,5.053201398e-05,1.218074295e-03,5.960922563e-04,2.283744937e-04,8.244667501e-04,8.324992781e-04,6.208317124e-05,8.945824494e-04,6.462798096e-04,-6.423904145e-05,5.820407681e-04,6.287724687e-04,-9.921727148e-05,5.295551972e-04,1.242242534e-03,-2.368825878e-04,1.005359946e-03,5.421919502e-04,-1.311648064e-04,4.110271439e-04,9.222834673e-04,-1.916482435e-04,7.306352237e-04,7.248735927e-04,4.819285590e-05,7.730664486e-04,4.525810201e-04,6.875382405e-04,1.140119261e-03,2.732559678e-04,2.632104337e-04,5.364664015e-04,3.588616645e-04,1.071487616e-04,4.660104262e-04,8.579330894e-04,1.813129855e-05,8.760643880e-04,4.154245949e-04,1.096594331e-04,5.250840280e-04,3.428417971e-04,1.087166124e-04,4.515584095e-04,1.277228952e-03,8.442784217e-05,1.361656794e-03,6.649489431e-04,7.643676313e-06,6.725926194e-04,6.917595172e-04,2.412048932e-05,7.158800066e-04,6.173610194e-04,-1.096148844e-04,5.077461350e-04,9.718146235e-04,-3.677498598e-05,9.350396375e-04,5.064616116e-04,-4.482441526e-05,4.616371964e-04,4.913279329e-04,1.345970680e-04,6.259250008e-04,2.416643232e-04,5.648674625e-05,2.981510695e-04,9.995707584e-04,4.918826453e-04,1.491453404e-03,6.095842647e-04,1.819014121e-05,6.277744059e-04,1.576880700e-03,-3.805778731e-04,1.196302827e-03,8.711737296e-04,2.314423420e-04,1.102616072e-03,7.026886942e-04,3.451229581e-04,1.047811652e-03,-2.221023132e-05,1.503367669e-03,1.481157438e-03
-5.9,-3.692841457e-05,-7.688872478e-06,-4.461728705e-05,5.347732742e-05,2.841686193e-05,8.189418936e-05,6.436600905e-04,1.005046315e-04,7.441647220e-04,5.054575823e-04,1.180082920e-04,6.234658743e-04,8.095099517e-04,3.195549388e-05,8.414654455e-04,6.567142829e-04,6.004544398e-06,6.627188273e-04,7.073146618e-04,1.102341759e-04,8.175488377e-04,1.195646103e-03,4.292346831e-05,1.238569572e-03,6.166564227e-04,2.164295107e-04,8.330859334e-04,8.829988726e-04,5.413161980e-05,9.371304924e-04,6.844860173e-04,-6.816503173e-05,6.163209856e-04,5.998414540e-04,-9.368167367e-05,5.061597803e-04,1.264729937e-03,-2.461331591e-04,1.018596778e-03,5.458378960e-04,-1.314447784e-04,4.143931175e-04,9.395220955e-04,-2.001926311e-04,7.393294644e-04,7.737023739e-04,3.258348179e-05,8.062858557e-04,4.509349005e-04,6.862768737e-04,1.137211774e-03,2.641612695e-04,2.647142739e-04,5.288755434e-04,3.163165408e-04,1.043117117e-04,4.206282525e-04,8.777918751e-04,1.603275716e-05,8.938246323e-04,4.457452887e-04,1.116087303e-04,5.573540190e-04,3.699122273e-04,1.053934462e-04,4.753056735e-04,1.335832194e-03,8.777793206e-05,1.423610126e-03,7.023258096e-04,1.094937274e-05,7.132751824e-04,7.365618234e-04,2.412274946e-05,7.606845728e-04,6.257447883e-04,-1.029154763e-04,5.228293120e-04,1.004970264e-03,-4.644638453e-05,9.585238796e-04,5.366021255e-04,-4.036398382e-05,4.962381417e-04,5.475190301e-04,1.178322672e-04,6.653512973e-04,2.642335422e-04,6.524540892e-05,3.294789511e-04,1.024846866e-03,4.901122063e-04,1.514959073e-03,6.276395917e-04,1.726694670e-05,6.449065384e-04,1.603214543e-03,-4.180494093e-04,1.185165134e-03,8.568656044e-04,2.379548374e-04,1.094820442e-03,8.211851109e-04,2.927974116e-04,1.113982522e-03,-1.258045408e-04,1.578706235e-03,1.452901694e-03
-5.8,-3.679641940e-05,-1.261577095e-05,-4.941219035e-05,7.022260611e-05,2.335218537e-05,9.357479149e-05,6.964429877e-04,9.287655293e-05,7.893195407e-04,5.405245821e-04,1.159087724e-04,6.564333545e-04,8.192024151e-04,3.222100807e-05,8.514234232e-04,6.332343300e-04,6.228678056e-06,6.394630081e-04,6.905287206e-04,1.039481983e-04,7.944769189e-04,1.216629803e-03,3.551415729e-05,1.252143960e-03,6.343243888e-04,2.039075030e-04,8.382318918e-04,9.293490046e-04,4.611762205e-05,9.754666266e-04,7.191488492e-04,-7.167780703e-05,6.474710422e-04,5.668911982e-04,-8.747506974e-05,4.794161285e-04,1.281308506e-03,-2.553100644e-04,1.025998442e-03,5.471569475e-04,-1.313007889e-04,4.158561586e-04,9.517274560e-04,-2.072690043e-04,7.444584516e-04,8.174030676e-04,1.735924596e-05,8.347623135e-04,4.457860812e-04,6.804545498e-04,1.126240631e-03,2.532039649e-04,2.653958523e-04,5.185998172e-04,2.707118558e-04,1.007887917e-04,3.715006475e-04,8.934639555e-04,1.396108185e-05,9.074250374e-04,4.736888102e-04,1.131732723e-04,5.868620824e-04,3.945778847e-04,1.017743349e-04,4.963522196e-04,1.389573479e-03,9.088247019e-05,1.480455949e-03,7.370340760e-04,1.430698224e-05,7.513410583e-04,7.770820594e-04,2.403240544e-05,8.011144649e-04,6.311634536e-04,-9.588804457e-05,5.352754090e-04,1.032286750e-03,-5.578875242e-05,9.764979979e-04,5.642460006e-04,-3.626049470e-05,5.279855059e-04,5.997868801e-04,1.005579780e-04,7.003448581e-04,2.849199488e-04,7.340538778e-05,3.583253366e-04,1.041777200e-03,4.877713281e-04,1.529548528e-03,6.420811662e-04,1.625686160e-05,6.583380278e-04,1.619356377e-03,-4.506188065e-04,1.168737570e-03,8.413263197e-04,2.401882058e-04,1.081514525e-03,9.413382692e-04,2.378678684e-04,1.179206138e-03,-2.238497156e-04,1.642431567e-03,1.418581851e-03
-5.7,-3.636624663e-05,-1.736997338e-05,-5.373622001e-05,8.679426628e-05,1.824360566e-05,1.050378719e-04,7.473900607e-04,8.506601302e-05,8.324560737e-04,5.741645831e-04,1.133256228e-04,6.874902059e-04,8.265416810e-04,3.232606851e-05,8.588677496e-04,6.047947719e-04,6.720492083e-06,6.115152640e-04,6.697144620e-04,9.748517126e-05,7.671996333e-04,1.230438169e-03,2.840692615e-05,1.258845095e-03,6.492691583e-04,1.908417305e-04,8.401108888e-04,9.715349711e-04,3.806541693e-05,1.009600388e-03,7.505128222e-04,-7.476120297e-05,6.757516192e-04,5.302681571e-04,-8.064608465e-05,4.496220724e-04,1.292381687e-03,-2.647197609e-04,1.027661926e-03,5.462728974e-04,-1.307538708e-04,4.155190266e-04,9.590846156e-04,-2.129639246e-04,7.461206910e-04,8.559360956e-04,2.624902900e-06,8.585609985e-04,4.371615141e-04,6.704274030e-04,1.107588917e-03,2.408010419e-04,2.652538450e-04,5.060548869e-04,2.227682770e-04,9.658923762e-05,3.193575146e-04,9.051172821e-04,1.190377739e-05,9.170210595e-04,4.994660151e-04,1.143538090e-04,6.138198241e-04,4.170607108e-04,9.786206066e-05,5.149227715e-04,1.438646469e-03,9.374422259e-05,1.532390692e-03,7.692647844e-04,1.771974148e-05,7.869845259e-04,8.133512750e-04,2.380513627e-05,8.371564113e-04,6.338083763e-04,-8.861317772e-05,5.451951986e-04,1.053743227e-03,-6.467036202e-05,9.890728648e-04,5.895548319e-04,-3.262761595e-05,5.569272160e-04,6.481253078e-04,8.284757556e-05,7.309728833e-04,3.039719721e-04,8.081118183e-05,3.847831539e-04,1.050829358e-03,4.847043647e-04,1.535533722e-03,6.531423654e-04,1.513399587e-05,6.682763613e-04,1.625592284e-03,-4.782379432e-04,1.147354341e-03,8.251612879e-04,2.379171561e-04,1.063078444e-03,1.061745318e-03,1.812851643e-04,1.243030482e-03,-3.149313368e-04,1.693702638e-03,1.378771301e-03
-5.6,-3.545158392e-05,-2.194143535e-05,-5.739301926e-05,1.032964895e-04,1.311028592e-05,1.164067755e-04,7.966442716e-04,7.709129525e-05,8.737355669e-04,6.064092356e-04,1.102568024e-04,7.166660380e-04,8.317520542e-04,3.222544988e-05,8.639775041e-04,5.717764906e-04,7.438477043e-06,5.792149677e-04,6.451791959e-04,9.086204291e-05,7.360412388e-04,1.237055034e-03,2.170960249e-05,1.258764637e-03,6.616630910e-04,1.772666172e-04,8.389297083e-04,1.009554034e-03,3.000038789e-05,1.039554422e-03,7.788249797e-04,-7.740178234e-05,7.014231974e-04,4.903387656e-04,-7.324396626e-05,4.170947993e-04,1.298350302e-03,-2.746324223e-04,1.023717880e-03,5.433074736e-04,-1.298216894e-04,4.134857843e-04,9.617869928e-04,-2.173674918e-04,7.444195010e-04,8.892749437e-04,-1.151315602e-05,8.777617877e-04,4.251046329e-04,6.566194590e-04,1.081724092e-03,2.273655968e-04,2.642940864e-04,4.916596832e-04,1.732296898e-04,9.172704118e-05,2.649567310e-04,9.129369518e-04,9.848548659e-06,9.227855004e-04,5.232883415e-04,1.151525588e-04,6.384409003e-04,4.375870025e-04,9.366214442e-05,5.312491469e-04,1.483237484e-03,9.636577911e-05,1.579603264e-03,7.992010312e-04,2.118967579e-05,8.203907069e-04,8.454249195e-04,2.339885125e-05,8.688237707e-04,6.338832710e-04,-8.117366874e-05,5.527096023e-04,1.069355536e-03,-7.296384393e-05,9.963916922e-04,6.126828560e-04,-2.956282384e-05,5.831200321e-04,6.925423790e-04,6.478683638e-05,7.573292154e-04,3.216406109e-04,8.731407299e-05,4.089546839e-04,1.052568527e-03,4.807183422e-04,1.533286869e-03,6.610779553e-04,1.386704053e-05,6.749449958e-04,1.622311531e-03,-5.009378395e-04,1.121373692e-03,8.088732359e-04,2.310366133e-04,1.039909849e-03,1.180898437e-03,1.240330286e-04,1.304931465e-03,-3.977818407e-04,1.731813348e-03,1.334031508e-03
-5.5,-3.388054070e-05,-2.632155248e-05,-6.020209318e-05,1.198178851e-04,7.972794685e-06,1.277906798e-04,8.443187949e-04,6.897208899e-05,9.132908839e-04,6.372717889e-04,1.067050725e-04,7.439768615e-04,8.350363129e-04,3.187725701e-05,8.669135700e-04,5.345983705e-04,8.341859083e-06,5.429402295e-04,6.172493992e-04,8.409559477e-05,7.013449939e-04,1.236509641e-03,1.552946911e-05,1.252039110e-03,6.716748613e-04,1.632173477e-04,8.348922090e-04,1.043413781e-03,2.194878870e-05,1.065362570e-03,8.043296867e-04,-7.958888621e-05,7.247408005e-04,4.474892638e-04,-6.532067580e-05,3.821685880e-04,1.299602617e-03,-2.852706081e-04,1.014332009e-03,5.383779563e-04,-1.285181843e-04,4.098597721e-04,9.600391478e-04,-2.205750909e-04,7.394640569e-04,9.174035105e-04,-2.494800359e-05,8.924555069e-04,4.096776343e-04,6.395142909e-04,1.049191925e-03,2.133052850e-04,2.625260987e-04,4.758313837e-04,1.228528684e-04,8.622221518e-05,2.090750836e-04,9.171209208e-04,7.783793229e-06,9.249047141e-04,5.453633675e-04,1.155731382e-04,6.609365058e-04,4.563828400e-04,8.918276979e-05,5.455656098e-04,1.523520802e-03,9.874943952e-05,1.622270241e-03,8.270140502e-04,2.471721479e-05,8.517312650e-04,8.733814263e-04,2.277438503e-05,8.961558114e-04,6.315984073e-04,-7.365140812e-05,5.579469991e-04,1.079178040e-03,-8.055007432e-05,9.986279660e-04,6.337726324e-04,-2.714520209e-05,6.066274303e-04,7.330585145e-04,4.647283872e-05,7.795313533e-04,3.381727778e-04,9.277579402e-05,4.309485718e-04,1.047639008e-03,4.755914234e-04,1.523230432e-03,6.661592375e-04,1.241911710e-05,6.785783546e-04,1.609988070e-03,-5.188229044e-04,1.091165166e-03,7.928457681e-04,2.195701557e-04,1.012415924e-03,1.297236851e-03,6.708590055e-05,1.364322752e-03,-4.713005938e-04,1.756209664e-03,1.284909070e-03
-5.4,-3.149885003e-05,-3.050324382e-05,-6.200209385e-05,1.364288333e-04,2.852718818e-06,1.392815521e-04,8.904941156e-04,6.072908958e-05,9.512232052e-04,6.667452792e-04,1.026780931e-04,7.694233722e-04,8.365713492e-04,3.124358606e-05,8.678149353e-04,4.937095779e-04,9.392186046e-06,5.031017639e-04,5.862652113e-04,7.720224682e-05,6.634674582e-04,1.228883737e-03,9.966218642e-06,1.238849955e-03,6.794662605e-04,1.487296204e-04,8.281958809e-04,1.073129996e-03,1.393731533e-05,1.087067311e-03,8.272632796e-04,-8.131468596e-05,7.459485937e-04,4.021246250e-04,-5.693300373e-05,3.451916213e-04,1.296503496e-03,-2.967977382e-04,9.997057577e-04,5.315949288e-04,-1.268537156e-04,4.047412133e-04,9.540603260e-04,-2.226900185e-04,7.313703074e-04,9.403140105e-04,-3.757413924e-05,9.027398713e-04,3.909681757e-04,6.196424064e-04,1.010610582e-03,1.990179651e-04,2.599610421e-04,4.589790072e-04,7.239496054e-05,8.010207151e-05,1.524970321e-04,9.178752821e-04,5.699166223e-06,9.235744483e-04,5.658903298e-04,1.156205456e-04,6.815108753e-04,4.736695255e-04,8.443468756e-05,5.581042130e-04,1.559654552e-03,1.008971263e-04,1.660551678e-03,8.528596229e-04,2.830089266e-05,8.811605155e-04,8.973195465e-04,2.189598716e-05,9.192155336e-04,6.271637644e-04,-6.612426040e-05,5.610395040e-04,1.083303946e-03,-8.732174460e-05,9.959822012e-04,6.529499926e-04,-2.543385991e-05,6.275161327e-04,7.697053636e-04,2.801187282e-05,7.977172364e-04,3.538049152e-04,9.707251580e-05,4.508774310e-04,1.036744873e-03,4.690818098e-04,1.505826683e-03,6.686692936e-04,1.074749385e-05,6.794167874e-04,1.589162390e-03,-5.320622052e-04,1.057100185e-03,7.773336517e-04,2.036720927e-04,9.810057444e-04,1.409202252e-03,1.136620103e-05,1.420568453e-03,-5.345722351e-04,1.766502548e-03,1.231930313e-03
-5.3,-2.817279594e-05,-3.448102494e-05,-6.265382088e-05,1.531793868e-04,-2.227843411e-06,1.509515434e-04,9.352161556e-04,5.238365545e-05,9.875998111e-04,6.948015744e-04,9.818837092e-05,7.929899453e-04,8.365047969e-04,3.029118513e-05,8.667959821e-04,4.495831114e-04,1.055417710e-05,4.601372885e-04,5.525753457e-04,7.019781419e-05,6.227731599e-04,1.214319217e-03,5.104753565e-06,1.219423971e-03,6.851894847e-04,1.338395240e-04,8.190290086e-04,1.098725001e-03,5.992615522e-06,1.104717617e-03,8.478497162e-04,-8.257420809e-05,7.652755081e-04,3.546668233e-04,-4.814393178e-05,3.065228915e-04,1.289384935e-03,-3.093081859e-04,9.800767492e-04,5.230610581e-04,-1.248355896e-04,3.982254685e-04,9.440884179e-04,-2.238253960e-04,7.202630219e-04,9.580078202e-04,-4.929041912e-05,9.087174011e-04,3.690988244e-04,5.975668007e-04,9.666656252e-04,1.848865797e-04,2.566109096e-04,4.414974893e-04,2.260038094e-05,7.340250015e-05,9.600288109e-05,9.154102514e-04,3.586281626e-06,9.189965330e-04,5.850566482e-04,1.153011740e-04,7.003578222e-04,4.896602407e-04,7.943114576e-05,5.690913865e-04,1.591778520e-03,1.028103788e-04,1.694588899e-03,8.768758463e-04,3.193720245e-05,9.088130487e-04,9.173553633e-04,2.073177951e-05,9.380871428e-04,6.207833193e-04,-5.866366397e-05,5.621196554e-04,1.081864625e-03,-9.318627016e-05,9.886783549e-04,6.703201157e-04,-2.446691371e-05,6.458532020e-04,8.025267772e-04,9.516687422e-06,8.120434647e-04,3.687595961e-04,1.000983370e-04,4.688579331e-04,1.020633272e-03,4.609368623e-04,1.481570135e-03,6.688998605e-04,8.803903929e-06,6.777037644e-04,1.560428288e-03,-5.408805420e-04,1.019547746e-03,7.624632818e-04,1.836217786e-04,9.460850605e-04,1.515294162e-03,-4.229309341e-05,1.473001068e-03,-5.868807749e-04,1.762473280e-03,1.175592505e-03
-5.2,-2.379104929e-05,-3.825103364e-05,-6.204208293e-05,1.700985375e-04,-7.246795606e-06,1.628517419e-04,9.784965854e-04,4.395757031e-05,1.022454156e-03,7.213924083e-04,9.325309054e-05,8.146454989e-04,8.349540549e-04,2.899204831e-05,8.639461032e-04,4.027120470e-04,1.179556477e-05,4.145076117e-04,5.165336800e-04,6.309731998e-05,5.796309999e-04,1.193025808e-03,1.009006431e-06,1.194034815e-03,6.889856183e-04,1.185834027e-04,8.075690210e-04,1.120227415e-03,-1.859195513e-06,1.118368219e-03,8.662982284e-04,-8.336534489e-05,7.829328835e-04,3.055533218e-04,-3.902311580e-05,2.665302060e-04,1.278540957e-03,-3.228218749e-04,9.557190818e-04,5.128717216e-04,-1.224688025e-04,3.904029192e-04,9.303841543e-04,-2.241042535e-04,7.062799008e-04,9.705009196e-04,-6.000353109e-05,9.104973885e-04,3.442367144e-04,5.738683749e-04,9.181050892e-04,1.712757349e-04,2.524880275e-04,4.237637624e-04,-2.581112052e-05,6.616935955e-05,4.035823904e-05,9.099378389e-04,1.439478265e-06,9.113773172e-04,6.030363174e-04,1.146228037e-04,7.176591211e-04,5.045588648e-04,7.418781368e-05,5.787466785e-04,1.620014686e-03,1.044904623e-04,1.724505148e-03,8.991829444e-04,3.562064717e-05,9.348035916e-04,9.336200882e-04,1.925442829e-05,9.528745165e-04,6.126522121e-04,-5.133315308e-05,5.613190590e-04,1.075028736e-03,-9.806754263e-05,9.769611938e-04,6.859664754e-04,-2.426081151e-05,6.617056638e-04,8.315824280e-04,-8.896429477e-06,8.226859986e-04,3.832460847e-04,1.017681938e-04,4.850142786e-04,1.000081531e-03,4.509032483e-04,1.450984779e-03,6.671501573e-04,6.536120833e-06,6.736862781e-04,1.524424197e-03,-5.455492092e-04,9.788749877e-04,7.482424920e-04,1.598117208e-04,9.080542128e-04,1.614122266e-03,-9.317591843e-05,1.520946348e-03,-6.277186664e-04,1.744073374e-03,1.116354708e-03
-5.1,-1.826487965e-05,-4.181094373e-05,-6.007582338e-05,1.871953133e-04,-1.218242198e-05,1.750128913e-04,1.020315885e-03,3.547287074e-05,1.055788756e-03,7.464529677e-04,8.789384873e-05,8.343468164e-04,8.320083944e-04,2.732387979e-05,8.593322742e-04,3.536086503e-04,1.308605804e-05,3.666947084e-04,4.784982320e-04,5.591483476e-05,5.344130667e-04,1.165288313e-03,-2.282792793e-06,1.163005520e-03,6.909846692e-04,1.029976092e-04,7.939822784e-04,1.137673622e-03,-9.592962756e-06,1.128080660e-03,8.828032751e-04,-8.368887764e-05,7.991143975e-04,2.552365434e-04,-2.964679338e-05,2.255897500e-04,1.264228411e-03,-3.372849350e-04,9.269434764e-04,5.011177236e-04,-1.197569017e-04,3.813608219e-04,9.132356566e-04,-2.236579775e-04,6.895776792e-04,9.778339664e-04,-6.963163678e-05,9.082023296e-04,3.165994833e-04,5.491318823e-04,8.657313656e-04,1.585316736e-04,2.476039344e-04,4.061356080e-04,-7.215381693e-05,5.845967470e-05,-1.369414224e-05,9.016714392e-04,-7.434685730e-07,9.009279706e-04,6.199902320e-04,1.135945854e-04,7.335848173e-04,5.185608898e-04,6.872265046e-05,5.872835403e-04,1.644470071e-03,1.059385774e-04,1.750408648e-03,9.198848870e-04,3.934395980e-05,9.592288468e-04,9.462594345e-04,1.744214316e-05,9.637015776e-04,6.029571503e-04,-4.418744089e-05,5.587697094e-04,1.063002000e-03,-1.019061851e-04,9.610958150e-04,6.999532211e-04,-2.481008656e-05,6.751431346e-04,8.569532581e-04,-2.711049719e-05,8.298427609e-04,3.974625768e-04,1.020210400e-04,4.994836167e-04,9.758874898e-04,4.387380950e-04,1.414625585e-03,6.637264580e-04,3.891115539e-06,6.676175735e-04,1.481827179e-03,-5.463758410e-04,9.354513379e-04,7.345775658e-04,1.327325579e-04,8.673101237e-04,1.704453357e-03,-1.407007374e-04,1.563752620e-03,-6.567930279e-04,1.711425502e-03,1.054632474e-03
-5,-1.152688183e-05,-4.515978984e-05,-5.668667166e-05,2.044614268e-04,-1.701361870e-05,1.874478081e-04,1.060628517e-03,2.695163015e-05,1.087580147e-03,7.699074410e-04,8.213628672e-05,8.520437278e-04,8.277334268e-04,2.527038290e-05,8.530038097e-04,3.028049360e-04,1.439592048e-05,3.172008565e-04,4.388319730e-04,4.866329617e-05,4.874952692e-04,1.131472228e-03,-4.761285253e-06,1.126710943e-03,6.913068269e-04,8.711817195e-05,7.784249988e-04,1.151110306e-03,-1.718482331e-05,1.133925483e-03,8.975460074e-04,-8.354848854e-05,8.139975188e-04,2.041837434e-04,-2.009716289e-05,1.840865805e-04,1.246672499e-03,-3.525755263e-04,8.940969726e-04,4.878893414e-04,-1.167029029e-04,3.711864385e-04,8.929622081e-04,-2.226235712e-04,6.703386369e-04,9.800848435e-04,-7.810810286e-05,9.019767406e-04,2.864535346e-04,5.239327171e-04,8.103862518e-04,1.469847948e-04,2.419675784e-04,3.889523732e-04,-1.157823902e-04,5.034208197e-05,-6.544030820e-05,8.908264785e-04,-2.960785281e-06,8.878656932e-04,6.360675153e-04,1.122270309e-04,7.482945463e-04,5.318551580e-04,6.305568180e-05,5.949108398e-04,1.665240212e-03,1.071560855e-04,1.772396297e-03,9.390716570e-04,4.309836273e-05,9.821700197e-04,9.554342990e-04,1.527991821e-05,9.707142172e-04,5.918788579e-04,-3.727175640e-05,5.546071015e-04,1.046027945e-03,-1.046587346e-04,9.413692103e-04,7.123300384e-04,-2.608793958e-05,6.862420988e-04,8.787466724e-04,-4.501065292e-05,8.337360195e-04,4.115967615e-04,1.008236077e-04,5.124203692e-04,9.488620437e-04,4.242197664e-04,1.373081810e-03,6.589403018e-04,8.197464356e-07,6.597600482e-04,1.433347928e-03,-5.436937688e-04,8.896541587e-04,7.212958231e-04,1.029565152e-04,8.242523383e-04,1.785248486e-03,-1.844309234e-04,1.600817562e-03,-6.740300665e-04,1.664827599e-03,9.907975322e-04
-4.9,-3.529008759e-06,-4.829782502e-05,-5.182683378e-05,2.218745211e-04,-2.172009672e-05,2.001544244e-04,1.099368628e-03,1.841562285e-05,1.117784251e-03,7.916749565e-04,7.600961935e-05,8.676845758e-04,8.221761361e-04,2.282136900e-05,8.449975051e-04,2.508523793e-04,1.569472978e-05,2.665471090e-04,3.979039022e-04,4.135432898e-05,4.392582312e-04,1.092025537e-03,-6.447299764e-06,1.085578238e-03,6.900640809e-04,7.098050120e-05,7.610445821e-04,1.160596758e-03,-2.461242283e-05,1.135984335e-03,9.106957709e-04,-8.295069827e-05,8.277450727e-04,1.528755127e-04,-1.046109285e-05,1.424144198e-04,1.226074653e-03,-3.685126796e-04,8.575619735e-04,4.732802207e-04,-1.133101697e-04,3.599700509e-04,8.699147452e-04,-2.211397826e-04,6.487749626e-04,9.773800953e-04,-8.538512429e-05,8.919949711e-04,2.541051970e-04,4.988239508e-04,7.529291478e-04,1.369515212e-04,2.355835633e-04,3.725350845e-04,-1.560962320e-04,4.189628940e-05,-1.141999426e-04,8.776206481e-04,-5.206388952e-06,8.724142591e-04,6.514065075e-04,1.105319482e-04,7.619384557e-04,5.446247232e-04,5.720864339e-05,6.018333666e-04,1.682411470e-03,1.081446350e-04,1.790556105e-03,9.568208408e-04,4.687370627e-05,1.003694547e-03,9.613213580e-04,1.276080616e-05,9.740821641e-04,5.795946278e-04,-3.062161450e-05,5.489730133e-04,1.024388985e-03,-1.062968806e-04,9.180921047e-04,7.231373044e-04,-2.804776267e-05,6.950895417e-04,8.970992089e-04,-6.248689147e-05,8.346123174e-04,4.258231844e-04,9.817374550e-05,5.239969299e-04,9.198216371e-04,4.071574712e-04,1.326979108e-03,6.531036116e-04,-2.717456179e-06,6.503861554e-04,1.379724922e-03,-5.378516335e-04,8.418732884e-04,7.081720490e-04,7.111904818e-05,7.792910972e-04,1.855684702e-03,-2.240794516e-04,1.631605250e-03,-6.795742091e-04,1.604754945e-03,9.251807362e-04
-4.8,5.759133716e-06,-5.122649129e-05,-4.546735757e-05,2.394009537e-04,-2.628264271e-05,2.131183110e-04,1.136454770e-03,9.885900058e-06,1.146340670e-03,8.116743442e-04,6.954610336e-05,8.812204475e-04,8.153688101e-04,1.997273435e-05,8.353415445e-04,1.983189777e-04,1.695063958e-05,2.152696172e-04,3.560888253e-04,3.399809709e-05,3.900869224e-04,1.047474874e-03,-7.391312371e-06,1.040083561e-03,6.873613313e-04,5.461921840e-05,7.419805497e-04,1.166205926e-03,-3.185501588e-05,1.134350910e-03,9.224103902e-04,-8.190470285e-05,8.405056874e-04,1.018015119e-04,-8.283383777e-07,1.009731735e-04,1.202620778e-03,-3.848661154e-04,8.177546623e-04,4.573897994e-04,-1.095831866e-04,3.478066128e-04,8.444711987e-04,-2.193421125e-04,6.251290862e-04,9.699022672e-04,-9.143672066e-05,8.784655465e-04,2.198895219e-04,4.743225791e-04,6.942121010e-04,1.287329255e-04,2.284509349e-04,3.571838605e-04,-1.925431461e-04,3.321175800e-05,-1.593313881e-04,8.622725735e-04,-7.469915995e-06,8.548026575e-04,6.661344768e-04,1.085222211e-04,7.746566979e-04,5.570457866e-04,5.120442488e-05,6.082502114e-04,1.696061330e-03,1.089061098e-04,1.804967440e-03,9.731978003e-04,5.065841165e-05,1.023856212e-03,9.641121884e-04,9.886895568e-06,9.739990839e-04,5.662794059e-04,-2.426332575e-05,5.420160801e-04,9.984064242e-04,-1.068074835e-04,8.915989408e-04,7.324093544e-04,-3.062513763e-05,7.017842168e-04,9.121754698e-04,-7.943644071e-05,8.327390291e-04,4.402978140e-04,9.410217722e-05,5.343999912e-04,8.895777586e-04,3.874001761e-04,1.276977935e-03,6.465204092e-04,-6.744224763e-06,6.397761844e-04,1.321716655e-03,-5.292043177e-04,7.925123374e-04,6.949556776e-04,3.789861438e-05,7.328542920e-04,1.915158894e-03,-2.595070738e-04,1.655651820e-03,-6.737775819e-04,1.531854387e-03,8.580768051e-04
-4.7,1.635110242e-05,-5.394845315e-05,-3.759735073e-05,2.569974711e-04,-3.068339487e-05,2.263140762e-04,1.171792910e-03,1.382370067e-06,1.173175280e-03,8.298269437e-04,6.278051284e-05,8.926074565e-04,8.073311002e-04,1.672638119e-05,8.240574813e-04,1.457831215e-04,1.813012670e-05,1.639132482e-04,3.137650978e-04,2.660315511e-05,3.403682530e-04,9.984159597e-04,-7.671608692e-06,9.907443510e-04,6.832965576e-04,3.806809827e-05,7.213646559e-04,1.168023838e-03,-3.889349767e-05,1.129130340e-03,9.328347718e-04,-8.042215665e-05,8.524126152e-04,5.145343066e-05,8.710353361e-06,6.016378402e-05,1.176487926e-03,-4.013656576e-04,7.751222684e-04,4.403237415e-04,-1.055282162e-04,3.347955253e-04,8.170268442e-04,-2.173569152e-04,5.996699290e-04,9.578920779e-04,-9.626064051e-05,8.616314374e-04,1.841599005e-04,4.508954253e-04,6.350553258e-04,1.226100734e-04,2.205622350e-04,3.431723084e-04,-2.246233973e-04,2.438586427e-05,-2.002375331e-04,8.449986750e-04,-9.737075681e-06,8.352615993e-04,6.803658589e-04,1.062114449e-04,7.865773039e-04,5.692846891e-04,4.506628063e-05,6.143509697e-04,1.706256934e-03,1.094424146e-04,1.815699349e-03,9.882544491e-04,5.443927103e-05,1.042693720e-03,9.640105180e-04,6.669553182e-06,9.706800712e-04,5.521047144e-04,-1.821508248e-05,5.338896319e-04,9.684382061e-04,-1.061931756e-04,8.622450305e-04,7.401749037e-04,-3.373963794e-05,7.064352658e-04,9.241636686e-04,-9.576543547e-05,8.283982331e-04,4.551507418e-04,8.867254706e-05,5.438232889e-04,8.589221162e-04,3.648446417e-04,1.223766758e-03,6.394763323e-04,-1.126322602e-05,6.282131063e-04,1.260093245e-03,-5.181069453e-04,7.419862997e-04,6.813949293e-04,3.995546317e-06,6.853904756e-04,1.963275968e-03,-2.907117604e-04,1.672564207e-03,-6.571794697e-04,1.446930729e-03,7.897512592e-04
-4.6,2.824343518e-05,-5.646760932e-05,-2.822417414e-05,2.746117221e-04,-3.490606707e-05,2.397056551e-04,1.205277788e-03,-7.076562600e-06,1.198201226e-03,8.460575479e-04,5.574964683e-05,9.018071948e-04,7.980703346e-04,1.309013335e-05,8.111604680e-04,9.382491078e-05,1.919807566e-05,1.130229864e-04,2.713105067e-04,1.917621683e-05,2.904867236e-04,9.454999899e-04,-7.391759002e-06,9.381082309e-04,6.779601312e-04,2.136006928e-05,6.993202005e-04,1.166147749e-03,-4.571046040e-05,1.120437289e-03,9.420981995e-04,-7.851697727e-05,8.635812223e-04,2.315990831e-06,1.806521187e-05,2.038120270e-05,1.147848413e-03,-4.177101505e-04,7.301382627e-04,4.221926775e-04,-1.011538395e-04,3.210388380e-04,7.879816162e-04,-2.152952011e-04,5.726864151e-04,9.416461540e-04,-9.987917148e-05,8.417669825e-04,1.472796192e-04,4.289454832e-04,5.762251024e-04,1.188376642e-04,2.119023811e-04,3.307400453e-04,-2.518941743e-04,1.552166895e-05,-2.363725054e-04,8.260088786e-04,-1.199022931e-05,8.140186493e-04,6.941994704e-04,1.036135637e-04,7.978130341e-04,5.814937155e-04,3.881691495e-05,6.203106305e-04,1.713052800e-03,1.097551826e-04,1.822807982e-03,1.002027236e-03,5.820122589e-05,1.060228462e-03,9.612281081e-04,3.128659039e-06,9.643567672e-04,5.372356251e-04,-1.248810641e-05,5.247475187e-04,9.348743175e-04,-1.044731048e-04,8.304012127e-04,7.464551775e-04,-3.729619987e-05,7.091589776e-04,9.332694207e-04,-1.113898541e-04,8.218795665e-04,4.704782968e-04,8.198025213e-05,5.524585489e-04,8.286088382e-04,3.394411449e-04,1.168049983e-03,6.322280148e-04,-1.625233367e-05,6.159756811e-04,1.195629334e-03,-5.049130213e-04,6.907163124e-04,6.672557850e-04,-2.988878011e-05,6.373670049e-04,1.999827241e-03,-3.178096660e-04,1.682017575e-03,-6.304795400e-04,1.350930305e-03,7.204507652e-04
-4.5,4.141485281e-05,-5.878908323e-05,-1.737423042e-05,2.921821290e-04,-3.893615885e-05,2.532459701e-04,1.236793336e-03,-1.547429955e-05,1.221319037e-03,8.602942323e-04,4.849182343e-05,9.087860557e-04,7.875809125e-04,9.077631506e-06,7.966585440e-04,4.301631212e-05,2.011816567e-05,6.313447779e-05,2.290970994e-04,1.172185475e-05,2.408189542e-04,8.894183856e-04,-6.677672786e-06,8.827407128e-04,6.714337580e-04,4.527247846e-06,6.759610059e-04,1.160683823e-03,-5.229031736e-05,1.108393505e-03,9.503112842e-04,-7.620520628e-05,8.741060779e-04,-4.514306206e-05,2.714977283e-05,-1.799328923e-05,1.116873208e-03,-4.335775910e-04,6.832956166e-04,4.031100848e-04,-9.647133074e-05,3.066387541e-04,7.577273024e-04,-2.132474015e-04,5.444799009e-04,9.215122253e-04,-1.023393431e-04,8.191728823e-04,1.096189171e-04,4.087966745e-04,5.184155915e-04,1.176375721e-04,2.024475798e-04,3.200851519e-04,-2.739741241e-04,6.725394550e-06,-2.672487295e-04,8.055023728e-04,-1.420910823e-05,7.912932645e-04,7.077155941e-04,1.007426715e-04,8.084582656e-04,5.938068490e-04,3.247767979e-05,6.262845288e-04,1.716488981e-03,1.098455021e-04,1.826334483e-03,1.014535289e-03,6.192723558e-05,1.076462525e-03,9.559801352e-04,-7.089874043e-07,9.552711478e-04,5.218267273e-04,-7.087563781e-06,5.147391635e-04,8.981305424e-04,-1.016835337e-04,7.964470087e-04,7.512615736e-04,-4.118649125e-05,7.100750823e-04,9.397099801e-04,-1.262361100e-04,8.134738701e-04,4.863367321e-04,7.415033601e-05,5.604870681e-04,7.993364079e-04,3.111962093e-04,1.110532617e-03,6.249946181e-04,-2.166304549e-05,6.033315727e-04,1.129097349e-03,-4.899752119e-04,6.391221374e-04,6.523361907e-04,-6.307152741e-05,5.892646633e-04,2.024766298e-03,-3.410122201e-04,1.683754078e-03,-5.945098287e-04,1.244926572e-03,6.504167429e-04
-4.4,5.582557842e-05,-6.091924874e-05,-5.093670317e-06,3.096380050e-04,-4.276124416e-05,2.668767608e-04,1.266213287e-03,-2.379628583e-05,1.242417001e-03,8.724682294e-04,4.104630133e-05,9.135145307e-04,7.758441466e-04,4.708151130e-06,7.805522977e-04,-6.088115759e-06,2.085359966e-05,1.476548390e-05,1.874861319e-04,4.242340234e-06,1.917284722e-04,8.308880086e-04,-5.674053199e-06,8.252139554e-04,6.637898277e-04,-1.239900333e-05,6.513908244e-04,1.151745312e-03,-5.861944866e-05,1.093125864e-03,9.575638271e-04,-7.350490834e-05,8.840589188e-04,-9.048252881e-05,3.588353534e-05,-5.459899347e-05,1.083738552e-03,-4.486384451e-04,6.351001070e-04,3.831904088e-04,-9.149480234e-05,2.916956065e-04,7.266375381e-04,-2.112803660e-04,5.153571721e-04,8.978841204e-04,-1.037129826e-04,7.941711378e-04,7.156241812e-05,3.906743644e-04,4.622367825e-04,1.191934274e-04,1.921651631e-04,3.113585905e-04,-2.905473878e-04,-1.896286293e-06,-2.924436741e-04,7.836647456e-04,-1.637164559e-05,7.672931000e-04,7.209740927e-04,9.761300963e-05,8.185871024e-04,6.063367752e-04,2.606807888e-05,6.324048541e-04,1.716591015e-03,1.097137184e-04,1.826304734e-03,1.025779780e-03,6.559830199e-05,1.091378082e-03,9.484810549e-04,-4.811583028e-06,9.436694719e-04,5.060185409e-04,-2.013321249e-06,5.040052196e-04,8.586415569e-04,-9.787794166e-05,7.607636153e-04,7.545954365e-04,-4.529096426e-05,7.093044722e-04,9.437109935e-04,-1.402418583e-04,8.034691352e-04,5.027398671e-04,6.533447790e-05,5.680743450e-04,7.717318175e-04,2.801732930e-04,1.051905111e-03,6.179536170e-04,-2.742132754e-05,5.905322895e-04,1.061258186e-03,-4.736448717e-04,5.876133142e-04,6.364773635e-04,-9.490619552e-05,5.415711680e-04,2.038187779e-03,-3.606036484e-04,1.677584130e-03,-5.502078216e-04,1.130108729e-03,5.799009069e-04
-4.3,7.141762549e-05,-6.286578396e-05,8.551841525e-06,3.269008486e-04,-4.637134600e-05,2.805295026e-04,1.293403250e-03,-3.203014919e-05,1.261373101e-03,8.825150667e-04,3.345261670e-05,9.159676834e-04,7.628300580e-04,6.293868634e-09,7.628363518e-04,-5.295834102e-05,2.136808972e-05,-3.159025130e-05,1.468244429e-04,-3.262175013e-06,1.435622679e-04,7.706380588e-04,-4.539894588e-06,7.660981642e-04,6.550920040e-04,-2.938804945e-05,6.257039545e-04,1.139452214e-03,-6.468634549e-05,1.074765868e-03,9.639247541e-04,-7.043609893e-05,8.934886552e-04,-1.332947033e-04,4.419430491e-05,-8.910039843e-05,1.048637483e-03,-4.625714646e-04,5.860660189e-04,3.625484743e-04,-8.624111248e-05,2.763073618e-04,6.950625234e-04,-2.094369160e-04,4.856256074e-04,8.711984164e-04,-1.040964480e-04,7.671019684e-04,3.352677162e-05,3.746840651e-04,4.082108367e-04,1.236472940e-04,1.810151542e-04,3.046624481e-04,-3.013662606e-04,-1.023907417e-05,-3.116053348e-04,7.606675760e-04,-1.845492581e-05,7.422126502e-04,7.340145861e-04,9.423903934e-05,8.282536254e-04,6.191742235e-04,1.960558851e-05,6.387798120e-04,1.713372552e-03,1.093593394e-04,1.822731891e-03,1.035745314e-03,6.919365944e-05,1.104938973e-03,9.389418882e-04,-9.144028477e-06,9.297978597e-04,4.899359753e-04,2.739281061e-06,4.926752563e-04,8.168546579e-04,-9.312636846e-05,7.237282894e-04,7.564519356e-04,-4.948194487e-05,7.069699908e-04,9.455069121e-04,-1.533572679e-04,7.921496442e-04,5.196617749e-04,5.570715194e-05,5.753689268e-04,7.463384460e-04,2.464928010e-04,9.928312470e-04,6.112421338e-04,-3.343069018e-05,5.778114436e-04,9.928487613e-04,-4.562669928e-04,5.365817685e-04,6.195744686e-04,-1.247987237e-04,4.947757449e-04,2.040310361e-03,-3.769182916e-04,1.663392069e-03,-4.985891015e-04,1.007771228e-03,5.091821264e-04
-4.2,8.811662143e-05,-6.463765902e-05,2.347896241e-05,3.438873260e-04,-4.975929737e-05,2.941280286e-04,1.318224968e-03,-4.016574768e-05,1.278059220e-03,8.903776037e-04,2.574987301e-05,9.161274767e-04,7.485019009e-04,-4.998474988e-06,7.435034259e-04,-9.709307517e-05,2.162681815e-05,-7.546625702e-05,1.074431224e-04,-1.079321205e-05,9.664991034e-05,7.093991341e-04,-3.443205956e-06,7.059559281e-04,6.453974957e-04,-4.641006871e-05,5.989874270e-04,1.123932771e-03,-7.048179835e-05,1.053450973e-03,9.694445299e-04,-6.702072693e-05,9.024238030e-04,-1.732081590e-04,5.201953242e-05,-1.211886265e-04,1.011792773e-03,-4.750782862e-04,5.367144863e-04,3.413006043e-04,-8.072961349e-05,2.605709908e-04,6.633285875e-04,-2.077373629e-04,4.555912246e-04,8.419331357e-04,-1.036094021e-04,7.383237336e-04,-4.018265395e-06,3.607951848e-04,3.567769194e-04,1.310991884e-04,1.689536678e-04,3.000528562e-04,-3.062516876e-04,-1.820384577e-05,-3.244555333e-04,7.366706116e-04,-2.043618015e-05,7.162344314e-04,7.468589141e-04,9.063545315e-05,8.374943673e-04,6.323897790e-04,1.310567144e-05,6.454954504e-04,1.706840398e-03,1.087810399e-04,1.815621437e-03,1.044403262e-03,7.269107175e-05,1.117094334e-03,9.275692965e-04,-1.366899100e-05,9.139003055e-04,4.736897333e-04,7.178632910e-06,4.808683662e-04,7.732253005e-04,-8.751411568e-05,6.857111848e-04,7.568278570e-04,-5.362746346e-05,7.032003935e-04,9.453443754e-04,-1.655465275e-04,7.797978479e-04,5.370435530e-04,4.546095820e-05,5.825045112e-04,7.236077220e-04,2.103324518e-04,9.339401738e-04,6.049633931e-04,-3.957659969e-05,5.653867934e-04,9.245695740e-04,-4.381710988e-04,4.863984752e-04,6.015878874e-04,-1.522226747e-04,4.493652127e-04,2.031461116e-03,-3.903150131e-04,1.641146103e-03,-4.407186519e-04,8.793019426e-04,4.385832907e-04
-4.1,1.058350246e-04,-6.624499505e-05,3.959002957e-05,3.605136269e-04,-5.292099770e-05,3.075926292e-04,1.340542268e-03,-4.819521419e-05,1.292347054e-03,8.960104147e-04,1.797603716e-05,9.139864518e-04,7.328227156e-04,-1.027246003e-05,7.225502556e-04,-1.380217133e-04,2.159701415e-05,-1.164246991e-04,6.965814501e-05,-1.835353552e-05,5.130460950e-05,6.478937404e-04,-2.555545846e-06,6.453381945e-04,6.347606357e-04,-6.343623570e-05,5.713244000e-04,1.105326158e-03,-7.599911710e-05,1.029327041e-03,9.741592415e-04,-6.328271990e-05,9.108765216e-04,-2.098870561e-04,5.930655611e-05,-1.505805000e-04,9.734652836e-04,-4.858931684e-04,4.875721152e-04,3.195667906e-04,-7.498185251e-05,2.445849380e-04,6.317408952e-04,-2.061820693e-04,4.255588259e-04,8.106068578e-04,-1.023923578e-04,7.082145000e-04,-4.053303557e-05,3.488342932e-04,3.083012576e-04,1.416087799e-04,1.559376858e-04,2.975464657e-04,-3.050914850e-04,-2.569923706e-05,-3.307907221e-04,7.118253432e-04,-2.229369280e-05,6.895316504e-04,7.595148688e-04,8.681709157e-05,8.463319604e-04,6.460369375e-04,6.581858206e-06,6.526187957e-04,1.697000366e-03,1.079767139e-04,1.804977080e-03,1.051715933e-03,7.606712902e-05,1.127783062e-03,9.145657786e-04,-1.834711314e-05,8.962186655e-04,4.573798573e-04,1.131632399e-05,4.686961813e-04,7.282143991e-04,-8.114008260e-05,6.470743165e-04,7.557308602e-04,-5.759517008e-05,6.981356901e-04,9.434859938e-04,-1.767890773e-04,7.666969165e-04,5.548017580e-04,3.480106934e-05,5.896028273e-04,7.038938436e-04,1.719279597e-04,8.758218033e-04,5.991958041e-04,-4.573110640e-05,5.534646977e-04,8.570757951e-04,-4.196620706e-04,4.374137245e-04,5.825540200e-04,-1.767346460e-04,4.058193739e-04,2.012057136e-03,-4.011489301e-04,1.610908206e-03,-3.776840117e-04,7.461675274e-04,3.684835157e-04
-4,1.244758654e-04,-6.769885407e-05,5.677701133e-05,3.767001093e-04,-5.585556575e-05,3.208445435e-04,1.360227199e-03,-5.611308952e-05,1.304114109e-03,8.993839764e-04,1.016728472e-05,9.095512611e-04,7.157620323e-04,-1.577852838e-05,6.999835039e-04,-1.753057256e-04,2.124802651e-05,-1.540576991e-04,3.377149744e-05,-2.594693900e-05,7.824558439e-06,5.868264797e-04,-2.046415785e-06,5.847800639e-04,6.232367389e-04,-8.043886681e-05,5.427978721e-04,1.083784889e-03,-8.123427092e-05,1.002550618e-03,9.780947225e-04,-5.924804206e-05,9.188466804e-04,-2.430292950e-04,6.601209100e-05,-1.770172040e-04,9.339539313e-04,-4.947869073e-04,4.391670240e-04,2.974725415e-04,-6.902123649e-05,2.284513051e-04,6.005870075e-04,-2.047543318e-04,3.958326757e-04,7.777754277e-04,-1.006034226e-04,6.771720051e-04,-7.539813801e-05,3.384865461e-04,2.630884081e-04,1.551971031e-04,1.419304122e-04,2.971275154e-04,-2.978370559e-04,-3.264380063e-05,-3.304808565e-04,6.862781740e-04,-2.400759217e-05,6.622705818e-04,7.719795215e-04,8.279881622e-05,8.547783377e-04,6.601545502e-04,4.580600890e-08,6.602003562e-04,1.683861906e-03,1.069435021e-04,1.790805408e-03,1.057640084e-03,7.929744541e-05,1.136937529e-03,9.001297206e-04,-2.313658934e-05,8.769931312e-04,4.410993242e-04,1.516718125e-05,4.562665054e-04,6.822859031e-04,-7.411482589e-05,6.081710772e-04,7.531872938e-04,-6.125597382e-05,6.919313200e-04,9.402115525e-04,-1.870800320e-04,7.531315205e-04,5.728360476e-04,2.393894235e-05,5.967749899e-04,6.874514239e-04,1.315721201e-04,8.190235440e-04,5.940012500e-04,-5.175719695e-05,5.422440530e-04,7.909722600e-04,-4.010144132e-04,3.899578468e-04,5.625928211e-04,-1.979901425e-04,3.646026785e-04,1.982582948e-03,-4.097435593e-04,1.572839389e-03,-3.105743321e-04,6.098946549e-04,2.993203228e-04
-3.9,1.439359310e-04,-6.901107229e-05,7.492485875e-05,3.923749857e-04,-5.856542397e-05,3.338095617e-04,1.377164758e-03,-6.391652863e-05,1.313248229e-03,9.004871364e-04,2.357431527e-06,9.028445680e-04,6.973008710e-04,-2.147699233e-05,6.758238787e-04,-2.085413313e-04,2.055126603e-05,-1.879900653e-04,7.117084925e-08,-3.357820536e-05,-3.350703451e-05,5.268727704e-04,-2.077252923e-06,5.247955175e-04,6.108851363e-04,-9.739138826e-05,5.134937480e-04,1.059475705e-03,-8.618588397e-05,9.732898207e-04,9.812692848e-04,-5.494471751e-05,9.263245673e-04,-2.723655251e-04,7.210120037e-05,-2.002643248e-04,8.935874193e-04,-5.015662388e-04,3.920211805e-04,2.751492429e-04,-6.287259218e-05,2.122766507e-04,5.701396765e-04,-2.034235455e-04,3.667161310e-04,7.440240792e-04,-9.841476671e-05,6.456093125e-04,-1.079094328e-04,3.293015251e-04,2.213920922e-04,1.718461322e-04,1.269060943e-04,2.987522266e-04,-2.845000229e-04,-3.896761180e-05,-3.234676347e-04,6.601718590e-04,-2.556062648e-05,6.346112325e-04,7.842409009e-04,7.859534394e-05,8.628362448e-04,6.747674071e-04,-6.492752213e-06,6.682746549e-04,1.667440320e-03,1.056777488e-04,1.773118068e-03,1.062128794e-03,8.235672410e-05,1.144485518e-03,8.844544271e-04,-2.799266176e-05,8.564617653e-04,4.249359217e-04,1.874971781e-05,4.436856395e-04,6.359029319e-04,-6.655822930e-05,5.693447026e-04,7.492468260e-04,-6.448744854e-05,6.847593775e-04,9.358150903e-04,-1.964295773e-04,7.393855130e-04,5.910346192e-04,1.308576563e-05,6.041203848e-04,6.744357907e-04,8.961033002e-05,7.640461207e-04,5.894302356e-04,-5.751324354e-05,5.319169920e-04,7.268088568e-04,-3.824705524e-04,3.443383044e-04,5.419089935e-04,-2.157577619e-04,3.261512316e-04,1.943566233e-03,-4.163666585e-04,1.527199574e-03,-2.404660019e-04,4.720474944e-04,2.315814925e-04
-3.8,1.641076865e-04,-7.019418088e-05,9.391350565e-05,4.074762159e-04,-6.105628823e-05,3.464199277e-04,1.391255337e-03,-7.160546588e-05,1.319649871e-03,8.993271985e-04,-5.422507116e-06,8.939046914e-04,6.774341095e-04,-2.732647627e-05,6.501076332e-04,-2.373643506e-04,1.948056698e-05,-2.178837836e-04,-3.117089695e-05,-4.125306880e-05,-7.242396576e-05,4.686667785e-04,-2.795531936e-06,4.658712465e-04,5.977706710e-04,-1.142681137e-04,4.835025573e-04,1.032578483e-03,-9.085516002e-05,9.417233234e-04,9.836944626e-04,-5.040283949e-05,9.332916231e-04,-2.976597971e-04,7.754579225e-05,-2.201140048e-04,8.527108308e-04,-5.060707316e-04,3.466400992e-04,2.527326621e-04,-5.656163917e-05,1.961710229e-04,5.406578327e-04,-2.021490475e-04,3.385087852e-04,7.099547424e-04,-9.600887793e-05,6.139458644e-04,-1.372771171e-04,3.207024749e-04,1.834253578e-04,1.914955108e-04,1.108532909e-04,3.023488017e-04,-2.651502411e-04,-4.461340987e-05,-3.097636509e-04,6.336447851e-04,-2.693898249e-05,6.067058026e-04,7.962777241e-04,7.422097904e-05,8.704987031e-04,6.898848204e-04,-1.302624235e-05,6.768585781e-04,1.647756569e-03,1.041748891e-04,1.751931458e-03,1.065131574e-03,8.521873918e-05,1.150350313e-03,8.677260603e-04,-3.286753416e-05,8.348585262e-04,4.089718250e-04,2.208652306e-05,4.310583480e-04,5.895218920e-04,-5.859679073e-05,5.309251012e-04,7.439834109e-04,-6.717698187e-05,6.768064290e-04,9.305982726e-04,-2.048616826e-04,7.257365900e-04,6.092770755e-04,2.446395222e-06,6.117234707e-04,6.649045074e-04,4.643275341e-05,7.113372608e-04,5.855236228e-04,-6.285813099e-05,5.226654918e-04,6.650714119e-04,-3.642412394e-04,3.008301726e-04,5.207844566e-04,-2.299274927e-04,2.908569639e-04,1.895554253e-03,-4.212116796e-04,1.474342573e-03,-1.684117412e-04,3.342037881e-04,1.657920468e-04
-3.7,1.848798144e-04,-7.126137494e-05,1.136184395e-04,4.219514299e-04,-6.333700753e-05,3.586144224e-04,1.402414897e-03,-7.918263410e-05,1.323232262e-03,8.959278771e-04,-1.314461492e-05,8.827832622e-04,6.561702954e-04,-3.328468222e-05,6.228856132e-04,-2.614567832e-04,1.801310742e-05,-2.434436758e-04,-5.970289721e-05,-4.897806635e-05,-1.086809636e-04,4.127902076e-04,-4.330174726e-06,4.084600329e-04,5.839635052e-04,-1.310439225e-04,4.529195827e-04,1.003283458e-03,-9.524584557e-05,9.080376122e-04,9.853740245e-04,-4.565461467e-05,9.397194099e-04,-3.187117121e-04,8.232272787e-05,-2.363889842e-04,8.116710596e-04,-5.081692194e-04,3.035018402e-04,2.303600155e-04,-5.011451197e-05,1.802455035e-04,5.123849922e-04,-2.008845060e-04,3.115004862e-04,6.761702607e-04,-9.357442367e-05,5.825958370e-04,-1.626331249e-04,3.120018579e-04,1.493687330e-04,2.140374416e-04,9.377630827e-05,3.078137499e-04,-2.399159404e-04,-4.953747317e-05,-2.894534136e-04,6.068284365e-04,-2.813311331e-05,5.786953232e-04,8.080576423e-04,6.968924195e-05,8.777468842e-04,7.054979125e-04,-1.954964052e-05,6.859482720e-04,1.624835535e-03,1.024293091e-04,1.727264844e-03,1.066593227e-03,8.785634071e-05,1.154449568e-03,8.501208862e-04,-3.771092783e-05,8.124099584e-04,3.932811421e-04,2.520433012e-05,4.184854722e-04,5.435852670e-04,-5.036078813e-05,4.932244789e-04,7.374929858e-04,-6.922451539e-05,6.682684704e-04,9.248616239e-04,-2.124126614e-04,7.124489625e-04,6.274351453e-04,-7.785441924e-06,6.196497034e-04,6.588193988e-04,2.464377112e-06,6.612837759e-04,5.823121349e-04,-6.765716801e-05,5.146549669e-04,6.061656945e-04,-3.465052393e-04,2.596604552e-04,4.995616558e-04,-2.405099030e-04,2.590517528e-04,1.839090525e-03,-4.243858436e-04,1.414704681e-03,-9.542896325e-05,1.979309027e-04,1.025019394e-04
-3.6,2.061367538e-04,-7.222647971e-05,1.339102741e-04,4.357563724e-04,-6.541927087e-05,3.703371015e-04,1.410573585e-03,-8.665341363e-05,1.323920171e-03,8.903259462e-04,-2.078427035e-05,8.695416758e-04,6.335297062e-04,-3.930903144e-05,5.942206747e-04,-2.805536793e-04,1.613053304e-05,-2.644231463e-04,-8.529845283e-05,-5.676027140e-05,-1.420587242e-04,3.597633391e-04,-6.789202086e-06,3.529741370e-04,5.695376310e-04,-1.476939180e-04,4.218437129e-04,9.717874983e-04,-9.936425118e-05,8.724232471e-04,9.863021090e-04,-4.073443551e-05,9.455676735e-04,-3.353593329e-04,8.641169110e-05,-2.489476418e-04,7.708040642e-04,-5.077573506e-04,2.630467136e-04,2.081665546e-04,-4.355745860e-05,1.646090960e-04,4.855450520e-04,-1.995819386e-04,2.859631134e-04,6.432580320e-04,-9.130169000e-05,5.519563420e-04,-1.830524577e-04,3.024269415e-04,1.193744838e-04,2.393118863e-04,7.569523844e-05,3.150071248e-04,-2.089857930e-04,-5.371018876e-05,-2.626959818e-04,5.798439391e-04,-2.913845815e-05,5.507054809e-04,8.195349027e-04,6.501251885e-05,8.845474216e-04,7.215767171e-04,-2.606083279e-05,6.955158843e-04,1.598703971e-03,1.004342334e-04,1.699138204e-03,1.066452434e-03,9.024157351e-05,1.156694008e-03,8.318024107e-04,-4.247127507e-05,7.893311356e-04,3.779262202e-04,2.813375061e-05,4.060599708e-04,4.985141623e-04,-4.198158014e-05,4.565325822e-04,7.298890380e-04,-7.054492365e-05,6.593441143e-04,9.188954909e-04,-2.191297507e-04,6.997657402e-04,6.453726464e-04,-1.743032081e-05,6.279423256e-04,6.560504085e-04,-4.184665941e-05,6.142037491e-04,5.798150474e-04,-7.178839859e-05,5.080266488e-04,5.503974532e-04,-3.294073315e-04,2.209901217e-04,4.786206281e-04,-2.476265527e-04,2.309940754e-04,1.774692665e-03,-4.259065712e-04,1.348786094e-03,-2.248614129e-05,6.476200484e-05,4.227586355e-05
-3.5,2.277579524e-04,-7.310389200e-05,1.546540604e-04,4.488528596e-04,-6.731726852e-05,3.815355911e-04,1.415673969e-03,-9.402554906e-05,1.321648420e-03,8.825677476e-04,-2.832031712e-05,8.542474305e-04,6.095419760e-04,-4.535722219e-05,5.641847538e-04,-2.944485588e-04,1.381980041e-05,-2.806287584e-04,-1.077619143e-04,-6.460686823e-05,-1.723687825e-04,3.100393116e-04,-1.025982312e-05,2.997794885e-04,5.545689035e-04,-1.641930920e-04,3.903758115e-04,9.382905311e-04,-1.032192569e-04,8.350712742e-04,9.864616675e-04,-3.567891845e-05,9.507827491e-04,-3.474817544e-04,8.979296508e-05,-2.576887893e-04,7.304248765e-04,-5.047564500e-04,2.256684265e-04,1.862828582e-04,-3.691677179e-05,1.493660864e-04,4.603367106e-04,-1.981945302e-04,2.621421805e-04,6.117752073e-04,-8.937765457e-05,5.223975527e-04,-1.975891463e-04,2.911560650e-04,9.356691870e-05,2.671047848e-04,5.664521132e-05,3.237499961e-04,-1.726119923e-04,-5.711602995e-05,-2.297280222e-04,5.527988893e-04,-2.995588068e-05,5.228430087e-04,8.306485295e-04,6.020185932e-05,8.908503888e-04,7.380683331e-04,-3.256069821e-05,7.055076349e-04,1.569389531e-03,9.818169847e-05,1.667571229e-03,1.064641188e-03,9.234593040e-05,1.156987119e-03,8.129191579e-04,-4.709737345e-05,7.658217844e-04,3.629539359e-04,3.090873440e-05,3.938626703e-04,4.547015329e-04,-3.358916701e-05,4.211123659e-04,7.212976546e-04,-7.107022585e-05,6.502274287e-04,9.129727120e-04,-2.250694899e-04,6.879032221e-04,6.629468875e-04,-2.632489524e-05,6.366219922e-04,6.563829509e-04,-8.604253996e-05,5.703404109e-04,5.780390995e-04,-7.514862735e-05,5.028904721e-04,4.979558418e-04,-3.130566893e-04,1.848991526e-04,4.583553325e-04,-2.514944391e-04,2.068608935e-04,1.702836761e-03,-4.257078351e-04,1.277128926e-03,4.951014166e-05,-6.382612581e-05,-1.431598415e-05
