Time,S1D1HbO,S1D1HbR,S1D1HbT,S2D2HbO,S2D2HbR,S2D2HbT,S3D3HbO,S3D3HbR,S3D3HbT,S4D4HbO,S4D4HbR,S4D4HbT,S5D5HbO,S5D5HbR,S5D5HbT,S6D6HbO,S6D6HbR,S6D6HbT,S7D7HbO,S7D7HbR,S7D7HbT,S8D8HbO,S8D8HbR,S8D8HbT,S9D9HbO,S9D9HbR,S9D9HbT,S10D10HbO,S10D10HbR,S10D10HbT,S11D11HbO,S11D11HbR,S11D11HbT,S12D12HbO,S12D12HbR,S12D12HbT,S13D13HbO,S13D13HbR,S13D13HbT,S14D14HbO,S14D14HbR,S14D14HbT,S15D15HbO,S15D15HbR,S15D15HbT,S16D16HbO,S16D16HbR,S16D16HbT,S17D17HbO,S17D17HbR,S17D17HbT,S18D18HbO,S18D18HbR,S18D18HbT,S19D19HbO,S19D19HbR,S19D19HbT,S20D20HbO,S20D20HbR,S20D20HbT,S21D21HbO,S21D21HbR,S21D21HbT,S22D22HbO,S22D22HbR,S22D22HbT,S23D23HbO,S23D23HbR,S23D23HbT,S24D24HbO,S24D24HbR,S24D24HbT,S25D25HbO,S25D25HbR,S25D25HbT,S26D26HbO,S26D26HbR,S26D26HbT,S27D27HbO,S27D27HbR,S27D27HbT,S28D28HbO,S28D28HbR,S28D28HbT,S29D29HbO,S29D29HbR,S29D29HbT,S30D30HbO,S30D30HbR,S30D30HbT,S31D31HbO,S31D31HbR,S31D31HbT,S32D32HbO,S32D32HbR,S32D32HbT,S33D33HbO,S33D33HbR,S33D33HbT,S34D34HbO,S34D34HbR,S34D34HbT,S35D35HbO,S35D35HbR,S35D35HbT,S36D36HbO,S36D36HbR,S36D36HbT,
-10,5.965654184e-04,-6.833024954e-04,-8.673707700e-05,-3.047669712e-03,-1.598189087e-04,-3.207488621e-03,5.894104775e-04,-3.666077464e-04,2.228027311e-04,-1.627339196e-03,-1.533407931e-04,-1.780679989e-03,4.529850733e-04,-3.036991297e-04,1.492859436e-04,-1.907506103e-03,-1.079024240e-04,-2.015408527e-03,-6.756226716e-04,-1.900964065e-04,-8.657190781e-04,-9.835230187e-04,-1.832601976e-04,-1.166783216e-03,-1.731783910e-04,-2.881768037e-04,-4.613551947e-04,-8.286510511e-04,-2.932249901e-04,-1.121876041e-03,1.716472777e-04,-3.979977613e-04,-2.263504836e-04,4.556119266e-04,-5.171552647e-04,-6.154333814e-05,1.398899271e-03,-8.422625333e-04,5.566367381e-04,8.628723153e-04,-1.683020943e-04,6.945702211e-04,3.904431854e-04,-1.355467050e-04,2.548964804e-04,-3.585186735e-04,-1.011679535e-04,-4.596866269e-04,-1.004138075e-03,-7.836186379e-05,-1.082499939e-03,-3.560226988e-04,-5.242431388e-04,-8.802658376e-04,-1.634521678e-03,-1.377942789e-04,-1.772315957e-03,-5.310998244e-04,-2.422080370e-04,-7.733078614e-04,-1.629458250e-05,-1.891871136e-04,-2.054816961e-04,-1.129422927e-03,-7.825708851e-05,-1.207680016e-03,1.335302435e-03,-9.194471299e-05,1.243357722e-03,1.813251226e-03,6.322978418e-04,2.445549068e-03,5.011202967e-04,-2.203845576e-04,2.807357391e-04,1.151694468e-03,-6.325516044e-04,5.191428635e-04,-6.580955721e-04,-1.021312557e-04,-7.602268278e-04,-8.610019755e-05,-3.574322514e-04,-4.435324489e-04,3.147543953e-04,-4.697209532e-04,-1.549665579e-04,7.005562028e-04,-8.382919872e-05,6.167270041e-04,-4.485215202e-05,-4.648561708e-04,-5.097083228e-04,2.977805905e-04,-4.465746852e-04,-1.487940947e-04,-1.479515835e-03,-1.452056080e-04,-1.624721443e-03,-1.915964994e-03,1.826355298e-04,-1.733329465e-03,-9.963126113e-04,-2.207159250e-04,-1.217028536e-03,-5.906305221e-05,2.453525309e-04,1.862894787e-04
-9.9,6.076462115e-04,-6.725052008e-04,-6.485898930e-05,-2.994503864e-03,-1.593345464e-04,-3.153838410e-03,5.811583735e-04,-3.595170561e-04,2.216413174e-04,-1.601604180e-03,-1.482963000e-04,-1.749900480e-03,4.360755746e-04,-2.994916961e-04,1.365838785e-04,-1.907710508e-03,-1.024040100e-04,-2.010114518e-03,-6.899966856e-04,-1.863491769e-04,-8.763458625e-04,-1.008995870e-03,-1.708677949e-04,-1.179863665e-03,-1.933286686e-04,-2.827699518e-04,-4.760986204e-04,-8.677956242e-04,-2.807848169e-04,-1.148580441e-03,1.383414723e-04,-3.875028608e-04,-2.491613885e-04,3.994843344e-04,-4.984759496e-04,-9.899161519e-05,1.331232649e-03,-8.086296876e-04,5.226029614e-04,8.187734023e-04,-1.652111832e-04,6.535622192e-04,3.699890544e-04,-1.391947170e-04,2.307943374e-04,-3.419532063e-04,-1.189012924e-04,-4.608544987e-04,-1.007829641e-03,-7.322701268e-05,-1.081056654e-03,-3.119313225e-04,-5.383706865e-04,-8.503020089e-04,-1.589845822e-03,-1.381340627e-04,-1.727979885e-03,-5.939056806e-04,-2.285321593e-04,-8.224378399e-04,-4.669475461e-05,-1.844295623e-04,-2.311243169e-04,-1.142688985e-03,-7.759952076e-05,-1.220288506e-03,1.258872909e-03,-9.743635033e-05,1.161436559e-03,1.760271414e-03,5.952167696e-04,2.355488184e-03,4.874401492e-04,-2.261339809e-04,2.613061683e-04,1.106079440e-03,-6.191221115e-04,4.869573282e-04,-6.388441285e-04,-1.263941713e-04,-7.652382999e-04,-1.113117860e-04,-3.385952423e-04,-4.499070283e-04,3.114084025e-04,-4.757895334e-04,-1.643811309e-04,6.744403507e-04,-7.989725568e-05,5.945430950e-04,-3.472555504e-05,-4.697593048e-04,-5.044848598e-04,2.798889847e-04,-4.401572536e-04,-1.602682689e-04,-1.492159496e-03,-1.200378296e-04,-1.612197326e-03,-1.906973820e-03,1.846454285e-04,-1.722328392e-03,-9.849559904e-04,-2.303927678e-04,-1.215348758e-03,-1.084274512e-04,2.451151718e-04,1.366877205e-04
-9.8,6.175058446e-04,-6.612824076e-04,-4.377656293e-05,-2.937819603e-03,-1.582919886e-04,-3.096111591e-03,5.716945907e-04,-3.522754398e-04,2.194191509e-04,-1.575178496e-03,-1.430236109e-04,-1.718202107e-03,4.176110403e-04,-2.949571726e-04,1.226538677e-04,-1.904741083e-03,-9.711402568e-05,-2.001855108e-03,-7.039653335e-04,-1.825505466e-04,-8.865158801e-04,-1.033488700e-03,-1.582638291e-04,-1.191752530e-03,-2.134286727e-04,-2.772897172e-04,-4.907183899e-04,-9.045689675e-04,-2.682811335e-04,-1.172850101e-03,1.049830638e-04,-3.767671598e-04,-2.717840960e-04,3.419582191e-04,-4.785707887e-04,-1.366125697e-04,1.250317461e-03,-7.706947983e-04,4.796226628e-04,7.734720895e-04,-1.617453142e-04,6.117267753e-04,3.484851308e-04,-1.422393780e-04,2.062457528e-04,-3.269169978e-04,-1.361841915e-04,-4.631011894e-04,-1.012880484e-03,-6.669125409e-05,-1.079571738e-03,-2.729939371e-04,-5.498804937e-04,-8.228744307e-04,-1.543255100e-03,-1.382569485e-04,-1.681512048e-03,-6.539935372e-04,-2.148597202e-04,-8.688532574e-04,-7.683939431e-05,-1.795316253e-04,-2.563710196e-04,-1.154790702e-03,-7.702967962e-05,-1.231820381e-03,1.181394865e-03,-1.023586815e-04,1.079036184e-03,1.702928783e-03,5.586778316e-04,2.261606614e-03,4.713299006e-04,-2.306844334e-04,2.406454672e-04,1.058511291e-03,-6.053397857e-04,4.531715055e-04,-6.193576562e-04,-1.507053450e-04,-7.700630012e-04,-1.372655566e-04,-3.197740685e-04,-4.570396251e-04,3.075317264e-04,-4.809705415e-04,-1.734388151e-04,6.479380461e-04,-7.648451147e-05,5.714535346e-04,-2.712095379e-05,-4.708801070e-04,-4.980010608e-04,2.600226747e-04,-4.323199748e-04,-1.722973001e-04,-1.505813108e-03,-9.407825592e-05,-1.599891363e-03,-1.898508867e-03,1.864548939e-04,-1.712053973e-03,-9.755235637e-04,-2.388440378e-04,-1.214367601e-03,-1.633922480e-04,2.514333553e-04,8.804110727e-05
-9.7,6.260071521e-04,-6.496636641e-04,-2.365651198e-05,-2.877918438e-03,-1.567107616e-04,-3.034629200e-03,5.610719451e-04,-3.449102052e-04,2.161617399e-04,-1.548111462e-03,-1.375479318e-04,-1.685659394e-03,3.977285432e-04,-2.901181742e-04,1.076103690e-04,-1.898561630e-03,-9.207157458e-05,-1.990633205e-03,-7.174731472e-04,-1.786950724e-04,-8.961682196e-04,-1.056831124e-03,-1.455317021e-04,-1.202362827e-03,-2.333683990e-04,-2.717385663e-04,-5.051069654e-04,-9.388547419e-04,-2.557226120e-04,-1.194577354e-03,7.172253900e-05,-3.658194819e-04,-2.940969429e-04,2.832237527e-04,-4.575638748e-04,-1.743401221e-04,1.157018801e-03,-7.286763863e-04,4.283424150e-04,7.271105886e-04,-1.579509616e-04,5.691596270e-04,3.262301532e-04,-1.447962785e-04,1.814338747e-04,-3.134687744e-04,-1.528349861e-04,-4.663037605e-04,-1.019053942e-03,-5.898101938e-05,-1.078034962e-03,-2.398326532e-04,-5.582577983e-04,-7.980904515e-04,-1.494650090e-03,-1.383198107e-04,-1.632969901e-03,-7.111376637e-04,-2.012424670e-04,-9.123801307e-04,-1.065915888e-04,-1.745074559e-04,-2.810990447e-04,-1.165548924e-03,-7.654243147e-05,-1.242091355e-03,1.103259359e-03,-1.066866601e-04,9.965726988e-04,1.641690536e-03,5.227407684e-04,2.164431304e-03,4.528704459e-04,-2.340015353e-04,2.188689106e-04,1.009213528e-03,-5.912346445e-04,4.179788832e-04,-5.998150134e-04,-1.747907504e-04,-7.746057638e-04,-1.638758239e-04,-3.009550857e-04,-4.648309096e-04,3.030616013e-04,-4.850966484e-04,-1.820350471e-04,6.212135520e-04,-7.359927860e-05,5.476142734e-04,-2.210142970e-05,-4.680746686e-04,-4.901760983e-04,2.384620791e-04,-4.230897116e-04,-1.846276326e-04,-1.520145319e-03,-6.756187451e-05,-1.587707193e-03,-1.890510116e-03,1.880136323e-04,-1.702496483e-03,-9.680295927e-04,-2.459247549e-04,-1.213954348e-03,-2.218994399e-04,2.631937679e-04,4.129432794e-05
-9.6,6.330408804e-04,-6.376801124e-04,-4.639231994e-06,-2.815086376e-03,-1.546131824e-04,-2.969699559e-03,5.493657616e-04,-3.374478574e-04,2.119179041e-04,-1.520427833e-03,-1.318954877e-04,-1.652323321e-03,3.765839387e-04,-2.849981089e-04,9.158582971e-05,-1.889137912e-03,-8.731291296e-05,-1.976450825e-03,-7.304505010e-04,-1.747771220e-04,-9.052276230e-04,-1.078845641e-03,-1.327584483e-04,-1.211604089e-03,-2.530280614e-04,-2.661186373e-04,-5.191466987e-04,-9.705359516e-04,-2.431200163e-04,-1.213655968e-03,3.872000231e-05,-3.546901544e-04,-3.159701521e-04,2.235050981e-04,-4.355799569e-04,-2.120748589e-04,1.052326338e-03,-6.828011646e-04,3.695251731e-04,6.798452314e-04,-1.538688724e-04,5.259763589e-04,3.035203928e-04,-1.469749526e-04,1.565454402e-04,-3.016165751e-04,-1.686868332e-04,-4.703034083e-04,-1.026066658e-03,-5.035868443e-05,-1.076425343e-03,-2.129825832e-04,-5.630060723e-04,-7.759886555e-04,-1.443946192e-03,-1.384962947e-04,-1.582442486e-03,-7.651152207e-04,-1.877347922e-04,-9.528500129e-04,-1.358063077e-04,-1.693725516e-04,-3.051788593e-04,-1.174782639e-03,-7.613145510e-05,-1.250914094e-03,1.024858951e-03,-1.104012775e-04,9.144576734e-04,1.577037178e-03,4.874631921e-04,2.064500370e-03,4.321749218e-04,-2.360710669e-04,1.961038549e-04,9.584208048e-04,-5.768183948e-04,3.816024100e-04,-5.804176055e-04,-1.983571899e-04,-7.787747954e-04,-1.910061598e-04,-2.821188398e-04,-4.731249997e-04,2.979529805e-04,-4.880112941e-04,-1.900583136e-04,5.944503992e-04,-7.123939655e-05,5.232110027e-04,-1.966661633e-05,-4.612700363e-04,-4.809366526e-04,2.155242504e-04,-4.125220575e-04,-1.969978072e-04,-1.534800928e-03,-4.073737224e-05,-1.575538300e-03,-1.882893188e-03,1.892770780e-04,-1.693616110e-03,-9.624412828e-04,-2.515072765e-04,-1.213948559e-03,-2.817533777e-04,2.791359778e-04,-2.617399918e-06
-9.5,6.385233587e-04,-6.253643240e-04,1.315903464e-05,-2.749595066e-03,-1.520243238e-04,-2.901619390e-03,5.366694368e-04,-3.299140312e-04,2.067554056e-04,-1.492132036e-03,-1.260929408e-04,-1.618224977e-03,3.543464734e-04,-2.796207132e-04,7.472576017e-05,-1.876444714e-03,-8.286963417e-05,-1.959314348e-03,-7.428169312e-04,-1.707907958e-04,-9.136077270e-04,-1.099352022e-03,-1.200336925e-04,-1.219385714e-03,-2.722841316e-04,-2.604317487e-04,-5.327158803e-04,-9.995010786e-04,-2.304861765e-04,-1.229987255e-03,6.138506261e-06,-3.434105964e-04,-3.372720901e-04,1.630535046e-04,-4.127432538e-04,-2.496897493e-04,9.373183316e-04,-6.332921181e-04,3.040262135e-04,6.318406144e-04,-1.495330093e-04,4.823076051e-04,2.806358250e-04,-1.488758947e-04,1.317599303e-04,-2.913209343e-04,-1.835896160e-04,-4.749105503e-04,-1.033595415e-03,-4.111299973e-05,-1.074708415e-03,-1.928780598e-04,-5.636650432e-04,-7.565431030e-04,-1.391089757e-03,-1.389635075e-04,-1.530053265e-03,-8.157115384e-04,-1.743935247e-04,-9.901050631e-04,-1.643341172e-04,-1.641434928e-04,-3.284776099e-04,-1.182315818e-03,-7.578948698e-05,-1.258105305e-03,9.465824227e-04,-1.134898934e-04,8.330925294e-04,1.509454422e-03,4.529006045e-04,1.962355027e-03,4.093855513e-04,-2.368997678e-04,1.724857836e-04,9.063703453e-04,-5.620851119e-04,3.442852334e-04,-5.613874347e-04,-2.210983904e-04,-7.824858251e-04,-2.184720868e-04,-2.632423522e-04,-4.817144390e-04,2.921744684e-04,-4.895707983e-04,-1.973963299e-04,5.678410206e-04,-6.939118439e-05,4.984498362e-04,-1.975081933e-05,-4.504695104e-04,-4.702203297e-04,1.915501270e-04,-4.006952692e-04,-2.091451422e-04,-1.549407988e-03,-1.386691505e-05,-1.563274903e-03,-1.875553300e-03,1.902048322e-04,-1.685348468e-03,-9.586864380e-04,-2.554836118e-04,-1.214170050e-03,-3.406987970e-04,2.978908574e-04,-4.280793955e-05
-9.4,6.423928495e-04,-6.127500323e-04,2.964281719e-05,-2.681704256e-03,-1.489718977e-04,-2.830676154e-03,5.230889573e-04,-3.223333463e-04,2.007556110e-04,-1.463213790e-03,-1.201668085e-04,-1.583380599e-03,3.311923397e-04,-2.740094971e-04,5.718284262e-05,-1.860473371e-03,-7.876769610e-05,-1.939241067e-03,-7.544856785e-04,-1.667298470e-04,-9.212155255e-04,-1.118172802e-03,-1.074484619e-04,-1.225621264e-03,-2.910160397e-04,-2.546793562e-04,-5.456953959e-04,-1.025650835e-03,-2.178358881e-04,-1.243486723e-03,-2.586315343e-05,-3.320128299e-04,-3.578759833e-04,1.021397078e-04,-3.891775542e-04,-2.870378464e-04,8.131323104e-04,-5.803635007e-04,2.327688096e-04,5.832624740e-04,-1.449697137e-04,4.382927603e-04,2.578284854e-04,-1.505895896e-04,1.072388958e-04,-2.825020511e-04,-1.974114454e-04,-4.799134965e-04,-1.041288320e-03,-3.154722301e-05,-1.072835543e-03,-1.798424846e-04,-5.598291649e-04,-7.396716495e-04,-1.336072267e-03,-1.398903303e-04,-1.475962597e-03,-8.627263358e-04,-1.612774990e-04,-1.024003835e-03,-1.920254453e-04,-1.588376581e-04,-3.508631034e-04,-1.187984396e-03,-7.550856457e-05,-1.263492961e-03,8.688094495e-04,-1.159463284e-04,7.528631212e-04,1.439424769e-03,4.191063504e-04,1.858531119e-03,3.846680742e-04,-2.365148952e-04,1.481531790e-04,8.532921564e-04,-5.470126502e-04,3.062795062e-04,-5.429650427e-04,-2.427018614e-04,-7.856669042e-04,-2.460498793e-04,-2.443001624e-04,-4.903500416e-04,2.857022650e-04,-4.896461192e-04,-2.039438542e-04,5.415761324e-04,-6.802960262e-05,4.735465298e-04,-2.222811931e-05,-4.357549704e-04,-4.579830897e-04,1.668906461e-04,-3.877052697e-04,-2.208146236e-04,-1.563587347e-03,1.277539827e-05,-1.550811949e-03,-1.868368190e-03,1.907583494e-04,-1.677609841e-03,-9.566620820e-04,-2.577686064e-04,-1.214430688e-03,-3.965031566e-04,3.180244169e-04,-7.847873966e-05
-9.3,6.446053488e-04,-5.998717890e-04,4.473355979e-05,-2.611664777e-03,-1.454860493e-04,-2.757150826e-03,5.087373158e-04,-3.147292051e-04,1.940081107e-04,-1.433654075e-03,-1.141430220e-04,-1.547797097e-03,3.072983372e-04,-2.681871764e-04,3.911116081e-05,-1.841238100e-03,-7.502754791e-05,-1.916265648e-03,-7.653685558e-04,-1.625876337e-04,-9.279561896e-04,-1.135138893e-03,-9.509379837e-05,-1.230232691e-03,-3.091120064e-04,-2.488624425e-04,-5.579744489e-04,-1.048904060e-03,-2.051857438e-04,-1.254089804e-03,-5.713664274e-05,-3.205289402e-04,-3.776655829e-04,4.104746578e-05,-3.650076158e-04,-3.239601500e-04,6.809463610e-04,-5.242223748e-04,1.567239862e-04,5.342709227e-04,-1.401971846e-04,3.940737381e-04,2.353150435e-04,-1.521970029e-04,8.311804053e-05,-2.750494252e-04,-2.100400216e-04,-4.850894468e-04,-1.048779260e-03,-2.196596306e-05,-1.070745223e-03,-1.740828248e-04,-5.511634622e-04,-7.252462869e-04,-1.278940642e-03,-1.414290441e-04,-1.420369686e-03,-9.059796744e-04,-1.484468324e-04,-1.054426507e-03,-2.187348164e-04,-1.534728161e-04,-3.722076325e-04,-1.191642424e-03,-7.528022272e-05,-1.266922647e-03,7.919059274e-04,-1.177707057e-04,6.741352217e-04,1.367419712e-03,3.861313948e-04,1.753551107e-03,3.582047846e-04,-2.349627005e-04,1.232420842e-04,7.993995647e-04,-5.315645447e-04,2.678350200e-04,-5.254068079e-04,-2.628565116e-04,-7.882633196e-04,-2.734899165e-04,-2.252653980e-04,-4.987553146e-04,2.785135585e-04,-4.881241512e-04,-2.096105927e-04,5.158365423e-04,-6.712011811e-05,4.487164242e-04,-2.692275966e-05,-4.172857483e-04,-4.442085079e-04,1.418930777e-04,-3.736619926e-04,-2.317689149e-04,-1.576962225e-03,3.890621631e-05,-1.538056009e-03,-1.861200146e-03,1.908975809e-04,-1.670302565e-03,-9.562424550e-04,-2.583036010e-04,-1.214546056e-03,-4.470407603e-04,3.380876802e-04,-1.089530801e-04
-9.2,6.451307514e-04,-5.867645881e-04,5.836616326e-05,-2.539721085e-03,-1.415990753e-04,-2.681320160e-03,4.937298477e-04,-3.071235295e-04,1.866063182e-04,-1.403430342e-03,-1.080466948e-04,-1.511477037e-03,2.828369039e-04,-2.621751619e-04,2.066174198e-05,-1.818779703e-03,-7.166510424e-05,-1.890444807e-03,-7.753800339e-04,-1.583571398e-04,-9.337371737e-04,-1.150094353e-03,-8.305909842e-05,-1.233153451e-03,-3.264724493e-04,-2.429813437e-04,-5.694537929e-04,-1.069201266e-03,-1.925539135e-04,-1.261755179e-03,-8.754777485e-05,-3.089905079e-04,-3.965382827e-04,-1.993016517e-05,-3.403615849e-04,-3.602917501e-04,5.419729302e-04,-4.650765986e-04,7.689633162e-05,4.850156838e-04,-1.352252599e-04,3.497904239e-04,2.132745496e-04,-1.537709230e-04,5.950362667e-05,-2.688321852e-04,-2.213835244e-04,-4.902157097e-04,-1.055703019e-03,-1.266258899e-05,-1.068365608e-03,-1.756887945e-04,-5.374151779e-04,-7.131039724e-04,-1.219803623e-03,-1.437088871e-04,-1.363512510e-03,-9.453163293e-04,-1.359620038e-04,-1.081278333e-03,-2.443242553e-04,-1.480666809e-04,-3.923909362e-04,-1.193166501e-03,-7.509566027e-05,-1.268262161e-03,7.162206159e-04,-1.189690729e-04,5.972515430e-04,1.293893569e-03,3.540238206e-04,1.647917390e-03,3.301873641e-04,-2.323058922e-04,9.788147193e-05,7.448820399e-04,-5.156921429e-04,2.291898970e-04,-5.089823481e-04,-2.812595358e-04,-7.902418839e-04,-3.005307748e-04,-2.061123419e-04,-5.066431167e-04,2.705813294e-04,-4.849086237e-04,-2.143272943e-04,4.907896281e-04,-6.662257291e-05,4.241670552e-04,-3.362181032e-05,-3.952946880e-04,-4.289164984e-04,1.168896711e-04,-3.586875108e-04,-2.417978397e-04,-1.589165519e-03,6.423658504e-05,-1.524928934e-03,-1.853896701e-03,1.905757936e-04,-1.663320908e-03,-9.572847518e-04,-2.570596230e-04,-1.214344375e-03,-4.903680161e-04,3.566668805e-04,-1.337011356e-04
-9.1,6.439502403e-04,-5.734634492e-04,7.048679102e-05,-2.466112502e-03,-1.373450320e-04,-2.603457534e-03,4.781812982e-04,-2.995364185e-04,1.786448797e-04,-1.372519944e-03,-1.019020837e-04,-1.474422028e-03,2.579735543e-04,-2.559931569e-04,1.980397464e-06,-1.793166170e-03,-6.869290725e-05,-1.861859077e-03,-7.844395417e-04,-1.540311143e-04,-9.384706560e-04,-1.162899569e-03,-7.143027674e-05,-1.234329846e-03,-3.430099835e-04,-2.370355826e-04,-5.800455661e-04,-1.086504860e-03,-1.799599432e-04,-1.266464803e-03,-1.169767327e-04,-2.974280967e-04,-4.144048294e-04,-8.049143910e-05,-3.153738609e-04,-3.958653000e-04,3.974608817e-04,-4.031467379e-04,-5.685856216e-06,4.356343325e-04,-1.300554140e-04,3.055789185e-04,1.918511108e-04,-1.553772513e-04,3.647385954e-05,-2.637084185e-04,-2.313705971e-04,-4.950790156e-04,-1.061708140e-03,-3.908707915e-06,-1.065616848e-03,-1.846353611e-04,-5.184219890e-04,-7.030573501e-04,-1.158834978e-03,-1.468292579e-04,-1.305664236e-03,-9.806077453e-04,-1.238828371e-04,-1.104490582e-03,-2.686651804e-04,-1.426366129e-04,-4.113017933e-04,-1.192457966e-03,-7.494592243e-05,-1.267403888e-03,6.420834104e-04,-1.195528736e-04,5.225305367e-04,1.219279603e-03,3.228281172e-04,1.542107720e-03,3.008108203e-04,-2.286201241e-04,7.219069620e-05,6.899021794e-04,-4.993368270e-04,1.905653524e-04,-4.939727747e-04,-2.976208913e-04,-7.915936660e-04,-3.269108057e-04,-1.868202972e-04,-5.137311029e-04,2.618720355e-04,-4.799205750e-04,-2.180485395e-04,4.665906026e-04,-6.649661073e-05,4.000939919e-04,-4.208677893e-05,-3.700831527e-04,-4.121699316e-04,9.218992586e-05,-3.429155996e-04,-2.507256737e-04,-1.599843951e-03,8.847692695e-05,-1.511367024e-03,-1.846289429e-03,1.897325219e-04,-1.656556907e-03,-9.596314516e-04,-2.540392766e-04,-1.213670728e-03,-5.247804907e-04,3.724272438e-04,-1.523532469e-04
-9,6.410553295e-04,-5.600029407e-04,8.105238874e-05,-2.391072757e-03,-1.327592008e-04,-2.523831958e-03,4.622047541e-04,-2.919857686e-04,1.702189855e-04,-1.340901356e-03,-9.573266913e-05,-1.436634025e-03,2.328668564e-04,-2.496589029e-04,-1.679204650e-05,-1.764490767e-03,-6.612088240e-05,-1.830611650e-03,-7.924716626e-04,-1.496023652e-04,-9.420740277e-04,-1.173432613e-03,-6.028794659e-05,-1.233720559e-03,-3.586464955e-04,-2.310238260e-04,-5.896703215e-04,-1.100796424e-03,-1.674246415e-04,-1.268221066e-03,-1.453153144e-04,-2.858709089e-04,-4.311862233e-04,-1.403242967e-04,-2.901878498e-04,-4.305121465e-04,2.486995632e-04,-3.386785933e-04,-8.997903015e-05,3.862531674e-04,-1.246808552e-04,2.615723122e-04,1.711598008e-04,-1.570750841e-04,1.408471669e-05,-2.595322166e-04,-2.399495893e-04,-4.994818058e-04,-1.066465778e-03,4.053807914e-06,-1.062411970e-03,-2.007863681e-04,-4.941183545e-04,-6.949047226e-04,-1.096273035e-03,-1.508525712e-04,-1.247125606e-03,-1.011751802e-03,-1.122674173e-04,-1.124019219e-03,-2.916387666e-04,-1.371995030e-04,-4.288382696e-04,-1.189443109e-03,-7.482207368e-05,-1.264265183e-03,5.698048809e-04,-1.195383739e-04,4.502665069e-04,1.143988312e-03,2.925845021e-04,1.436572814e-03,2.702696241e-04,-2.239898560e-04,4.627976811e-05,6.345975511e-04,-4.824324854e-04,1.521650657e-04,-4.806673609e-04,-3.116671016e-04,-7.923344626e-04,-3.523762768e-04,-1.673775179e-04,-5.197537947e-04,2.523465447e-04,-4.730986177e-04,-2.207520730e-04,4.433856640e-04,-6.670701202e-05,3.766786520e-04,-5.206244627e-05,-3.420161276e-04,-3.940785738e-04,6.807575079e-05,-3.264909943e-04,-2.584152436e-04,-1.608659634e-03,1.113436990e-04,-1.497315935e-03,-1.838190974e-03,1.882858607e-04,-1.649905113e-03,-9.631095352e-04,-2.492768846e-04,-1.212386420e-03,-5.488513814e-04,3.841473379e-04,-1.647040434e-04
-8.9,6.364482293e-04,-5.464166860e-04,9.003154329e-05,-2.314828178e-03,-1.278775019e-04,-2.442705680e-03,4.459116742e-04,-2.844869734e-04,1.614247008e-04,-1.308553765e-03,-8.956128735e-05,-1.398115052e-03,2.076698380e-04,-2.431881008e-04,-3.551826282e-05,-1.732868765e-03,-6.395651838e-05,-1.796825283e-03,-7.994048872e-04,-1.450641948e-04,-9.444690819e-04,-1.181589362e-03,-4.970563746e-05,-1.231295000e-03,-3.733092112e-04,-2.249440139e-04,-5.982532251e-04,-1.112072778e-03,-1.549700417e-04,-1.267042820e-03,-1.724631212e-04,-2.743466440e-04,-4.468097651e-04,-1.991042544e-04,-2.649581378e-04,-4.640623921e-04,9.702155703e-05,-2.719557545e-04,-1.749341974e-04,3.369890960e-04,-1.190867023e-04,2.179023936e-04,1.512932418e-04,-1.589153170e-04,-7.622075184e-06,-2.561583804e-04,-2.470876366e-04,-5.032460170e-04,-1.069674822e-03,1.101844196e-05,-1.058656380e-03,-2.238978975e-04,-4.645406870e-04,-6.884385845e-04,-1.032415259e-03,-1.557989797e-04,-1.188214239e-03,-1.038671555e-03,-1.011709444e-04,-1.139842499e-03,-3.131355026e-04,-1.317716965e-04,-4.449071992e-04,-1.184072408e-03,-7.471526984e-05,-1.258787678e-03,4.996761907e-04,-1.189461458e-04,3.807300449e-04,1.068406931e-03,2.633284784e-04,1.331735409e-03,2.387563094e-04,-2.185044606e-04,2.025184881e-05,5.790861797e-04,-4.649085870e-04,1.141775928e-04,-4.693553407e-04,-3.231478426e-04,-7.925031833e-04,-3.766865809e-04,-1.477848080e-04,-5.244713889e-04,2.419636897e-04,-4.643996551e-04,-2.224359654e-04,4.213128510e-04,-6.722674593e-05,3.540861051e-04,-6.328434450e-05,-3.115162139e-04,-3.748005584e-04,4.479743971e-05,-3.095666471e-04,-2.647692074e-04,-1.615290920e-03,1.325675601e-04,-1.482723360e-03,-1.829391985e-03,1.861263733e-04,-1.643265612e-03,-9.675285244e-04,-2.428367136e-04,-1.210365238e-03,-5.614576885e-04,3.907460668e-04,-1.707116216e-04
-8.8,6.301426367e-04,-5.327369585e-04,9.740567812e-05,-2.237595470e-03,-1.227360484e-04,-2.360331518e-03,4.294118270e-04,-2.770527998e-04,1.523590272e-04,-1.275456371e-03,-8.341025995e-05,-1.358866631e-03,1.825311585e-04,-2.365944848e-04,-5.406332626e-05,-1.698434068e-03,-6.220442549e-05,-1.760638494e-03,-8.051701605e-04,-1.404108893e-04,-9.455810498e-04,-1.187283453e-03,-3.974791537e-05,-1.227031368e-03,-3.869278788e-04,-2.187935986e-04,-6.057214774e-04,-1.120342822e-03,-1.426193489e-04,-1.262962171e-03,-1.983248080e-04,-2.628814769e-04,-4.612062849e-04,-2.564941874e-04,-2.398510791e-04,-4.963452665e-04,-5.619747891e-05,-2.033129809e-04,-2.595104598e-04,2.879508862e-04,-1.132504032e-04,1.747004829e-04,1.323266252e-04,-1.609388393e-04,-2.861221401e-05,-2.534463477e-04,-2.527696063e-04,-5.062159539e-04,-1.071064868e-03,1.681761836e-05,-1.054247249e-03,-2.536214577e-04,-4.298316729e-04,-6.834531306e-04,-9.676089751e-04,-1.616440662e-04,-1.129253041e-03,-1.061314320e-03,-9.064452901e-05,-1.151958849e-03,-3.330548684e-04,-1.263688204e-04,-4.594236887e-04,-1.176319794e-03,-7.461671282e-05,-1.250936507e-03,4.319685761e-04,-1.178006646e-04,3.141679115e-04,9.928990588e-04,2.350906544e-04,1.227989713e-03,2.064617023e-04,-2.122553999e-04,-5.793697628e-06,5.234731212e-04,-4.466940398e-04,7.677908143e-05,-4.603131173e-04,-3.318458935e-04,-7.921590109e-04,-3.996171926e-04,-1.280591870e-04,-5.276763797e-04,2.306850757e-04,-4.538003970e-04,-2.231153212e-04,4.004985579e-04,-6.803683229e-05,3.324617256e-04,-7.548757680e-05,-2.790540383e-04,-3.545416151e-04,2.256917822e-05,-2.922991354e-04,-2.697299572e-04,-1.619434624e-03,1.519021689e-04,-1.467532455e-03,-1.819660692e-03,1.831152645e-04,-1.636545428e-03,-9.726798207e-04,-2.348093861e-04,-1.207489207e-03,-5.618014607e-04,3.913089110e-04,-1.704925497e-04
-8.7,6.221640496e-04,-5.189944220e-04,1.031696276e-04,-2.159580044e-03,-1.173709372e-04,-2.276950982e-03,4.128122536e-04,-2.696934314e-04,1.431188222e-04,-1.241588592e-03,-7.730144607e-05,-1.318890038e-03,1.575948748e-04,-2.298899810e-04,-7.229510627e-05,-1.661336782e-03,-6.086523849e-05,-1.722202020e-03,-8.097003217e-04,-1.356381356e-04,-9.453384573e-04,-1.190446793e-03,-3.046843914e-05,-1.220915232e-03,-3.994342868e-04,-2.125697979e-04,-6.120040847e-04,-1.125626357e-03,-1.303967942e-04,-1.256023151e-03,-2.228095913e-04,-2.515000464e-04,-4.743096377e-04,-3.121478432e-04,-2.150427724e-04,-5.271906156e-04,-2.095439417e-04,-1.331491868e-04,-3.426931285e-04,2.392389681e-04,-1.071426094e-04,1.320963588e-04,1.143198256e-04,-1.631752346e-04,-4.885540893e-05,-2.512652004e-04,-2.569962449e-04,-5.082614453e-04,-1.070398333e-03,2.132443417e-05,-1.049073898e-03,-2.895077782e-04,-3.902440540e-04,-6.797518322e-04,-9.022417226e-04,-1.683179607e-04,-1.070559683e-03,-1.079651890e-03,-8.073395668e-05,-1.160385847e-03,-3.513057129e-04,-1.210055380e-04,-4.723112509e-04,-1.166182539e-03,-7.451759815e-05,-1.240700137e-03,3.669320224e-04,-1.161300140e-04,2.508020083e-04,9.178037769e-04,2.078967490e-04,1.125700526e-03,1.735753372e-04,-2.053344098e-04,-3.175907260e-05,4.678556903e-04,-4.277216880e-04,4.013400224e-05,-4.537899496e-04,-3.375881025e-04,-7.913780520e-04,-4.209614641e-04,-1.082375121e-04,-5.291989761e-04,2.184795160e-04,-4.412993343e-04,-2.228198184e-04,3.810506794e-04,-6.912406116e-05,3.119266183e-04,-8.841798509e-05,-2.451338525e-04,-3.335518376e-04,1.564710753e-06,-2.748441498e-04,-2.732794390e-04,-1.620810541e-03,1.691321132e-04,-1.451678428e-03,-1.808747436e-03,1.790884683e-04,-1.629658968e-03,-9.783388545e-04,-2.253071030e-04,-1.203645957e-03,-5.494319963e-04,3.851202029e-04,-1.643117934e-04
-8.6,6.125490662e-04,-5.052179678e-04,1.073310983e-04,-2.080975560e-03,-1.118181670e-04,-2.192793727e-03,3.962149667e-04,-2.624165851e-04,1.337983816e-04,-1.206931730e-03,-7.125614469e-05,-1.278187875e-03,1.329984587e-04,-2.230848647e-04,-9.008640603e-05,-1.621742207e-03,-5.993434648e-05,-1.681676553e-03,-8.129310099e-04,-1.307432874e-04,-9.436742972e-04,-1.191030738e-03,-2.190834860e-05,-1.212939086e-03,-4.107643028e-04,-2.062698226e-04,-6.170341254e-04,-1.127955156e-03,-1.183273795e-04,-1.246282535e-03,-2.458331445e-04,-2.402254084e-04,-4.860585528e-04,-3.657173251e-04,-1.907147488e-04,-5.564320739e-04,-3.615778692e-04,-6.193710962e-05,-4.235149788e-04,1.909437818e-04,-1.007285687e-04,9.021521311e-05,9.731620322e-05,-1.656419994e-04,-6.832579614e-05,-2.495001333e-04,-2.597812329e-04,-5.092813662e-04,-1.067472461e-03,2.445276170e-05,-1.043019699e-03,-3.310119187e-04,-3.461430103e-04,-6.771549290e-04,-8.367335798e-04,-1.757044537e-04,-1.012438033e-03,-1.093681997e-03,-7.147858060e-05,-1.165160577e-03,-3.678075206e-04,-1.156953233e-04,-4.835028439e-04,-1.153681868e-03,-7.440914984e-05,-1.228091018e-03,3.047931554e-04,-1.139656238e-04,1.908275315e-04,8.434340742e-04,1.817677157e-04,1.025201790e-03,1.402847675e-04,-1.978318812e-04,-5.754711370e-05,4.123260928e-04,-4.079331351e-04,4.392957779e-06,-4.499943445e-04,-3.402554766e-04,-7.902498211e-04,-4.405330099e-04,-8.837922568e-05,-5.289122356e-04,2.053259696e-04,-4.269187887e-04,-2.215928192e-04,3.630502301e-04,-7.047808582e-05,2.925721443e-04,-1.018443538e-04,-2.102752125e-04,-3.121195663e-04,-1.808541397e-05,-2.573538545e-04,-2.754392684e-04,-1.619168061e-03,1.840788101e-04,-1.435089251e-03,-1.796394271e-03,1.738660426e-04,-1.622528228e-03,-9.842702590e-04,-2.144586805e-04,-1.198728939e-03,-5.242704294e-04,3.717020178e-04,-1.525684116e-04
-8.5,6.013435288e-04,-4.914345529e-04,1.099089759e-04,-2.001964911e-03,-1.061134839e-04,-2.108078395e-03,3.797135980e-04,-2.552276371e-04,1.244859610e-04,-1.171472016e-03,-6.529484412e-05,-1.236766860e-03,1.088693296e-04,-2.161878602e-04,-1.073185307e-04,-1.579830954e-03,-5.940137907e-05,-1.639232333e-03,-8.148030341e-04,-1.257255041e-04,-9.405285381e-04,-1.189007673e-03,-1.409548816e-05,-1.203103162e-03,-4.208618344e-04,-1.998910909e-04,-6.207529253e-04,-1.127375787e-03,-1.064365503e-04,-1.233812337e-03,-2.673212675e-04,-2.290789637e-04,-4.964002312e-04,-4.168638458e-04,-1.670485466e-04,-5.839123924e-04,-5.108505863e-04,9.772727405e-06,-5.010778589e-04,1.431431814e-04,-9.396994935e-05,4.917323205e-05,8.133899635e-05,-1.683443936e-04,-8.700539726e-05,-2.480594109e-04,-2.611477796e-04,-5.092071905e-04,-1.062122136e-03,2.615626090e-05,-1.035965875e-03,-3.774998411e-04,-2.980052825e-04,-6.755051236e-04,-7.715308404e-04,-1.836411800e-04,-9.551720205e-04,-1.103430648e-03,-6.291049009e-05,-1.166341138e-03,-3.824924939e-04,-1.104502357e-04,-4.929427296e-04,-1.138864166e-03,-7.428269604e-05,-1.213146862e-03,2.457526226e-04,-1.113419189e-04,1.344107037e-04,7.700747746e-04,1.567199349e-04,9.267947096e-04,1.067731845e-04,-1.898349067e-04,-8.306172211e-05,3.569715771e-04,-3.872835144e-04,-3.031193727e-05,-4.490820906e-04,-3.397917693e-04,-7.888738599e-04,-4.581696343e-04,-6.856785651e-05,-5.267374908e-04,1.912146915e-04,-4.107069957e-04,-2.194923042e-04,3.465428284e-04,-7.208869324e-05,2.744541351e-04,-1.155693950e-04,-1.749929476e-04,-2.905623427e-04,-3.629448198e-05,-2.399762544e-04,-2.762707364e-04,-1.614294390e-03,1.966043971e-04,-1.417689993e-03,-1.782347558e-03,1.672645088e-04,-1.615083049e-03,-9.902355037e-04,-2.024052648e-04,-1.192640768e-03,-4.866289686e-04,3.508514808e-04,-1.357774878e-04
-8.4,5.885997815e-04,-4.776690133e-04,1.109307682e-04,-1.922722400e-03,-1.002920859e-04,-2.023014486e-03,3.633895699e-04,-2.481297624e-04,1.152598075e-04,-1.135204520e-03,-5.943688849e-05,-1.194641408e-03,8.532059349e-05,-2.092061882e-04,-1.238855947e-04,-1.535799484e-03,-5.925084439e-05,-1.595050329e-03,-8.152656846e-04,-1.205858386e-04,-9.358515232e-04,-1.184372846e-03,-7.044531979e-06,-1.191417378e-03,-4.296835514e-04,-1.934314285e-04,-6.231149799e-04,-1.123953166e-03,-9.474981859e-05,-1.218702984e-03,-2.872142230e-04,-2.180803458e-04,-5.052945688e-04,-4.652707480e-04,-1.442196701e-04,-6.094904181e-04,-6.559272631e-04,8.135511253e-05,-5.745721505e-04,9.589969682e-05,-8.682693529e-05,9.072761522e-06,6.638718067e-05,-1.712761527e-04,-1.048889721e-04,-2.468807256e-04,-2.611256062e-04,-5.080063318e-04,-1.054224275e-03,2.642679246e-05,-1.027797483e-03,-4.282561419e-04,-2.464136359e-04,-6.746697778e-04,-7.070994281e-04,-1.919228612e-04,-8.990222892e-04,-1.108954779e-03,-5.505384262e-05,-1.164008622e-03,-3.953081021e-04,-1.052806130e-04,-5.005887151e-04,-1.121802248e-03,-7.412967136e-05,-1.195931919e-03,1.899824756e-04,-1.082958008e-04,8.168667487e-05,6.979805118e-04,1.327653858e-04,8.307458976e-04,7.321578161e-05,-1.814253119e-04,-1.082095303e-04,3.018731589e-04,-3.657457960e-04,-6.387263705e-05,-4.511473944e-04,-3.362094237e-04,-7.873568181e-04,-4.737383116e-04,-4.891145617e-05,-5.226497678e-04,1.761470854e-04,-3.927401717e-04,-2.165930863e-04,3.315314433e-04,-7.394363329e-05,2.575878100e-04,-1.294382178e-04,-1.397779630e-04,-2.692161809e-04,-5.301861212e-05,-2.228553453e-04,-2.758739575e-04,-1.606023708e-03,2.066144568e-04,-1.399409251e-03,-1.766370813e-03,1.591097175e-04,-1.607261095e-03,-9.960016950e-04,-1.892972603e-04,-1.185298955e-03,-4.372111290e-04,3.226649184e-04,-1.145462106e-04
-8.3,5.743736811e-04,-4.639439417e-04,1.104297394e-04,-1.843416350e-03,-9.438828796e-05,-1.937804638e-03,3.473085909e-04,-2.411240984e-04,1.061844924e-04,-1.098137106e-03,-5.370014923e-05,-1.151837255e-03,6.244702084e-05,-2.021455925e-04,-1.396985717e-04,-1.489860669e-03,-5.946316417e-05,-1.549323833e-03,-8.142801039e-04,-1.153273199e-04,-9.296074238e-04,-1.177146281e-03,-7.575741094e-07,-1.177903855e-03,-4.372028971e-04,-1.868892197e-04,-6.240921168e-04,-1.117773484e-03,-8.329233816e-05,-1.201065822e-03,-3.054703540e-04,-2.072472500e-04,-5.127176040e-04,-5.106570204e-04,-1.223910294e-04,-6.330480498e-04,-7.954133477e-04,1.521204636e-04,-6.432928841e-04,4.925864682e-05,-7.926039590e-05,-3.000174907e-05,5.243218087e-05,-1.744202607e-04,-1.219880798e-04,-2.459360702e-04,-2.597486288e-04,-5.056846990e-04,-1.043703448e-03,2.529210694e-05,-1.018411341e-03,-4.824926958e-04,-1.920463091e-04,-6.745390049e-04,-6.439172551e-04,-2.003083676e-04,-8.442256227e-04,-1.110344330e-03,-4.792416731e-05,-1.158268497e-03,-4.062194236e-04,-1.001947099e-04,-5.064141335e-04,-1.102595912e-03,-7.394152162e-05,-1.176537433e-03,1.376242437e-04,-1.048659703e-04,3.275827342e-05,6.273745274e-04,1.099116811e-04,7.372862085e-04,3.977603581e-05,-1.726782352e-04,-1.329021994e-04,2.471043996e-04,-3.433143409e-04,-9.620994127e-05,-4.562185777e-04,-3.295913285e-04,-7.858099062e-04,-4.871408854e-04,-2.954108480e-05,-5.166819702e-04,1.601354101e-04,-3.731241989e-04,-2.129887888e-04,3.179720782e-04,-7.602720069e-05,2.419448775e-04,-1.433444196e-04,-1.050809972e-04,-2.484254168e-04,-6.825433832e-05,-2.061308832e-04,-2.743852215e-04,-1.594246137e-03,2.140604890e-04,-1.380185648e-03,-1.748255489e-03,1.492485575e-04,-1.599006932e-03,-1.001349734e-03,-1.752924766e-04,-1.176642211e-03,-3.770857591e-04,2.875431572e-04,-8.954260191e-05
-8.2,5.587222020e-04,-4.502797146e-04,1.084424874e-04,-1.764211200e-03,-8.843525867e-05,-1.852646459e-03,3.315183806e-04,-2.342098808e-04,9.730849975e-05,-1.060293384e-03,-4.810078126e-05,-1.108394166e-03,4.032248169e-05,-1.950103779e-04,-1.546878962e-04,-1.442244112e-03,-6.001485042e-05,-1.502258962e-03,-8.118217019e-04,-1.099550296e-04,-9.217767315e-04,-1.167374173e-03,4.775165990e-06,-1.162599007e-03,-4.434118702e-04,-1.802634953e-04,-6.236753655e-04,-1.108945059e-03,-7.208848272e-05,-1.181033542e-03,-3.220675322e-04,-1.965952398e-04,-5.186627720e-04,-5.527886600e-04,-1.017068897e-04,-6.544955497e-04,-9.279819151e-04,2.213304400e-04,-7.066514751e-04,3.248293640e-06,-7.123401141e-05,-6.798571777e-05,3.941594034e-05,-1.777484412e-04,-1.383325009e-04,-2.452340642e-04,-2.570533422e-04,-5.022874064e-04,-1.030537181e-03,2.281258034e-05,-1.007724601e-03,-5.393582982e-04,-1.356618357e-04,-6.750201340e-04,-5.824654360e-04,-2.085311810e-04,-7.909966169e-04,-1.107722589e-03,-4.152769189e-05,-1.149250281e-03,-4.152104415e-04,-9.519846058e-05,-5.104089021e-04,-1.081370926e-03,-7.370960312e-05,-1.155080529e-03,8.878836990e-05,-1.010921540e-04,-1.230378407e-05,5.584490193e-04,8.816190725e-05,6.466109265e-04,6.603102201e-06,-1.636612450e-04,-1.570581428e-04,1.927318487e-04,-3.200076288e-04,-1.272757801e-04,-4.642576237e-04,-3.200881120e-04,-7.843457358e-04,-4.983206346e-04,-1.060556609e-05,-5.089262007e-04,1.432033645e-04,-3.519951271e-04,-2.087917626e-04,3.057738663e-04,-7.831939171e-05,2.274544746e-04,-1.572335620e-04,-7.130077583e-05,-2.285343378e-04,-8.203395817e-05,-1.899375345e-04,-2.719714927e-04,-1.578914631e-03,2.189423312e-04,-1.359972300e-03,-1.727828241e-03,1.375586910e-04,-1.590269550e-03,-1.006080299e-03,-1.605547360e-04,-1.166635035e-03,-3.076385848e-04,2.461799881e-04,-6.145859668e-05
-8.1,5.417023785e-04,-4.366946187e-04,1.050077598e-04,-1.685268199e-03,-8.246481783e-05,-1.767733017e-03,3.160484069e-04,-2.273844893e-04,8.866391764e-05,-1.021713654e-03,-4.265311931e-05,-1.064366774e-03,1.899987979e-05,-1.878034799e-04,-1.688036001e-04,-1.393195494e-03,-6.087728528e-05,-1.454072780e-03,-8.078807504e-04,-1.044761738e-04,-9.123569242e-04,-1.155128685e-03,9.574411366e-06,-1.145554273e-03,-4.483195209e-04,-1.735540004e-04,-6.218735214e-04,-1.097595985e-03,-6.116156029e-05,-1.158757545e-03,-3.370014019e-04,-1.861376355e-04,-5.231390374e-04,-5.914854809e-04,-8.228898131e-05,-6.737744622e-04,-1.052396471e-03,2.882154903e-04,-7.641809803e-04,-4.211703173e-05,-6.271641182e-05,-1.048334436e-04,2.725097835e-05,-1.812191213e-04,-1.539681429e-04,-2.448184335e-04,-2.530782170e-04,-4.978966505e-04,-1.014759108e-03,1.907747284e-05,-9.956816355e-04,-5.979492879e-04,-7.808028753e-05,-6.760295754e-04,-5.232184774e-04,-2.163122631e-04,-7.395307405e-04,-1.101243988e-03,-3.586087853e-05,-1.137104866e-03,-4.222836964e-04,-9.029549985e-05,-5.125791963e-04,-1.058275905e-03,-7.342515679e-05,-1.131701062e-03,4.355528884e-05,-9.701431115e-05,-5.345902232e-05,4.913673779e-04,6.751437745e-05,5.588817553e-04,-2.616880696e-05,-1.544336475e-04,-1.806024545e-04,1.388182804e-04,-2.958700324e-04,-1.570517520e-04,-4.751610794e-04,-3.079120392e-04,-7.830731185e-04,-5.072684775e-04,7.737499850e-06,-4.995309776e-04,1.253874282e-04,-3.295174288e-04,-2.041300006e-04,2.948040501e-04,-8.079525622e-05,2.140087938e-04,-1.711027175e-04,-3.877708095e-05,-2.098797984e-04,-9.441807582e-05,-1.744035869e-04,-2.688216627e-04,-1.560047275e-03,2.213093622e-04,-1.338737913e-03,-1.704954373e-03,1.239564342e-04,-1.580997938e-03,-1.010016813e-03,-1.452519831e-04,-1.155268796e-03,-2.305073107e-04,1.995359033e-04,-3.097140738e-05
-8,5.233718776e-04,-4.232049484e-04,1.001669292e-04,-1.606744307e-03,-7.650721074e-05,-1.683251517e-03,3.009118026e-04,-2.206434295e-04,8.026837313e-05,-9.824534419e-04,-3.736972508e-05,-1.019823167e-03,-1.486260828e-06,-1.805266123e-04,-1.820128732e-04,-1.342974185e-03,-6.201463883e-05,-1.404988823e-03,-8.024609272e-04,-9.890014533e-05,-9.013610725e-04,-1.140505508e-03,1.367036032e-05,-1.126835148e-03,-4.519474251e-04,-1.667613129e-04,-6.187087379e-04,-1.083868706e-03,-5.053375427e-05,-1.134402460e-03,-3.502806823e-04,-1.758855677e-04,-5.261662500e-04,-6.266227913e-04,-6.423532836e-05,-6.908581197e-04,-1.167526121e-03,3.519920994e-04,-8.155340215e-04,-8.683113024e-05,-5.368340708e-05,-1.405145373e-04,1.582301024e-05,-1.847748009e-04,-1.689517906e-04,-2.447618618e-04,-2.478646609e-04,-4.926265227e-04,-9.964587794e-04,1.420131448e-05,-9.822574649e-04,-6.573202194e-04,-2.016299417e-05,-6.774832135e-04,-4.666336994e-04,-2.233739486e-04,-6.900076480e-04,-1.091089605e-03,-3.091022347e-05,-1.121999828e-03,-4.274583570e-04,-8.548739500e-05,-5.129457520e-04,-1.033477331e-03,-7.307932956e-05,-1.106556661e-03,1.977730424e-06,-9.267191573e-05,-9.069418530e-05,4.262679968e-04,4.796252745e-05,4.742305243e-04,-5.841875577e-05,-1.450460439e-04,-2.034647996e-04,8.542823562e-05,-2.709722514e-04,-1.855440158e-04,-4.887605985e-04,-2.933289225e-04,-7.820895211e-04,-5.140262095e-04,2.533196046e-05,-4.886942490e-04,1.067380167e-04,-3.058796077e-04,-1.991415910e-04,2.848966335e-04,-8.342424844e-05,2.014723851e-04,-1.849960994e-04,-7.787609390e-06,-1.927837088e-04,-1.054870913e-04,-1.596488090e-04,-2.651359003e-04,-1.537723603e-03,2.212588555e-04,-1.316464748e-03,-1.679538447e-03,1.084031020e-04,-1.571135345e-03,-1.013005388e-03,-1.295535233e-04,-1.142558911e-03,-1.475038184e-04,1.487950293e-04,1.291210920e-06
-7.9,5.037908126e-04,-4.098250515e-04,9.396576111e-05,-1.528789728e-03,-7.059084495e-05,-1.599380572e-03,2.861086616e-04,-2.139803668e-04,7.212829483e-05,-9.425802299e-04,-3.226155915e-05,-9.748417890e-04,-2.111568626e-05,-1.731805358e-04,-1.942962221e-04,-1.291849426e-03,-6.338183888e-05,-1.355231265e-03,-7.955765568e-04,-9.323851392e-05,-8.888150707e-04,-1.123619705e-03,1.710060652e-05,-1.106519098e-03,-4.543239900e-04,-1.598870276e-04,-6.142110176e-04,-1.067913288e-03,-4.022621159e-05,-1.108139500e-03,-3.619213756e-04,-1.658481711e-04,-5.277695467e-04,-6.581296146e-04,-4.762061681e-05,-7.057502314e-04,-1.272356180e-03,4.118799252e-04,-8.604762545e-04,-1.308892142e-04,-4.412021108e-05,-1.750094253e-04,4.995325376e-06,-1.883397031e-04,-1.833443777e-04,-2.451560245e-04,-2.414595664e-04,-4.866155909e-04,-9.757780978e-04,8.320161034e-06,-9.674579368e-04,-7.164937101e-04,3.720687370e-05,-6.792868364e-04,-4.131400250e-04,-2.294538161e-04,-6.425938412e-04,-1.077461739e-03,-2.665226763e-05,-1.104114006e-03,-4.307674550e-04,-8.077394338e-05,-5.115413984e-04,-1.007153763e-03,-7.266317701e-05,-1.079816940e-03,-3.591668200e-05,-8.810340124e-05,-1.240200832e-04,3.632687195e-04,2.949510366e-05,3.927638231e-04,-9.003599596e-05,-1.355404635e-04,-2.255764595e-04,3.263354570e-05,-2.454100256e-04,-2.127764799e-04,-5.048232913e-04,-2.766495041e-04,-7.814727954e-04,-5.186858061e-04,4.203205789e-05,-4.766537482e-04,8.731989799e-05,-2.812881623e-04,-1.939682644e-04,2.758621186e-04,-8.616970596e-05,1.896924126e-04,-1.989992818e-04,2.145363837e-05,-1.775456434e-04,-1.153351384e-04,-1.457807542e-04,-2.611158926e-04,-1.512076706e-03,2.189312642e-04,-1.293145442e-03,-1.651523996e-03,9.090969173e-05,-1.560614304e-03,-1.014912730e-03,-1.136267033e-04,-1.128539434e-03,-6.052928020e-05,9.530462226e-05,3.477534207e-05
-7.8,4.830238862e-04,-3.965673921e-04,8.645649403e-05,-1.451545130e-03,-6.474207323e-05,-1.516287204e-03,2.716293935e-04,-2.073873018e-04,6.424209167e-05,-9.021697258e-04,-2.733821198e-05,-9.295079377e-04,-3.987852649e-05,-1.657654425e-04,-2.056439690e-04,-1.240096187e-03,-6.492332357e-05,-1.305019511e-03,-7.872498509e-04,-8.750486728e-05,-8.747547182e-04,-1.104601179e-03,1.990775591e-05,-1.084693423e-03,-4.554799254e-04,-1.529339529e-04,-6.084138783e-04,-1.049881670e-03,-3.025910712e-05,-1.080140777e-03,-3.719421984e-04,-1.560328119e-04,-5.279750103e-04,-6.859857171e-04,-3.249639203e-05,-7.184821092e-04,-1.365999629e-03,4.671202333e-04,-8.988793957e-04,-1.742823451e-04,-3.402341832e-05,-2.083057634e-04,-5.387011979e-06,-1.918181327e-04,-1.972051447e-04,-2.461000669e-04,-2.339187522e-04,-4.800188191e-04,-9.529057253e-04,1.587249593e-06,-9.513184757e-04,-7.744705793e-04,9.314194816e-05,-6.813286312e-04,-3.631257762e-04,-2.343185841e-04,-5.974443603e-04,-1.060579201e-03,-2.305381489e-05,-1.083633016e-03,-4.322552468e-04,-7.615347004e-05,-5.084087168e-04,-9.794904879e-04,-7.216765531e-05,-1.051658143e-03,-7.012341678e-05,-8.334581556e-05,-1.534692323e-04,3.024708112e-04,1.209662863e-05,3.145674399e-04,-1.209173857e-04,-1.259509604e-04,-2.468683460e-04,-1.948375949e-05,-2.193011895e-04,-2.387849490e-04,-5.230533944e-04,-2.582210743e-04,-7.812744687e-04,-5.213863764e-04,5.770935142e-05,-4.636770250e-04,6.721183338e-05,-2.559615713e-04,-1.887497379e-04,2.674957413e-04,-8.898884520e-05,1.785068961e-04,-2.132345310e-04,4.879754638e-05,-1.644369847e-04,-1.240687692e-04,-1.328897092e-04,-2.569584783e-04,-1.483285056e-03,2.145038733e-04,-1.268781183e-03,-1.620894661e-03,7.153998993e-05,-1.549354671e-03,-1.015623494e-03,-9.763374733e-05,-1.113257241e-03,2.850868290e-05,4.050228006e-05,6.901096296e-05
-7.7,4.611418838e-04,-3.834426444e-04,7.769923945e-05,-1.375139679e-03,-5.898507464e-05,-1.434124754e-03,2.574570544e-04,-2.008548581e-04,5.660219635e-05,-8.613030058e-04,-2.260808631e-05,-8.839110921e-04,-5.777294542e-05,-1.582813730e-04,-2.160543184e-04,-1.187991332e-03,-6.657320693e-05,-1.254564539e-03,-7.775092454e-04,-8.171450079e-05,-8.592237461e-04,-1.083591002e-03,2.213724738e-05,-1.061453755e-03,-4.554463644e-04,-1.459062603e-04,-6.013526247e-04,-1.029924459e-03,-2.065158590e-05,-1.050576045e-03,-3.803626869e-04,-1.464452559e-04,-5.268079428e-04,-7.102184849e-04,-1.889043510e-05,-7.291089200e-04,-1.447711684e-03,5.169966104e-04,-9.307150732e-04,-2.169943832e-04,-2.340244249e-05,-2.403968257e-04,-1.549458602e-05,-1.950939218e-04,-2.105885078e-04,-2.476899666e-04,-2.253104112e-04,-4.730003779e-04,-9.280717021e-04,-5.831269669e-06,-9.339029718e-04,-8.302427001e-04,1.467671510e-04,-6.834755490e-04,-3.169253793e-04,-2.377781762e-04,-5.547035555e-04,-1.040674375e-03,-2.007243812e-05,-1.060746813e-03,-4.319754121e-04,-7.162315474e-05,-5.035985668e-04,-9.506755080e-04,-7.158367238e-05,-1.022259180e-03,-1.006600712e-04,-7.843465974e-05,-1.790947310e-04,2.439616512e-04,-4.251935549e-06,2.397097157e-04,-1.509671087e-04,-1.163040321e-04,-2.672711408e-04,-7.083248410e-05,-1.927815810e-04,-2.636140651e-04,-5.430977515e-04,-2.384182266e-04,-7.815159780e-04,-5.223100749e-04,7.225775719e-05,-4.500523177e-04,4.650518850e-05,-2.301253155e-04,-1.836201270e-04,2.595830395e-04,-9.183375212e-05,1.677492874e-04,-2.278574620e-04,7.415954367e-05,-1.536979183e-04,-1.318099227e-04,-1.210435625e-04,-2.528534852e-04,-1.451566933e-03,2.081842843e-04,-1.243382648e-03,-1.587678056e-03,5.041273921e-05,-1.537265316e-03,-1.015038605e-03,-8.172943428e-05,-1.096768039e-03,1.177692959e-04,-1.416167967e-05,1.036076162e-04
-7.6,4.382218430e-04,-3.704597163e-04,6.776212672e-05,-1.299690599e-03,-5.334178447e-05,-1.353032383e-03,2.435681590e-04,-1.943725976e-04,4.919556135e-05,-8.200653401e-04,-1.807844383e-05,-8.381437840e-04,-7.480485007e-05,-1.507285522e-04,-2.255334022e-04,-1.135810126e-03,-6.825725845e-05,-1.204067385e-03,-7.663893803e-04,-7.588402081e-05,-8.422734011e-04,-1.060739127e-03,2.383575490e-05,-1.036903373e-03,-4.542559836e-04,-1.388095785e-04,-5.930655621e-04,-1.008190727e-03,-1.142158691e-05,-1.019612314e-03,-3.872042919e-04,-1.370897480e-04,-5.242940399e-04,-7.308997809e-04,-6.806086339e-06,-7.377058673e-04,-1.516906493e-03,5.608575714e-04,-9.560489217e-04,-2.590020226e-04,-1.228012761e-05,-2.712821502e-04,-2.551299275e-05,-1.980312075e-04,-2.235442002e-04,-2.500105939e-04,-2.157178581e-04,-4.657284521e-04,-9.015444149e-04,-1.375899275e-05,-9.153034077e-04,-8.828101346e-04,1.972356248e-04,-6.855745097e-04,-2.748067387e-04,-2.396984459e-04,-5.145051845e-04,-1.017992280e-03,-1.765733114e-05,-1.035649612e-03,-4.299904426e-04,-6.717937648e-05,-4.971698191e-04,-9.208972601e-04,-7.090221078e-05,-9.917994709e-04,-1.275665343e-04,-7.340382434e-05,-2.009703586e-04,1.878158014e-04,-1.957238947e-05,1.682434119e-04,-1.800992479e-04,-1.066183865e-04,-2.867176344e-04,-1.213171711e-04,-1.660003771e-04,-2.873175482e-04,-5.645574124e-04,-2.176307738e-04,-7.821881862e-04,-5.216768136e-04,8.559674774e-05,-4.360800659e-04,2.530078402e-05,-2.040077960e-04,-1.787070119e-04,2.519029111e-04,-9.465347514e-05,1.572494360e-04,-2.430533755e-04,9.751604428e-05,-1.455373313e-04,-1.387006204e-04,-1.102842174e-04,-2.489848378e-04,-1.417177782e-03,2.002039880e-04,-1.216973794e-03,-1.551951269e-03,2.770284767e-05,-1.524248422e-03,-1.013075882e-03,-6.605979395e-05,-1.079135676e-03,2.055367244e-04,-6.729927568e-05,1.382374487e-04
-7.5,4.143456863e-04,-3.576256235e-04,5.672006283e-05,-1.225304487e-03,-4.783178150e-05,-1.273136268e-03,2.299320032e-04,-1.879293136e-04,4.200268963e-05,-7.785468429e-04,-1.375531590e-05,-7.923021588e-04,-9.098953569e-05,-1.431075710e-04,-2.340971067e-04,-1.083823187e-03,-6.989632900e-05,-1.153719516e-03,-7.539327351e-04,-7.003093209e-05,-8.239636672e-04,-1.036203526e-03,2.505023438e-05,-1.011153292e-03,-4.519466237e-04,-1.316510343e-04,-5.835976579e-04,-9.848304476e-04,-2.585572078e-06,-9.874160197e-04,-3.924939753e-04,-1.279689961e-04,-5.204629714e-04,-7.481431499e-04,3.777385801e-06,-7.443657641e-04,-1.573174937e-03,5.981395479e-04,-9.750353893e-04,-3.002777644e-04,-6.923290461e-07,-3.009700934e-04,-3.564341458e-05,-2.004767587e-04,-2.361201733e-04,-2.531315252e-04,-2.052410506e-04,-4.583725758e-04,-8.736306293e-04,-2.200961913e-05,-8.956402484e-04,-9.312024205e-04,2.437443115e-04,-6.874581089e-04,-2.369618557e-04,-2.400101947e-04,-4.769720504e-04,-9.927912594e-04,-1.575046520e-05,-1.008541725e-03,-4.263722486e-04,-6.281796100e-05,-4.891902096e-04,-8.903440249e-04,-7.011442668e-05,-9.604584516e-04,-1.509060343e-04,-6.828553136e-05,-2.191915657e-04,1.340945725e-04,-3.388844085e-05,1.002061317e-04,-2.082424405e-04,-9.690428765e-05,-3.051467282e-04,-1.708457968e-04,-1.391152917e-04,-3.099610885e-04,-5.870051827e-04,-1.962486732e-04,-7.832538559e-04,-5.197379230e-04,9.767281437e-05,-4.220651087e-04,3.703195785e-06,-1.778362222e-04,-1.741330264e-04,2.442284705e-04,-9.739652303e-05,1.468319475e-04,-2.590318903e-04,1.188975201e-04,-1.401343702e-04,-1.449063185e-04,-1.006267894e-04,-2.455331079e-04,-1.380409368e-03,1.908115052e-04,-1.189597863e-03,-1.513845523e-03,3.640518503e-06,-1.510205005e-03,-1.009673900e-03,-5.076140281e-05,-1.060435303e-03,2.902559769e-04,-1.176483999e-04,1.726075770e-04
-7.4,3.895975919e-04,-3.449452558e-04,4.465233602e-05,-1.152080090e-03,-4.247206228e-05,-1.194552152e-03,2.165089675e-04,-1.815132983e-04,3.499566924e-05,-7.368445264e-04,-9.643349764e-06,-7.464878762e-04,-1.063546138e-04,-1.354194114e-04,-2.417740253e-04,-1.032294338e-03,-7.141021336e-05,-1.103704552e-03,-7.401924677e-04,-6.417322801e-05,-8.043656957e-04,-1.010150344e-03,2.582736703e-05,-9.843229774e-04,-4.485663155e-04,-1.244392103e-04,-5.730055259e-04,-9.599985974e-04,5.841844628e-06,-9.541567528e-04,-3.962692369e-04,-1.190840418e-04,-5.153532786e-04,-7.621017647e-04,1.290313402e-05,-7.491986307e-04,-1.616303662e-03,6.283891126e-04,-9.879145494e-04,-3.407948396e-04,1.131358124e-05,-3.294812583e-04,-4.610294271e-05,-2.022643729e-04,-2.483673156e-04,-2.571066827e-04,-1.939965981e-04,-4.511032808e-04,-8.446771417e-04,-3.038609100e-05,-8.750632327e-04,-9.745020555e-04,2.855491077e-04,-6.889529479e-04,-2.035010569e-04,-2.387140140e-04,-4.422150709e-04,-9.653444505e-04,-1.428799076e-05,-9.796324413e-04,-4.212036650e-04,-5.853424072e-05,-4.797379057e-04,-8.592045178e-04,-6.921162345e-05,-9.284161413e-04,-1.707665610e-04,-6.311024530e-05,-2.338768064e-04,8.284462350e-05,-4.722490584e-05,3.561971767e-05,-2.353451697e-04,-8.716323163e-05,-3.225084013e-04,-2.193384706e-04,-1.122880057e-04,-3.316264763e-04,-6.100056021e-04,-1.746464537e-04,-7.846520558e-04,-5.167696586e-04,1.084593950e-04,-4.083102636e-04,-1.818738234e-05,-1.518318141e-04,-1.700191964e-04,2.363261078e-04,-1.000128278e-04,1.363132800e-04,-2.760202444e-04,1.383798349e-04,-1.376404096e-04,-1.506162752e-04,-9.206144663e-05,-2.426777218e-04,-1.341589653e-03,1.802649760e-04,-1.161324677e-03,-1.473548908e-03,-2.149235587e-05,-1.495041264e-03,-1.004799155e-03,-3.596059534e-05,-1.040759750e-03,3.705403901e-04,-1.641162834e-04,2.064241067e-04
-7.3,3.640607294e-04,-3.324211533e-04,3.163957607e-05,-1.080111880e-03,-3.727669718e-05,-1.117388577e-03,2.032485651e-04,-1.751125689e-04,2.813599621e-05,-6.950649212e-04,-5.745670614e-06,-7.008105918e-04,-1.209431727e-04,-1.276653522e-04,-2.486085249e-04,-9.814794265e-04,-7.272112540e-05,-1.054200552e-03,-7.252356706e-04,-5.832893690e-05,-7.835646075e-04,-9.827543065e-04,2.621299006e-05,-9.565413165e-04,-4.441782413e-04,-1.171839906e-04,-5.613622319e-04,-9.338595124e-04,1.384835618e-05,-9.200111562e-04,-3.985831246e-04,-1.104340198e-04,-5.090171444e-04,-7.729666796e-04,2.063438611e-05,-7.523322935e-04,-1.646294552e-03,6.512835303e-04,-9.950110214e-04,-3.805325609e-04,2.368112213e-05,-3.568514388e-04,-5.712373049e-05,-2.032213138e-04,-2.603450443e-04,-2.619766261e-04,-1.821163925e-04,-4.440930187e-04,-8.150715517e-04,-3.868050980e-05,-8.537520615e-04,-1.011866749e-03,3.219785693e-04,-6.898881796e-04,-1.744497118e-04,-2.358822114e-04,-4.103319231e-04,-9.359409354e-04,-1.320188498e-05,-9.491428204e-04,-4.145802188e-04,-5.432298973e-05,-4.689032085e-04,-8.276687932e-04,-6.818511138e-05,-8.958539045e-04,-1.872619743e-04,-5.790655947e-05,-2.451685338e-04,3.409639552e-05,-5.960709698e-05,-2.551070146e-05,-2.613803007e-04,-7.738860565e-05,-3.387689064e-04,-2.667352462e-04,-8.568009043e-05,-3.524153366e-04,-6.331325157e-04,-1.531706048e-04,-7.863031205e-04,-5.130671099e-04,1.179555068e-04,-3.951116031e-04,-4.028410449e-05,-1.262047842e-04,-1.664888886e-04,2.279541371e-04,-1.024549160e-04,1.254992211e-04,-2.942566623e-04,1.560756509e-04,-1.381810114e-04,-1.560412667e-04,-8.455619357e-05,-2.405974602e-04,-1.301082688e-03,1.688249333e-04,-1.132257754e-03,-1.431307883e-03,-4.736795350e-05,-1.478675837e-03,-9.984552325e-04,-2.177198088e-05,-1.020227213e-03,4.451519918e-04,-2.058001197e-04,2.393518721e-04
-7.2,3.378141573e-04,-3.200533411e-04,1.776081617e-05,-1.009493426e-03,-3.225643297e-05,-1.041749859e-03,1.900881687e-04,-1.687149982e-04,2.137317050e-05,-6.533261862e-04,-2.063806246e-06,-6.553899924e-04,-1.348159142e-04,-1.198467962e-04,-2.546627104e-04,-9.316255334e-04,-7.375650975e-05,-1.005382043e-03,-7.091460389e-04,-5.251559761e-05,-7.616616366e-04,-9.541985660e-04,2.625123859e-05,-9.279473274e-04,-4.388639588e-04,-1.098963227e-04,-5.487602815e-04,-9.065898130e-04,2.142441172e-05,-8.851654013e-04,-3.995075907e-04,-1.020158773e-04,-5.015234680e-04,-7.809640259e-04,2.705193589e-05,-7.539120900e-04,-1.663380266e-03,6.666468907e-04,-9.967333757e-04,-4.194804922e-04,3.634758350e-05,-3.831329087e-04,-6.895116221e-05,-2.031753207e-04,-2.721264829e-04,-2.677714402e-04,-1.697453061e-04,-4.375167463e-04,-7.852405664e-04,-4.667600803e-05,-8.319165745e-04,-1.042547581e-03,3.524448223e-04,-6.901027585e-04,-1.497482306e-04,-2.316575125e-04,-3.814057432e-04,-9.048854803e-04,-1.242176713e-05,-9.173072474e-04,-4.066113217e-04,-5.017838802e-05,-4.567897097e-04,-7.959284450e-04,-6.702604451e-05,-8.629544896e-04,-2.005320586e-04,-5.270104382e-05,-2.532331024e-04,-1.213673764e-05,-7.106049261e-05,-8.319723025e-05,-2.863479868e-04,-6.756744609e-05,-3.539154328e-04,-3.130013511e-04,-5.944942952e-05,-3.724507806e-04,-6.559812017e-04,-1.321321551e-04,-7.881133568e-04,-5.089386136e-04,1.261837064e-04,-3.827549071e-04,-6.252107734e-05,-1.011500442e-04,-1.636711215e-04,2.188630684e-04,-1.046784882e-04,1.141845802e-04,-3.139839424e-04,1.721264618e-04,-1.418574805e-04,-1.614094390e-04,-7.805891911e-05,-2.394683581e-04,-1.259287182e-03,1.567481803e-04,-1.102539002e-03,-1.387427561e-03,-7.361973045e-05,-1.461047291e-03,-9.906912812e-04,-8.296022987e-06,-9.989873042e-04,5.129670457e-04,-2.419892474e-04,2.709777984e-04
-7.1,3.109307259e-04,-3.078391759e-04,3.091549959e-06,-9.403194800e-04,-2.741832708e-05,-9.677378071e-04,1.769533971e-04,-1.623083157e-04,1.464508144e-05,-6.117585676e-04,1.402305336e-06,-6.103562622e-04,-1.480509944e-04,-1.119650719e-04,-2.600160663e-04,-8.829695628e-04,-7.445116884e-05,-9.574207316e-04,-6.920247916e-04,-4.674976172e-05,-7.387745534e-04,-9.246734352e-04,2.598345046e-05,-8.986899847e-04,-4.327232223e-04,-1.025879669e-04,-5.353111891e-04,-8.783781622e-04,2.856350188e-05,-8.498146603e-04,-3.991335826e-04,-9.382417517e-05,-4.929577578e-04,-7.863493822e-04,3.225134125e-05,-7.540980409e-04,-1.668029535e-03,6.744578642e-04,-9.935716712e-04,-4.576398079e-04,4.924668331e-05,-4.083931246e-04,-8.184091696e-05,-2.019603556e-04,-2.838012725e-04,-2.745122304e-04,-1.570382737e-04,-4.315505041e-04,-7.556450229e-04,-5.415043475e-05,-8.097954576e-04,-1.065903281e-03,3.764522130e-04,-6.894510679e-04,-1.292575562e-04,-2.262457845e-04,-3.555033407e-04,-8.724960129e-04,-1.187660053e-05,-8.843726134e-04,-3.974200700e-04,-4.609408266e-05,-4.435141527e-04,-7.641751651e-04,-6.572528380e-05,-8.299004489e-04,-2.107409207e-04,-4.751802091e-05,-2.582589416e-04,-5.585779145e-05,-8.161067640e-05,-1.374684678e-04,-3.102765746e-04,-5.768282469e-05,-3.679593992e-04,-3.581281922e-04,-3.374696604e-05,-3.918751582e-04,-6.781751503e-04,-1.118039105e-04,-7.899790609e-04,-5.047002766e-04,1.331881920e-04,-3.715120845e-04,-8.485778172e-05,-7.684396326e-05,-1.617017450e-04,2.087988840e-04,-1.066423658e-04,1.021565182e-04,-3.354412512e-04,1.866944630e-04,-1.487467882e-04,-1.669603329e-04,-7.249828294e-05,-2.394586158e-04,-1.216631123e-03,1.442829010e-04,-1.072348222e-03,-1.342269178e-03,-9.985076694e-05,-1.442119945e-03,-9.816061957e-04,4.384026247e-06,-9.772221695e-04,5.729436668e-04,-2.721559141e-04,3.007877527e-04
-7,2.834767147e-04,-2.957731567e-04,-1.229644196e-05,-8.726857656e-04,-2.276552209e-05,-8.954512877e-04,1.637608695e-04,-1.558800305e-04,7.880839011e-06,-5.705022805e-04,4.654197587e-06,-5.658480829e-04,-1.607407173e-04,-1.040212954e-04,-2.647620128e-04,-8.357352508e-04,-7.474862483e-05,-9.104838756e-04,-6.739888744e-04,-4.104668528e-05,-7.150355597e-04,-8.943735887e-04,2.544707853e-05,-8.689265102e-04,-4.258694784e-04,-9.527127925e-05,-5.211407577e-04,-8.494208257e-04,3.526219237e-05,-8.141586333e-04,-3.975670014e-04,-8.585106514e-05,-4.834180665e-04,-7.893982834e-04,3.633930443e-05,-7.530589790e-04,-1.660937940e-03,6.748472823e-04,-9.860906580e-04,-4.950207121e-04,6.231034896e-05,-4.327103631e-04,-9.605376585e-05,-1.994204604e-04,-2.954742262e-04,-2.822101592e-04,-1.441567361e-04,-4.263668953e-04,-7.267700038e-04,-6.088167713e-05,-7.876516809e-04,-1.081412890e-03,3.936058662e-04,-6.878070233e-04,-1.127700225e-04,-2.199011777e-04,-3.326712001e-04,-8.390983912e-04,-1.149599868e-05,-8.505943899e-04,-3.871411909e-04,-4.206326510e-05,-4.292044560e-04,-7.325971410e-04,-6.427327792e-05,-7.968704189e-04,-2.180735802e-04,-4.237930477e-05,-2.604528849e-04,-9.708352310e-05,-9.128339910e-05,-1.883669222e-04,-3.332212475e-04,-4.771625238e-05,-3.809374999e-04,-4.021290706e-04,-8.713586824e-06,-4.108426574e-04,-6.993691430e-04,-9.241956108e-05,-7.917887041e-04,-5.006692988e-04,1.390333866e-04,-3.616359121e-04,-1.072789890e-04,-5.344201368e-05,-1.607210027e-04,1.975094884e-04,-1.083078116e-04,8.920167680e-05,-3.588517571e-04,1.999531938e-04,-1.588985634e-04,-1.729366363e-04,-6.778408388e-05,-2.407207202e-04,-1.173559845e-03,1.316642471e-04,-1.041895598e-03,-1.296242851e-03,-1.256428984e-04,-1.421885749e-03,-9.713457138e-04,1.620528356e-05,-9.551404302e-04,6.241019754e-04,-2.959399462e-04,3.281620292e-04
-6.9,2.555134430e-04,-2.838467527e-04,-2.833330965e-05,-8.066861176e-04,-1.829729618e-05,-8.249834138e-04,1.504231771e-04,-1.494173832e-04,1.005793852e-06,-5.297026483e-04,7.694634929e-06,-5.220080133e-04,-1.729853540e-04,-9.601637921e-05,-2.690017332e-04,-7.901284398e-04,-7.460153153e-05,-8.647299714e-04,-6.551663344e-04,-3.542027288e-05,-6.905866073e-04,-8.634936741e-04,2.467481168e-05,-8.388188624e-04,-4.184219042e-04,-8.795903603e-05,-5.063809402e-04,-8.199137410e-04,4.151995351e-05,-7.783937875e-04,-3.949213970e-04,-7.808645366e-05,-4.730078506e-04,-7.903939477e-04,3.942931312e-05,-7.509646346e-04,-1.643002906e-03,6.680868766e-04,-9.749160292e-04,-5.316364527e-04,7.546951047e-05,-4.561669422e-04,-1.118472014e-04,-1.954122947e-04,-3.072594961e-04,-2.908631061e-04,-1.312644721e-04,-4.221275782e-04,-6.991083061e-04,-6.665511091e-05,-7.657634170e-04,-1.088687465e-03,4.036210796e-04,-6.850663854e-04,-1.000222345e-04,-2.129062864e-04,-3.129285209e-04,-8.050188065e-04,-1.121118518e-05,-8.162299917e-04,-3.759173655e-04,-3.807868340e-05,-4.139960489e-04,-7.013736598e-04,-6.265998941e-05,-7.640336492e-04,-2.227312980e-04,-3.730404305e-05,-2.600353410e-04,-1.358402043e-04,-1.001045876e-04,-2.359447919e-04,-3.552603084e-04,-3.764975680e-05,-3.929100652e-04,-4.450303737e-04,1.552294960e-05,-4.295074241e-04,-7.192495095e-04,-7.417253094e-05,-7.934220405e-04,-4.971551051e-04,1.438030182e-04,-3.533520869e-04,-1.297903078e-04,-3.107704232e-05,-1.608673501e-04,1.847533731e-04,-1.096377672e-04,7.511560592e-05,-3.844058078e-04,2.120766863e-04,-1.723291215e-04,-1.795735201e-04,-6.380835274e-05,-2.433818728e-04,-1.130517445e-03,1.191096718e-04,-1.011407773e-03,-1.249794553e-03,-1.505666165e-04,-1.400361170e-03,-9.600922792e-04,2.712800740e-05,-9.329642718e-04,6.655187546e-04,-3.131315388e-04,3.523872157e-04
-6.8,2.271003053e-04,-2.720483501e-04,-4.494804481e-05,-7.424076458e-04,-1.400942165e-05,-7.564170675e-04,1.368549085e-04,-1.429074112e-04,-6.052502785e-06,-4.895034905e-04,1.052732729e-05,-4.789761632e-04,-1.848856338e-04,-8.795120902e-05,-2.728368428e-04,-7.463316764e-04,-7.397108324e-05,-8.203027596e-04,-6.356899392e-04,-2.988318368e-05,-6.655731229e-04,-8.322228671e-04,2.369402339e-05,-8.085288437e-04,-4.104965033e-04,-8.066428946e-05,-4.911607927e-04,-7.900434610e-04,4.733890117e-05,-7.427045598e-04,-3.913098391e-04,-7.051831539e-05,-4.618281545e-04,-7.896151205e-04,4.163761816e-05,-7.479775023e-04,-1.615283989e-03,6.545716116e-04,-9.607123779e-04,-5.674962358e-04,8.865436550e-05,-4.788418703e-04,-1.294646101e-04,-1.898072301e-04,-3.192718402e-04,-3.004508803e-04,-1.185232890e-04,-4.189741694e-04,-6.731379246e-04,-7.127316180e-05,-7.444110864e-04,-1.087479432e-03,4.063324925e-04,-6.811469398e-04,-9.070707943e-05,-2.055523162e-04,-2.962593956e-04,-7.705750146e-04,-1.095598061e-05,-7.815309952e-04,-3.638947764e-04,-3.413266500e-05,-3.980274414e-04,-6.706691583e-04,-6.087495782e-05,-7.315441161e-04,-2.249266687e-04,-3.230879498e-05,-2.572354637e-04,-1.721590410e-04,-1.081002419e-04,-2.802592828e-04,-3.764897781e-04,-2.746739560e-05,-4.039571737e-04,-4.868610695e-04,3.885093348e-05,-4.480101360e-04,-7.375316272e-04,-5.721517827e-05,-7.947468054e-04,-4.944491950e-04,1.475995830e-04,-3.468496119e-04,-1.524116578e-04,-9.857745963e-06,-1.622694038e-04,1.703085156e-04,-1.105964928e-04,5.971202281e-05,-4.122419983e-04,2.232279287e-04,-1.890140696e-04,-1.870865465e-04,-6.044832792e-05,-2.475348744e-04,-1.087924857e-03,1.068140491e-04,-9.811108079e-04,-1.203387902e-03,-1.741922370e-04,-1.377580139e-03,-9.480503202e-04,3.713740506e-05,-9.109129151e-04,6.963360499e-04,-3.236566290e-04,3.726794210e-04
-6.7,1.982980944e-04,-2.603633187e-04,-6.206522427e-05,-6.799254728e-04,-9.894674376e-06,-6.898201472e-04,1.229781775e-04,-1.363371219e-04,-1.335894444e-05,-4.500405038e-04,1.315675184e-05,-4.368837519e-04,-1.965358694e-04,-7.982692705e-05,-2.763627965e-04,-7.044997407e-04,-7.282574098e-05,-7.773254817e-04,-6.156907366e-04,-2.444695369e-05,-6.401376903e-04,-8.007394136e-04,2.252669438e-05,-7.782127192e-04,-4.021988756e-04,-7.340025723e-05,-4.755991329e-04,-7.599795526e-04,5.272352239e-05,-7.072560302e-04,-3.868384536e-04,-6.313312102e-05,-4.499715746e-04,-7.873265984e-04,4.308056644e-05,-7.442460320e-04,-1.578952810e-03,6.347980463e-04,-9.441547639e-04,-6.025994792e-04,1.017945554e-04,-5.008049238e-04,-1.491243157e-04,-1.824934878e-04,-3.316178035e-04,-3.109304208e-04,-1.060891428e-04,-4.170195636e-04,-6.492974174e-04,-7.456530579e-05,-7.238627232e-04,-1.077688430e-03,4.017016133e-04,-6.759868171e-04,-8.448575033e-05,-1.981223841e-04,-2.826081344e-04,-7.360679600e-04,-1.066809620e-05,-7.467360562e-04,-3.512188759e-04,-3.021728878e-05,-3.814361646e-04,-6.406281825e-04,-5.890754638e-05,-6.995357289e-04,-2.248794266e-04,-2.740784443e-05,-2.522872710e-04,-2.060725997e-04,-1.152962491e-04,-3.213688488e-04,-3.970176401e-04,-1.715602802e-05,-4.141736681e-04,-5.276438497e-04,6.117722170e-05,-4.664666280e-04,-7.539555542e-04,-4.166024228e-05,-7.956157965e-04,-4.928154894e-04,1.505432968e-04,-3.422721926e-04,-1.751715082e-04,1.013301384e-05,-1.650384944e-04,1.539792995e-04,-1.111495059e-04,4.282979365e-05,-4.424301417e-04,2.335483177e-04,-2.088818240e-04,-1.956604186e-04,-5.757140875e-05,-2.532318274e-04,-1.046159525e-03,9.494504903e-05,-9.512144759e-04,-1.157483552e-03,-1.961019771e-04,-1.353585529e-03,-9.354305520e-04,4.624373046e-05,-8.891868216e-04,7.157820677e-04,-3.275670665e-04,3.882150012e-04
-6.6,1.691714972e-04,-2.487741016e-04,-7.960260443e-05,-6.192985718e-04,-5.943308772e-06,-6.252418806e-04,1.087265205e-04,-1.296937323e-04,-2.096721174e-05,-4.114362077e-04,1.558818315e-05,-3.958480245e-04,-2.080191331e-04,-7.164522378e-05,-2.796643569e-04,-6.647572463e-04,-7.113985003e-05,-7.358970963e-04,-5.952930295e-04,-1.912203802e-05,-6.144150675e-04,-7.692063224e-04,2.119002403e-05,-7.480162984e-04,-3.936201512e-04,-6.618024250e-05,-4.598003937e-04,-7.298700376e-04,5.768040413e-05,-6.721896335e-04,-3.816029958e-04,-5.591632822e-05,-4.375193240e-04,-7.837732279e-04,4.387327881e-05,-7.398999491e-04,-1.535240403e-03,6.093416911e-04,-9.258987123e-04,-6.369326687e-04,1.148193700e-04,-5.221132987e-04,-1.710110543e-04,-1.733783741e-04,-3.443894284e-04,-3.222327632e-04,-9.410871808e-05,-4.163414813e-04,-6.279646033e-04,-7.639579856e-05,-7.043604019e-04,-1.059363483e-03,3.898213230e-04,-6.695421598e-04,-8.100255443e-05,-1.908780035e-04,-2.718805579e-04,-7.017752170e-04,-1.029058741e-05,-7.120658044e-04,-3.380311918e-04,-2.632467497e-05,-3.643558667e-04,-6.113722716e-04,-5.674729591e-05,-6.681195675e-04,-2.228134746e-04,-2.261363664e-05,-2.454271113e-04,-2.376130587e-04,-1.217181385e-04,-3.593311972e-04,-4.169587876e-04,-6.705599835e-06,-4.236643875e-04,-5.673901952e-04,8.242928428e-05,-4.849609109e-04,-7.682818966e-04,-2.758512398e-05,-7.958670206e-04,-4.924822787e-04,1.527692205e-04,-3.397130582e-04,-1.981033544e-04,2.884005378e-05,-1.692633006e-04,1.356004523e-04,-1.112637767e-04,2.433667559e-05,-4.749595351e-04,2.431495649e-04,-2.318099702e-04,-2.054409271e-04,-5.504081674e-05,-2.604817438e-04,-1.005540771e-03,8.363914788e-05,-9.219016232e-04,-1.112520039e-03,-2.159014326e-04,-1.328421471e-03,-9.224362083e-04,5.448028295e-05,-8.679559254e-04,7.231988105e-04,-3.250343122e-04,3.981644983e-04
-6.5,1.397901353e-04,-2.372602840e-04,-9.747014870e-05,-5.605675686e-04,-2.143485827e-06,-5.627110544e-04,9.404670417e-05,-1.229649578e-04,-2.891825365e-05,-3.737972769e-04,1.782790315e-05,-3.559693737e-04,-2.194050928e-04,-6.340856165e-05,-2.828136545e-04,-6.271983925e-04,-6.889270836e-05,-6.960911009e-04,-5.746115771e-04,-1.391775183e-05,-5.885293289e-04,-7.377691918e-04,1.969789409e-05,-7.180712977e-04,-3.848364257e-04,-5.901754674e-05,-4.438539724e-04,-6.998403411e-04,6.221799506e-05,-6.376223461e-04,-3.756887267e-04,-4.885283711e-05,-4.245415638e-04,-7.791768621e-04,4.412902061e-05,-7.350478415e-04,-1.485389732e-03,5.788354869e-04,-9.065542448e-04,-6.704689920e-04,1.276580684e-04,-5.428109237e-04,-1.952708253e-04,-1.623907627e-04,-3.576615880e-04,-3.342635132e-04,-8.271591125e-05,-4.169794244e-04,-6.094429062e-04,-7.666735254e-05,-6.861102587e-04,-1.032702198e-03,3.709159870e-04,-6.617862108e-04,-7.990314825e-05,-1.840477472e-04,-2.639508954e-04,-6.679471562e-04,-9.773062616e-06,-6.777202188e-04,-3.244676593e-04,-2.244718785e-05,-3.469148471e-04,-5.829991177e-04,-5.438425613e-05,-6.373833738e-04,-2.189551961e-04,-1.793722854e-05,-2.368924247e-04,-2.668124459e-04,-1.273908102e-04,-3.942032561e-04,-4.364309938e-04,3.890463670e-06,-4.325405301e-04,-6.061001035e-04,1.025569337e-04,-5.035431698e-04,-7.802904844e-04,-1.503716700e-05,-7.953276514e-04,-4.936366382e-04,1.544224728e-04,-3.392141654e-04,-2.212444789e-04,4.623750541e-05,-1.750069735e-04,1.150383437e-04,-1.109084152e-04,4.129928484e-06,-5.097333217e-04,2.521083250e-04,-2.576249967e-04,-2.165311984e-04,-5.272017746e-05,-2.692513759e-04,-9.663224606e-04,7.299851091e-05,-8.933239497e-04,-1.068898468e-03,-2.332297938e-04,-1.302128262e-03,-9.092529316e-04,6.189941118e-05,-8.473535204e-04,7.180698681e-04,-3.163465852e-04,4.017232830e-04
-6.4,1.102280849e-04,-2.257987242e-04,-1.155706394e-04,-5.037546662e-04,1.518222936e-06,-5.022364433e-04,7.889852215e-05,-1.161393288e-04,-3.724080663e-05,-3.372143372e-04,1.988348628e-05,-3.173308509e-04,-2.307504205e-04,-5.512029441e-05,-2.858707149e-04,-5.918880473e-04,-6.606836743e-05,-6.579564148e-04,-5.537511379e-04,-8.842130946e-06,-5.625932688e-04,-7.065566654e-04,1.806311609e-05,-6.884935493e-04,-3.759112249e-04,-5.192531440e-05,-4.278365393e-04,-6.699953700e-04,6.634645815e-05,-6.036489118e-04,-3.691730872e-04,-4.192729984e-05,-4.111003870e-04,-7.737355655e-04,4.395863203e-05,-7.297769335e-04,-1.430617116e-03,5.439492018e-04,-8.866679139e-04,-7.031703317e-04,1.402404941e-04,-5.629298375e-04,-2.220083950e-04,-1.494840625e-04,-3.714924574e-04,-3.469077877e-04,-7.202764444e-05,-4.189354322e-04,-5.939561054e-04,-7.532140810e-05,-6.692775135e-04,-9.980485346e-04,3.453374720e-04,-6.527110626e-04,-8.085418067e-05,-1.778173820e-04,-2.586715627e-04,-6.348059473e-04,-9.072379076e-06,-6.438783264e-04,-3.106585073e-04,-1.857743124e-05,-3.292359385e-04,-5.555837300e-04,-5.180923202e-05,-6.073929621e-04,-2.135327808e-04,-1.338869754e-05,-2.269214783e-04,-2.937045182e-04,-1.323383361e-04,-4.260428543e-04,-4.555517739e-04,1.463438532e-05,-4.409173886e-04,-6.437658492e-04,1.215337439e-04,-5.222321053e-04,-7.897843493e-04,-4.036758597e-06,-7.938211079e-04,-4.964224221e-04,1.556528515e-04,-3.407695706e-04,-2.446362715e-04,6.232956547e-05,-1.823067061e-04,9.219004459e-05,-1.100555288e-04,-1.786548425e-05,-5.465685255e-04,2.604636411e-04,-2.861048843e-04,-2.289918082e-04,-5.047617786e-05,-2.794679861e-04,-9.286918486e-04,6.308888662e-05,-8.656029620e-04,-1.026971195e-03,-2.477698452e-04,-1.274741040e-03,-8.960430052e-04,6.856687422e-05,-8.274761310e-04,7.000457941e-04,-3.019118619e-04,3.981339323e-04
-6.3,8.056219438e-05,-2.143638472e-04,-1.338016528e-04,-4.488653727e-04,5.056211318e-06,-4.438091613e-04,6.325304088e-05,-1.092064602e-04,-4.595341930e-05,-3.017637391e-04,2.176407105e-05,-2.799996681e-04,-2.421011158e-04,-4.678467334e-05,-2.888857892e-04,-5.588633547e-04,-6.265593291e-05,-6.215192876e-04,-5.328078923e-04,-3.901735452e-06,-5.367096277e-04,-6.756832541e-04,1.630010824e-05,-6.593831458e-04,-3.668999260e-04,-4.491628320e-05,-4.118162092e-04,-6.404237147e-04,7.007763915e-05,-5.703460756e-04,-3.621301055e-04,-3.512423901e-05,-3.972543445e-04,-7.676245746e-04,4.346947582e-05,-7.241550988e-04,-1.372083967e-03,5.053702237e-04,-8.667137435e-04,-7.349907704e-04,1.524979663e-04,-5.824928040e-04,-2.512867574e-04,-1.346392996e-04,-3.859260570e-04,-3.600392298e-04,-6.213897681e-05,-4.221782066e-04,-5.816486894e-04,-7.233742501e-05,-6.539861144e-04,-9.558894671e-04,3.135589878e-04,-6.423304794e-04,-8.356116408e-05,-1.723215625e-04,-2.558827266e-04,-6.025467936e-04,-8.152808141e-06,-6.106996018e-04,-2.967292605e-04,-1.470813723e-05,-3.114373978e-04,-5.291808882e-04,-4.901397635e-05,-5.781948645e-04,-2.067761008e-04,-8.977474999e-06,-2.157535758e-04,-3.183276039e-04,-1.365839398e-04,-4.549115436e-04,-4.744358764e-04,2.552275480e-05,-4.489131216e-04,-6.803780764e-04,1.393578488e-04,-5.410202276e-04,-7.966000407e-04,5.423547484e-06,-7.911764932e-04,-5.009419911e-04,1.566099626e-04,-3.443320285e-04,-2.683249000e-04,7.714958036e-05,-1.911753197e-04,6.698042423e-05,-1.086806421e-04,-4.170021785e-05,-5.852019408e-04,2.682179145e-04,-3.169840263e-04,-2.428431240e-04,-4.818019808e-05,-2.910233221e-04,-8.927725788e-04,5.393871226e-05,-8.388338666e-04,-9.870336862e-04,-2.592588812e-04,-1.246292567e-03,-8.829438028e-04,7.455529534e-05,-8.083885074e-04,6.689655882e-04,-2.822642907e-04,3.867012975e-04
-6.2,5.086970966e-05,-2.029280764e-04,-1.520583667e-04,-3.958914258e-04,8.485237863e-06,-3.874061880e-04,4.709002134e-05,-1.021571954e-04,-5.506717403e-05,-2.675104317e-04,2.348056500e-05,-2.440298667e-04,-2.534957178e-04,-3.840675284e-05,-2.919024707e-04,-5.281356261e-04,-5.864995752e-05,-5.867855837e-04,-5.118719027e-04,8.985730358e-07,-5.109733297e-04,-6.452534416e-04,1.442744079e-05,-6.308260008e-04,-3.578546914e-04,-3.800247697e-05,-3.958571683e-04,-6.112025763e-04,7.342510674e-05,-5.377774696e-04,-3.546351253e-04,-2.842803148e-05,-3.830631567e-04,-7.609982484e-04,4.276344672e-05,-7.182348017e-04,-1.310880258e-03,4.637884010e-04,-8.470918571e-04,-7.658803795e-04,1.643641111e-04,-6.015162684e-04,-2.831279831e-04,-1.178675846e-04,-4.009955677e-04,-3.735314746e-04,-5.311802234e-05,-4.266494969e-04,-5.725882727e-04,-6.773303292e-05,-6.403213056e-04,-9.068477821e-04,2.761669564e-04,-6.306808257e-04,-8.778110789e-05,-1.676385195e-04,-2.554196274e-04,-5.713404063e-04,-6.985737794e-06,-5.783261441e-04,-2.828021689e-04,-1.083211087e-05,-2.936342797e-04,-5.038279525e-04,-4.599138729e-05,-5.498193398e-04,-1.989165745e-04,-4.712542978e-06,-2.036291175e-04,-3.407275623e-04,-1.401502097e-04,-4.808777720e-04,-4.931930295e-04,3.654514795e-05,-4.566478816e-04,-7.159320277e-04,1.560517500e-04,-5.598802776e-04,-8.006221971e-04,1.338258092e-05,-7.872396162e-04,-5.072599476e-04,1.574388206e-04,-3.498211270e-04,-2.923609144e-04,9.075701806e-05,-2.016038964e-04,3.935831848e-05,-1.067627730e-04,-6.740445455e-05,-6.253011181e-04,2.753412076e-04,-3.499599105e-04,-2.580676130e-04,-4.571080954e-05,-3.037784226e-04,-8.586309739e-04,4.554006792e-05,-8.130909060e-04,-9.493187264e-04,-2.675003598e-04,-1.216819086e-03,-8.700693991e-04,7.993770594e-05,-7.901316931e-04,6.248708397e-04,-2.580656642e-04,3.668051755e-04
-6.1,2.122583222e-05,-1.914622902e-04,-1.702364579e-04,-3.448140578e-04,1.182004130e-05,-3.329940165e-04,3.039543854e-05,-9.498362211e-05,-6.458818357e-05,-2.345108322e-04,2.504571856e-05,-2.094651137e-04,-2.649682064e-04,-2.999224138e-05,-2.949604478e-04,-4.996922518e-04,-5.405089833e-05,-5.537431502e-04,-4.910295365e-04,5.555805070e-06,-4.854737315e-04,-6.153654772e-04,1.246962578e-05,-6.028958515e-04,-3.488282457e-04,-3.119489900e-05,-3.800231447e-04,-5.824017722e-04,7.640417692e-05,-5.059975953e-04,-3.467682547e-04,-2.182286686e-05,-3.685911216e-04,-7.539915095e-04,4.193375151e-05,-7.120577580e-04,-1.248017924e-03,4.198851217e-04,-8.281328020e-04,-7.957877674e-04,1.757751976e-04,-6.200125698e-04,-3.175137268e-04,-9.921172413e-05,-4.167254509e-04,-3.872696781e-04,-4.500151715e-05,-4.322711953e-04,-5.667684847e-04,-6.156459103e-05,-6.283330757e-04,-8.516678590e-04,2.338488892e-04,-6.178189698e-04,-9.332804866e-05,-1.637889613e-04,-2.571170100e-04,-5.413354562e-04,-5.548960753e-06,-5.468844169e-04,-2.689973057e-04,-6.942257266e-06,-2.759395630e-04,-4.795470536e-04,-4.273572140e-05,-5.222827750e-04,-1.901863575e-04,-6.024185958e-07,-1.907887761e-04,-3.609599572e-04,-1.430595571e-04,-5.040195144e-04,-5.119253821e-04,4.768292883e-05,-4.642424533e-04,-7.504319656e-04,1.716610442e-04,-5.787709214e-04,-8.017978630e-04,1.991361603e-05,-7.818842470e-04,-5.154064435e-04,1.582756236e-04,-3.571308200e-04,-3.167967322e-04,1.032325016e-04,-2.135642307e-04,9.293494688e-06,-1.042845769e-04,-9.499108226e-05,-6.664770939e-04,2.817766643e-04,-3.847004296e-04,-2.746104149e-04,-4.295824951e-05,-3.175686644e-04,-8.262853605e-04,3.785235609e-05,-7.884330044e-04,-9.139917596e-04,-2.723750989e-04,-1.186366859e-03,-8.575130034e-04,8.478180926e-05,-7.727311942e-04,5.680130462e-04,-2.300978531e-04,3.379151931e-04
-6,-8.297984440e-06,-1.799362483e-04,-1.882342328e-04,-2.956064319e-04,1.507518922e-05,-2.805312427e-04,1.316012443e-05,-8.767904276e-05,-7.451891834e-05,-2.028144677e-04,2.647397907e-05,-1.763404886e-04,-2.765493292e-04,-2.154737979e-05,-2.980967090e-04,-4.734978951e-04,-4.886565704e-05,-5.223635521e-04,-4.703646189e-04,1.006887158e-05,-4.602957473e-04,-5.861132543e-04,1.045772879e-05,-5.756555255e-04,-3.398748064e-04,-2.450325443e-05,-3.643780608e-04,-5.540850990e-04,7.903184153e-05,-4.750532574e-04,-3.386149421e-04,-1.529276608e-05,-3.539077082e-04,-7.467192036e-04,4.106061785e-05,-7.056585858e-04,-1.184427218e-03,3.743235715e-04,-8.101036468e-04,-8.246599147e-04,1.866697433e-04,-6.379901714e-04,-3.543829775e-04,-7.874703299e-05,-4.331300105e-04,-4.011593509e-04,-3.779192694e-05,-4.389512779e-04,-5.641123468e-04,-5.392623338e-05,-6.180385802e-04,-7.911950889e-04,1.873768450e-04,-6.038182439e-04,-1.000730082e-04,-1.607378988e-04,-2.608109070e-04,-5.126595367e-04,-3.825659764e-06,-5.164851965e-04,-2.554325661e-04,-3.031603877e-06,-2.584641700e-04,-4.563457540e-04,-3.924278733e-05,-4.955885413e-04,-1.808161986e-04,3.345085862e-06,-1.774711128e-04,-3.790906299e-04,-1.453349104e-04,-5.244255402e-04,-5.307239662e-04,5.890834184e-05,-4.718156244e-04,-7.838923143e-04,1.862522423e-04,-5.976400720e-04,-8.001462374e-04,2.512450106e-05,-7.750217364e-04,-5.253785728e-04,1.592440775e-04,-3.661344953e-04,-3.416816474e-04,1.146716682e-04,-2.270099792e-04,-2.322381119e-05,-1.012325814e-04,-1.244563925e-04,-7.082946024e-04,2.874441913e-04,-4.208504111e-04,-2.923782994e-04,-3.982990556e-05,-3.322082049e-04,-7.957164057e-04,3.080870422e-05,-7.649077015e-04,-8.811459849e-04,-2.738503729e-04,-1.154996358e-03,-8.453471378e-04,8.914517033e-05,-7.562019675e-04,4.988600909e-04,-1.992494323e-04,2.996106586e-04
-5.9,-3.763413817e-05,-1.683190529e-04,-2.059531911e-04,-2.482339910e-04,1.826497707e-05,-2.299690139e-04,-4.619637597e-06,-8.023798123e-05,-8.485761883e-05,-1.724632983e-04,2.778110110e-05,-1.446821972e-04,-2.882653064e-04,-1.307893246e-05,-3.013442389e-04,-4.494942012e-04,-4.310779505e-05,-4.926019963e-04,-4.499572274e-04,1.443843909e-05,-4.355187883e-04,-5.575852666e-04,8.428852147e-06,-5.491564145e-04,-3.310471366e-04,-1.793570619e-05,-3.489828428e-04,-5.263078979e-04,8.132655033e-05,-4.449813476e-04,-3.302627295e-04,-8.821701902e-06,-3.390844314e-04,-7.392732037e-04,4.020732212e-05,-6.990658815e-04,-1.120948957e-03,3.277396425e-04,-7.932093141e-04,-8.524387519e-04,1.969875916e-04,-6.554511603e-04,-3.936259007e-04,-5.658122982e-05,-4.502071305e-04,-4.151301957e-04,-3.145654538e-05,-4.465867410e-04,-5.644756830e-04,-4.494641542e-05,-6.094220984e-04,-7.263525075e-04,1.375886740e-04,-5.887638335e-04,-1.079413120e-04,-1.583971734e-04,-2.663384854e-04,-4.854175209e-04,-1.803345595e-06,-4.872208665e-04,-2.422219756e-04,9.066996845e-07,-2.413152760e-04,-4.342156648e-04,-3.551011565e-05,-4.697257804e-04,-1.710317072e-04,7.123216444e-06,-1.639084908e-04,-3.951942975e-04,-1.470005589e-04,-5.421948564e-04,-5.496636772e-04,7.018387785e-05,-4.794797993e-04,-8.163343686e-04,1.999097564e-04,-6.164246121e-04,-7.957612359e-04,2.915429592e-05,-7.666069400e-04,-5.371397229e-04,1.604530190e-04,-3.766867039e-04,-3.670544155e-04,1.251788061e-04,-2.418756094e-04,-5.817971199e-05,-9.759746624e-05,-1.557771782e-04,-7.502777567e-04,2.922413670e-04,-4.580363897e-04,-3.112386428e-04,-3.625451786e-05,-3.474931607e-04,-7.668746350e-04,2.432379148e-05,-7.425508435e-04,-8.507965470e-04,-2.719851051e-04,-1.122781652e-03,-8.336193879e-04,9.307161717e-05,-7.405477707e-04,4.181037484e-04,-1.664985447e-04,2.516052037e-04
-5.8,-6.671701161e-05,-1.565797077e-04,-2.232967194e-04,-2.026521009e-04,2.140318804e-05,-1.812489129e-04,-2.293950840e-05,-7.265625769e-05,-9.559576609e-05,-1.434883889e-04,2.898361897e-05,-1.145047699e-04,-3.001338203e-04,-4.594331547e-06,-3.047281519e-04,-4.275978544e-04,-3.679713192e-05,-4.643949863e-04,-4.298798756e-04,1.866670010e-05,-4.112131755e-04,-5.298607021e-04,6.424976643e-06,-5.234357255e-04,-3.223903291e-04,-1.149869534e-05,-3.338890244e-04,-4.991112147e-04,8.330782087e-05,-4.158033938e-04,-3.217947937e-04,-2.393861202e-06,-3.241886549e-04,-7.317189712e-04,3.941890807e-05,-6.923000631e-04,-1.058320397e-03,2.807359488e-04,-7.775844482e-04,-8.790556000e-04,2.066690857e-04,-6.723865143e-04,-4.350753728e-04,-3.285323964e-05,-4.679286125e-04,-4.291342420e-04,-2.592848117e-05,-4.550627232e-04,-5.676492733e-04,-3.478305541e-05,-6.024323287e-04,-6.581176222e-04,8.536921890e-05,-5.727484033e-04,-1.169076500e-04,-1.566289904e-04,-2.735366403e-04,-4.596873639e-04,5.269385775e-07,-4.591604253e-04,-2.294723315e-04,4.879294685e-06,-2.245930369e-04,-4.131293398e-04,-3.153716077e-05,-4.446665006e-04,-1.610485761e-04,1.072656539e-05,-1.503220107e-04,-4.093515959e-04,-1.480829389e-04,-5.574345348e-04,-5.687968808e-04,8.146194902e-05,-4.873349318e-04,-8.477783785e-04,2.127319613e-04,-6.350464172e-04,-7.888062842e-04,3.216711018e-05,-7.566391740e-04,-5.506179343e-04,1.619957884e-04,-3.886221459e-04,-3.929338411e-04,1.348609511e-04,-2.580728899e-04,-9.553046233e-05,-9.337448109e-05,-1.889049434e-04,-7.919128243e-04,2.960430586e-04,-4.958697657e-04,-3.310199031e-04,-3.218388553e-05,-3.632037887e-04,-7.396826529e-04,1.830164548e-05,-7.213810074e-04,-8.228741742e-04,-2.669300155e-04,-1.089804190e-03,-8.223440614e-04,9.658923348e-05,-7.257548279e-04,3.266616634e-04,-1.328891417e-04,1.937725217e-04
-5.7,-9.547972933e-05,-1.446877275e-04,-2.401674568e-04,-1.588016544e-04,2.450267982e-05,-1.342989746e-04,-4.178345963e-05,-6.493113174e-05,-1.067145914e-04,-1.159048070e-04,3.009832705e-05,-8.580647995e-05,-3.121585919e-04,3.898056010e-06,-3.082605359e-04,-4.076976217e-04,-2.995912187e-05,-4.376567436e-04,-4.101920773e-04,2.275717871e-05,-3.874348986e-04,-5.030037656e-04,4.491705741e-06,-4.985120599e-04,-3.139345824e-04,-5.196887648e-06,-3.191314701e-04,-4.725146356e-04,8.499569036e-05,-3.875189452e-04,-3.132824674e-04,4.005912306e-06,-3.092765551e-04,-7.240934086e-04,3.872457663e-05,-6.853688320e-04,-9.971571587e-04,2.338788515e-04,-7.632783072e-04,-9.044257524e-04,2.156549881e-04,-6.887707643e-04,-4.785001814e-04,-7.730776229e-06,-4.862309576e-04,-4.431393272e-04,-2.110944242e-05,-4.642487696e-04,-5.733591808e-04,-2.361904491e-05,-5.969782258e-04,-5.875013130e-04,3.163279130e-05,-5.558685217e-04,-1.269863963e-04,-1.552528648e-04,-2.822392611e-04,-4.355146870e-04,3.170958235e-06,-4.323437288e-04,-2.172789898e-04,8.892364559e-06,-2.083866252e-04,-3.930366350e-04,-2.732557379e-05,-4.203622088e-04,-1.510678686e-04,1.415117873e-05,-1.369166898e-04,-4.216456395e-04,-1.486111489e-04,-5.702567885e-04,-5.881466363e-04,9.268504166e-05,-4.954615947e-04,-8.782327303e-04,2.248264311e-04,-6.534062993e-04,-7.795030012e-04,3.434404517e-05,-7.451589560e-04,-5.657046014e-04,1.639510471e-04,-4.017535543e-04,-4.193085387e-04,1.438227156e-04,-2.754858231e-04,-1.351954059e-04,-8.856397649e-05,-2.237593824e-04,-8.326514832e-04,2.987017327e-04,-5.339497505e-04,-3.515137747e-04,-2.759302223e-05,-3.791067969e-04,-7.140329754e-04,1.264257659e-05,-7.013903988e-04,-7.972194703e-04,-2.589229452e-04,-1.056142415e-03,-8.114926771e-04,9.971008404e-05,-7.117825931e-04,2.256653379e-04,-9.949742983e-05,1.261679081e-04
-5.6,-1.238507790e-04,-1.326136927e-04,-2.564644717e-04,-1.166042343e-04,2.757489067e-05,-8.902934363e-05,-6.112056267e-05,-5.706152276e-05,-1.181820854e-04,-8.970641625e-05,3.114182528e-05,-5.856459097e-05,-3.243245338e-04,1.238860908e-05,-3.119359247e-04,-3.896515092e-04,-2.262460827e-05,-4.122761175e-04,-3.909349635e-04,2.671458872e-05,-3.642203748e-04,-4.770577282e-04,2.677124489e-06,-4.743806037e-04,-3.056895392e-04,9.667332617e-07,-3.047228059e-04,-4.465103983e-04,8.641009788e-05,-3.601003004e-04,-3.047792360e-04,1.039152331e-05,-2.943877127e-04,-7.164042258e-04,3.814198668e-05,-6.782622391e-04,-9.379349410e-04,1.876944124e-04,-7.502405286e-04,-9.284451634e-04,2.238873269e-04,-7.045578365e-04,-5.236032387e-04,1.859319864e-05,-5.050100401e-04,-4.571198745e-04,-1.687451174e-05,-4.739943862e-04,-5.812663657e-04,-1.165855732e-05,-5.929249230e-04,-5.155297919e-04,-2.269213391e-05,-5.382219258e-04,-1.382155633e-04,-1.540570380e-04,-2.922726012e-04,-4.129079570e-04,6.131221660e-06,-4.067767353e-04,-2.057219537e-04,1.295130810e-05,-1.927706456e-04,-3.738619687e-04,-2.287948374e-05,-3.967414524e-04,-1.412723729e-04,1.739449262e-05,-1.238778803e-04,-4.321592382e-04,-1.486171184e-04,-5.807763566e-04,-6.077009095e-04,1.037865317e-04,-5.039143777e-04,-9.076833485e-04,2.363047427e-04,-6.713786058e-04,-7.681164030e-04,3.587383161e-05,-7.322425713e-04,-5.822537410e-04,1.663839477e-04,-4.158697933e-04,-4.461275853e-04,1.521617980e-04,-2.939657874e-04,-1.770514291e-04,-8.317186348e-05,-2.602232926e-04,-8.719166240e-04,3.000491258e-04,-5.718674982e-04,-3.724781234e-04,-2.248026800e-05,-3.949583914e-04,-6.897845195e-04,7.248873709e-06,-6.825356458e-04,-7.735798928e-04,-2.482803626e-04,-1.021860255e-03,-8.009869312e-04,1.024315809e-04,-6.985553503e-04,1.164308995e-04,-6.738987203e-05,4.904102745e-05
-5.5,-1.517516023e-04,-1.203297294e-04,-2.720813317e-04,-7.595839923e-05,3.062935095e-05,-4.532904828e-05,-8.090329582e-05,-4.904831712e-05,-1.299516129e-04,-6.486211249e-05,3.213011398e-05,-3.273199850e-05,-3.365949801e-04,2.086614314e-05,-3.157288370e-04,-3.732851107e-04,-1.483006866e-05,-3.881151793e-04,-3.721273550e-04,3.054466385e-05,-3.415826912e-04,-4.520400188e-04,1.030669884e-06,-4.510093489e-04,-2.976417799e-04,6.990695113e-06,-2.906510848e-04,-4.210605874e-04,8.757035013e-05,-3.334902372e-04,-2.963177554e-04,1.677500558e-05,-2.795427498e-04,-7.086304406e-04,3.768110070e-05,-6.709493399e-04,-8.809739642e-04,1.426593903e-04,-7.383145739e-04,-9.509899219e-04,2.313107347e-04,-7.196791872e-04,-5.700250374e-04,4.590458501e-05,-5.241204524e-04,-4.710471919e-04,-1.307888092e-05,-4.841260728e-04,-5.909677670e-04,8.770270193e-07,-5.900907400e-04,-4.432287077e-04,-7.667653898e-05,-5.199052467e-04,-1.506364127e-04,-1.528128795e-04,-3.034492922e-04,-3.918356931e-04,9.406701251e-06,-3.824289918e-04,-1.948631123e-04,1.706045500e-05,-1.778026573e-04,-3.555034889e-04,-1.820567804e-05,-3.737091670e-04,-1.318245542e-04,2.045515976e-05,-1.113693945e-04,-4.409735037e-04,-1.481354816e-04,-5.891089853e-04,-6.274088299e-04,1.146921915e-04,-5.127166384e-04,-9.360862844e-04,2.472772705e-04,-6.888090139e-04,-7.549385701e-04,3.694269745e-05,-7.179958726e-04,-6.000809284e-04,1.693465358e-04,-4.307343926e-04,-4.732937705e-04,1.599651328e-04,-3.133286377e-04,-2.209305300e-04,-7.720973952e-05,-2.981402695e-04,-9.091107750e-04,2.998994720e-04,-6.092113030e-04,-3.936401680e-04,-1.686747791e-05,-4.105076459e-04,-6.667610646e-04,2.029637655e-06,-6.647314269e-04,-7.516115481e-04,-2.353857975e-04,-9.869973456e-04,-7.906963514e-04,1.047391525e-04,-6.859571989e-04,4.175301693e-07,-3.758028846e-05,-3.716275829e-05
-5.4,-1.790957188e-04,-1.078099794e-04,-2.869056983e-04,-3.673803271e-05,3.367322386e-05,-3.064808851e-06,-1.010678236e-04,-4.089473247e-05,-1.419625561e-04,-4.131443323e-05,3.307824357e-05,-8.236189663e-06,-3.489115777e-04,2.931766038e-05,-3.195939173e-04,-3.583918567e-04,-6.618103367e-06,-3.650099601e-04,-3.537640621e-04,3.425393452e-05,-3.195101275e-04,-4.279392413e-04,-3.980599945e-07,-4.283373013e-04,-2.897559030e-04,1.287488861e-05,-2.768810144e-04,-3.960980645e-04,8.849480233e-05,-3.076032621e-04,-2.879102883e-04,2.316603386e-05,-2.647442545e-04,-7.007245505e-04,3.734696400e-05,-6.633775865e-04,-8.264301734e-04,9.918829425e-05,-7.272418792e-04,-9.719180845e-04,2.378734855e-04,-7.340445990e-04,-6.173506630e-04,7.397206966e-05,-5.433785933e-04,-4.848814322e-04,-9.565913328e-06,-4.944473455e-04,-6.020006603e-04,1.375476284e-05,-5.882458974e-04,-3.716077985e-04,-1.294047744e-04,-5.010125729e-04,-1.642732672e-04,-1.512900370e-04,-3.155633042e-04,-3.722264558e-04,1.299251221e-05,-3.592339436e-04,-1.847449385e-04,2.122280852e-05,-1.635221299e-04,-3.378344453e-04,-1.331366830e-05,-3.511481136e-04,-1.228661965e-04,2.333281069e-05,-9.953338579e-05,-4.481680786e-04,-1.472032636e-04,-5.953713422e-04,-6.471798032e-04,1.253223274e-04,-5.218574758e-04,-9.633652500e-04,2.578484107e-04,-7.055168392e-04,-7.402723885e-04,3.772446409e-05,-7.025479244e-04,-6.189615479e-04,1.728771135e-04,-4.460844344e-04,-5.006608258e-04,1.673058915e-04,-3.333549343e-04,-2.666210254e-04,-7.069466514e-05,-3.373156905e-04,-9.436268759e-04,2.980554248e-04,-6.455714510e-04,-4.147009474e-04,-1.079904053e-05,-4.254999879e-04,-6.447541011e-04,-3.094137531e-06,-6.478482386e-04,-7.308867188e-04,-2.206754828e-04,-9.515622016e-04,-7.804410314e-04,1.066095142e-04,-6.738315172e-04,-1.208173182e-04,-1.099418234e-05,-1.318115006e-04
-5.3,-2.057894754e-04,-9.503110990e-05,-3.008205853e-04,1.206930582e-06,3.671089083e-05,3.791782141e-05,-1.215361714e-04,-3.260665677e-05,-1.541428282e-04,-1.898079620e-05,3.400007072e-05,1.501927452e-05,-3.611966933e-04,3.772821137e-05,-3.234684820e-04,-3.447353405e-04,1.962010655e-06,-3.427733299e-04,-3.358166484e-04,3.784953215e-05,-2.979671162e-04,-4.047143598e-04,-1.560470113e-06,-4.062748300e-04,-2.819787593e-04,1.862047753e-05,-2.633582818e-04,-3.715308117e-04,8.920077193e-05,-2.823300398e-04,-2.795521310e-04,2.957164725e-05,-2.499804837e-04,-6.926170866e-04,3.714215341e-05,-6.554749331e-04,-7.742984987e-04,5.762176025e-05,-7.166767385e-04,-9.910731317e-04,2.435276347e-04,-7.475454970e-04,-6.651191423e-04,1.025504249e-04,-5.625687175e-04,-4.985666919e-04,-6.175472293e-06,-5.047421642e-04,-6.138505124e-04,2.673697393e-05,-5.871135385e-04,-3.016462228e-04,-1.799897600e-04,-4.816359828e-04,-1.791177587e-04,-1.492705760e-04,-3.283883347e-04,-3.539717377e-04,1.687967093e-05,-3.370920668e-04,-1.753905921e-04,2.543971123e-05,-1.499508809e-04,-3.207064552e-04,-8.215727783e-06,-3.289221830e-04,-1.145195135e-04,2.602779711e-05,-8.849171642e-05,-4.538227793e-04,-1.458594902e-04,-5.996822695e-04,-6.668861011e-04,1.355945641e-04,-5.312915370e-04,-9.894140497e-04,2.681126911e-04,-7.213013586e-04,-7.244176092e-04,3.837259757e-05,-6.860450116e-04,-6.386298065e-04,1.769991522e-04,-4.616306543e-04,-5.280352186e-04,1.742415400e-04,-3.537936786e-04,-3.138715904e-04,-6.364918021e-05,-3.775207706e-04,-9.748614306e-04,2.943176929e-04,-6.805437377e-04,-4.353427206e-04,-4.338694417e-06,-4.396814150e-04,-6.235303415e-04,-8.183852198e-06,-6.317141937e-04,-7.109066982e-04,-2.046215144e-04,-9.155282126e-04,-7.699989690e-04,1.080139023e-04,-6.619850667e-04,-2.456605548e-04,1.155898449e-05,-2.341015703e-04
-5.2,-2.317342144e-04,-8.197280187e-05,-3.137070163e-04,3.804761207e-05,3.974361803e-05,7.779123010e-05,-1.422198097e-04,-2.419287728e-05,-1.664126870e-04,2.242993691e-06,3.490814877e-05,3.715114247e-05,-3.733576949e-04,4.608090598e-05,-3.272767889e-04,-3.320534284e-04,1.085389234e-05,-3.211995361e-04,-3.182363810e-04,4.133907209e-05,-2.768973089e-04,-3.822957205e-04,-2.410091662e-06,-3.847058122e-04,-2.742457777e-04,2.422982556e-05,-2.500159521e-04,-3.472486470e-04,8.970459247e-05,-2.575440546e-04,-2.712270028e-04,3.599615785e-05,-2.352308449e-04,-6.842232046e-04,3.706950404e-05,-6.471537006e-04,-7.244282142e-04,1.821898147e-05,-7.062092327e-04,-1.008288516e-03,2.482283078e-04,-7.600602080e-04,-7.128347877e-04,1.313834081e-04,-5.814513797e-04,-5.120296264e-04,-2.751349990e-06,-5.147809764e-04,-6.259613037e-04,3.958779830e-05,-5.863735054e-04,-2.342795482e-04,-2.275887113e-04,-4.618682595e-04,-1.951200928e-04,-1.465601083e-04,-3.416802011e-04,-3.369313201e-04,2.105508319e-05,-3.158762369e-04,-1.668052182e-04,2.971043773e-05,-1.370947805e-04,-3.039540111e-04,-2.926931651e-06,-3.068809428e-04,-1.068892723e-04,2.854099700e-05,-7.834827530e-05,-4.580201026e-04,-1.441448066e-04,-6.021649091e-04,-6.863687181e-04,1.454272645e-04,-5.409414535e-04,-1.014102099e-03,2.781519314e-04,-7.359501676e-04,-7.076617149e-04,3.901648894e-05,-6.686452260e-04,-6.587810463e-04,1.817205849e-04,-4.770604614e-04,-5.551819798e-04,1.808130378e-04,-3.743689420e-04,-3.623965016e-04,-5.610218232e-05,-4.184986839e-04,-1.002229807e-03,2.884976096e-04,-7.137321973e-04,-4.552396384e-04,2.435639665e-06,-4.528039987e-04,-6.028417173e-04,-1.327841717e-05,-6.161201345e-04,-6.911192561e-04,-1.877131647e-04,-8.788324209e-04,-7.591168068e-04,1.089209847e-04,-6.501958220e-04,-3.724832991e-04,2.940898502e-05,-3.430743141e-04
-5.1,-2.568294152e-04,-6.861812003e-05,-3.254475352e-04,7.397177028e-05,4.276930622e-05,1.167410765e-04,-1.630238824e-04,-1.566517190e-05,-1.786890543e-04,2.247782379e-05,3.581369305e-05,5.829151684e-05,-3.852921469e-04,5.435706153e-05,-3.309350854e-04,-3.200635580e-04,1.999409688e-05,-3.000694611e-04,-3.009585526e-04,4.473053730e-05,-2.562280153e-04,-3.605874072e-04,-2.903853895e-06,-3.634912611e-04,-2.664879026e-04,2.970639403e-05,-2.367815086e-04,-3.231308366e-04,9.002170658e-05,-2.331091300e-04,-2.629130016e-04,4.244117775e-05,-2.204718239e-04,-6.754502808e-04,3.713513462e-05,-6.383151462e-04,-6.765435748e-04,-1.884795740e-05,-6.953915322e-04,-1.023392774e-03,2.519327106e-04,-7.714600635e-04,-7.599801865e-04,1.602070815e-04,-5.997731049e-04,-5.251807342e-04,8.529425463e-07,-5.243277917e-04,-6.377476233e-04,5.207877938e-05,-5.856688439e-04,-1.703877914e-04,-2.714184281e-04,-4.418062195e-04,-2.121875766e-04,-1.429938742e-04,-3.551814508e-04,-3.209401312e-04,2.550191348e-05,-2.954382177e-04,-1.589780908e-04,3.403187412e-05,-1.249462167e-04,-2.873994447e-04,2.534877941e-06,-2.848645668e-04,-1.000652951e-04,3.087375693e-05,-6.919153819e-05,-4.608478338e-04,-1.421011582e-04,-6.029489921e-04,-7.054451542e-04,1.547432332e-04,-5.507019209e-04,-1.037280661e-03,2.880332347e-04,-7.492474268e-04,-6.902767634e-04,3.976323858e-05,-6.505135248e-04,-6.790786409e-04,1.870338959e-04,-4.920447450e-04,-5.818331434e-04,1.870451715e-04,-3.947879719e-04,-4.118806490e-04,-4.809042236e-05,-4.599710713e-04,-1.025183161e-03,2.804309518e-04,-7.447522097e-04,-4.740704534e-04,9.438030310e-06,-4.646324231e-04,-5.824345769e-04,-1.839244888e-05,-6.008270258e-04,-6.709397312e-04,-1.704375453e-04,-8.413772765e-04,-7.475214375e-04,1.092990215e-04,-6.382224159e-04,-4.996762910e-04,4.204329896e-05,-4.576329921e-04
-5,-2.809761114e-04,-5.495374379e-05,-3.359298552e-04,1.091788105e-04,4.578227920e-05,1.549610897e-04,-1.838511604e-04,-7.038275209e-06,-1.908894356e-04,4.185610518e-05,3.672649081e-05,7.858259600e-05,-3.968927630e-04,6.253642706e-05,-3.343563360e-04,-3.084683423e-04,2.931284121e-05,-2.791555011e-04,-2.839069596e-04,4.803202751e-05,-2.358749321e-04,-3.394703874e-04,-3.003669973e-06,-3.424740574e-04,-2.586374483e-04,3.505462123e-05,-2.235828271e-04,-2.990529067e-04,9.016675553e-05,-2.088861512e-04,-2.545875345e-04,4.890572588e-05,-2.056818086e-04,-6.662055271e-04,3.735166332e-05,-6.288538638e-04,-6.302652207e-04,-5.349820357e-05,-6.837634243e-04,-1.036214209e-03,2.545994583e-04,-7.816147505e-04,-8.060294743e-04,1.887540804e-04,-6.172753939e-04,-5.379165361e-04,4.769966801e-06,-5.331465693e-04,-6.486084037e-04,6.399409653e-05,-5.846143072e-04,-1.107822312e-04,-3.107696691e-04,-4.215519004e-04,-2.301874418e-04,-1.384379775e-04,-3.686254192e-04,-3.058151184e-04,3.020029249e-05,-2.756148259e-04,-1.518849806e-04,3.839841371e-05,-1.134865669e-04,-2.708574375e-04,8.149255659e-06,-2.627081819e-04,-9.412456690e-05,3.302798795e-05,-6.109657895e-05,-4.624008921e-04,-1.397715960e-04,-6.021724881e-04,-7.239172757e-04,1.634728738e-04,-5.604444019e-04,-1.058788032e-03,2.978075092e-04,-7.609805224e-04,-6.725203125e-04,4.070327745e-05,-6.318170350e-04,-6.991636808e-04,1.929165367e-04,-5.062471441e-04,-6.076968429e-04,1.929474823e-04,-4.147493606e-04,-4.619834724e-04,-3.965987738e-05,-5.016433497e-04,-1.043225767e-03,2.699917933e-04,-7.732339738e-04,-4.915313739e-04,1.658097679e-05,-4.749503972e-04,-5.620554620e-04,-2.351863537e-05,-5.855740973e-04,-6.497732198e-04,-1.532616655e-04,-8.030348853e-04,-7.349293367e-04,1.091167976e-04,-6.258125391e-04,-6.256769851e-04,4.911772557e-05,-5.765592595e-04
-4.9,-3.040796867e-04,-4.097011333e-05,-3.450498001e-04,1.438753690e-04,4.877308814e-05,1.926484571e-04,-2.046047320e-04,1.670296827e-06,-2.029344352e-04,6.051764806e-05,3.765464518e-05,9.817229324e-05,-4.080508167e-04,7.059741854e-05,-3.374533982e-04,-2.969604428e-04,3.873536596e-05,-2.582250768e-04,-2.669971818e-04,5.125130623e-05,-2.157458756e-04,-3.188056577e-04,-2.678175342e-06,-3.214838330e-04,-2.506311190e-04,4.027982185e-05,-2.103512972e-04,-2.748908609e-04,9.015363479e-05,-1.847372261e-04,-2.462295702e-04,5.538638299e-05,-1.908431872e-04,-6.564023697e-04,3.774153576e-05,-6.186608339e-04,-5.851353020e-04,-8.573973263e-05,-6.708750346e-04,-1.046583773e-03,2.561884973e-04,-7.903952760e-04,-8.504592843e-04,2.167581517e-04,-6.337011327e-04,-5.501209074e-04,9.115298908e-06,-5.410056085e-04,-6.579412471e-04,7.513579401e-05,-5.828054531e-04,-5.618861258e-05,-3.450204243e-04,-4.012090369e-04,-2.489493884e-04,-1.327885103e-04,-3.817378987e-04,-2.913603020e-04,3.512799658e-05,-2.562323054e-04,-1.454898253e-04,4.280199538e-05,-1.026878300e-04,-2.541380642e-04,1.389337144e-05,-2.402446928e-04,-8.913215509e-05,3.500636834e-05,-5.412578675e-05,-4.627815115e-04,-1.372002269e-04,-5.999817384e-04,-7.415775855e-04,1.715559783e-04,-5.700216072e-04,-1.078452299e-03,3.075082277e-04,-7.709440716e-04,-6.546355604e-04,4.191585543e-05,-6.127197050e-04,-7.186633750e-04,1.993305832e-04,-5.193327918e-04,-6.324652416e-04,1.985148217e-04,-4.339504199e-04,-5.123412138e-04,-3.086676081e-05,-5.432079746e-04,-1.055930142e-03,2.571051360e-04,-7.988250063e-04,-5.073471904e-04,2.378203258e-05,-4.835651578e-04,-5.414520291e-04,-2.863379258e-05,-5.700858216e-04,-6.270343495e-04,-1.366180095e-04,-7.636523590e-04,-7.210516136e-04,1.083436999e-04,-6.127079138e-04,-7.489861931e-04,5.045610163e-05,-6.985300915e-04
-4.8,-3.260511605e-04,-2.666151779e-05,-3.527126783e-04,1.782725540e-04,5.172839447e-05,2.300009485e-04,-2.251886211e-04,1.044061049e-05,-2.147480106e-04,7.860770411e-05,3.860414836e-05,1.172118525e-04,-4.186569027e-04,7.851732615e-05,-3.401395765e-04,-2.852258460e-04,4.818372128e-05,-2.370421247e-04,-2.501375984e-04,5.439519298e-05,-1.957424054e-04,-2.984365084e-04,-1.904163904e-06,-3.003406723e-04,-2.424090188e-04,4.538809672e-05,-1.970209220e-04,-2.505214942e-04,8.999544761e-05,-1.605260466e-04,-2.378180846e-04,6.187741415e-05,-1.759406705e-04,-6.459636360e-04,3.833981879e-05,-6.076238172e-04,-5.406498203e-04,-1.156558852e-04,-6.563057055e-04,-1.054335281e-03,2.566616242e-04,-7.976736572e-04,-8.927550319e-04,2.439576816e-04,-6.487973504e-04,-5.616646413e-04,1.398541551e-05,-5.476792258e-04,-6.651552683e-04,8.532852156e-05,-5.798267467e-04,-7.226303776e-06,-3.736480987e-04,-3.808744025e-04,-2.682651192e-04,-1.259710984e-04,-3.942362176e-04,-2.773686287e-04,4.026069294e-05,-2.371079357e-04,-1.397448661e-04,4.723209186e-05,-9.251277427e-05,-2.370476415e-04,1.974215078e-05,-2.173054907e-04,-8.514050462e-05,3.681257034e-05,-4.832793428e-05,-4.620971344e-04,-1.344321916e-04,-5.965293260e-04,-7.582128154e-04,1.789421091e-04,-5.792707063e-04,-1.096090467e-03,3.171499988e-04,-7.789404684e-04,-6.368459639e-04,4.347126681e-05,-5.933746971e-04,-7.371946825e-04,2.062208797e-04,-5.309738028e-04,-6.558204461e-04,2.037273438e-04,-4.520931024e-04,-5.625670743e-04,-2.177838587e-05,-5.843454602e-04,-1.062947589e-03,2.417568343e-04,-8.211907544e-04,-5.212791004e-04,3.097045891e-05,-4.903086415e-04,-5.203683492e-04,-3.370755271e-05,-5.540759019e-04,-6.021622041e-04,-1.208942965e-04,-7.230565006e-04,-7.055947296e-04,1.069501975e-04,-5.986445321e-04,-8.681757560e-04,4.603792863e-05,-8.221378274e-04
-4.7,-3.468065445e-04,-1.202609418e-05,-3.588326387e-04,2.125853369e-04,5.463106553e-05,2.672164025e-04,-2.455062322e-04,1.925086009e-05,-2.262553722e-04,9.627759187e-05,3.957837525e-05,1.358559671e-04,-4.285988876e-04,8.627246808e-05,-3.423264195e-04,-2.729451599e-04,5.757854973e-05,-2.153666102e-04,-2.332279428e-04,5.746892304e-05,-1.757590198e-04,-2.781894642e-04,-6.674048637e-07,-2.788568691e-04,-2.339100906e-04,5.038618056e-05,-1.835239100e-04,-2.258190530e-04,8.970429436e-05,-1.361147586e-04,-2.293271290e-04,6.837075882e-05,-1.609563702e-04,-6.348200773e-04,3.919528974e-05,-5.956247876e-04,-4.962956272e-04,-1.433822958e-04,-6.396779229e-04,-1.059303269e-03,2.559834349e-04,-8.033198339e-04,-9.324127627e-04,2.700979262e-04,-6.623148365e-04,-5.724030280e-04,1.945644069e-05,-5.529465873e-04,-6.696808310e-04,9.442313981e-05,-5.752576912e-04,3.561390924e-05,-3.962404856e-04,-3.606265764e-04,-2.878850246e-04,-1.179413251e-04,-4.058263497e-04,-2.636207541e-04,4.557171306e-05,-2.180490410e-04,-1.345891525e-04,5.167557824e-05,-8.291357421e-05,-2.193876000e-04,2.566828705e-05,-1.937193129e-04,-8.218743064e-05,3.845141344e-05,-4.373601720e-05,-4.604562652e-04,-1.315134289e-04,-5.919696941e-04,-7.736046956e-04,1.855903449e-04,-5.880143506e-04,-1.111503822e-03,3.267266409e-04,-7.847771808e-04,-6.193436437e-04,4.542997636e-05,-5.739136673e-04,-7.543624943e-04,2.135115932e-04,-5.408509011e-04,-6.774387550e-04,2.085508917e-04,-4.688878633e-04,-6.122498007e-04,-1.247383854e-05,-6.247236392e-04,-1.064014041e-03,2.240001894e-04,-8.400138511e-04,-5.331282688e-04,3.809286542e-05,-4.950354033e-04,-4.985351236e-04,-3.871236045e-05,-5.372474840e-04,-5.746297927e-04,-1.064266002e-04,-6.810563929e-04,-6.882586018e-04,1.049098508e-04,-5.833487510e-04,-9.818919831e-04,3.597790191e-05,-9.459140812e-04
-4.6,-3.662647042e-04,2.934285084e-06,-3.633304191e-04,2.470335618e-04,5.746056748e-05,3.044941293e-04,-2.654575294e-04,2.807799137e-05,-2.373795380e-04,1.136871610e-04,4.057760027e-05,1.542647613e-04,-4.377582602e-04,9.383826765e-05,-3.439199925e-04,-2.597933527e-04,6.684041248e-05,-1.929529402e-04,-2.161563297e-04,6.047560168e-05,-1.556807280e-04,-2.578741520e-04,1.036974963e-06,-2.568371771e-04,-2.250661884e-04,5.528117724e-05,-1.697850112e-04,-2.006502832e-04,8.929092985e-05,-1.113593534e-04,-2.207196844e-04,7.485586906e-05,-1.458638154e-04,-6.229049432e-04,4.036915667e-05,-5.825357865e-04,-4.515859167e-04,-1.690802852e-04,-6.206662018e-04,-1.061319902e-03,2.541224111e-04,-8.071974907e-04,-9.689392518e-04,2.949328152e-04,-6.740064366e-04,-5.821717684e-04,2.558350194e-05,-5.565882664e-04,-6.709756864e-04,1.022985533e-04,-5.686771332e-04,7.198959308e-05,-4.125053835e-04,-3.405157904e-04,-3.075143882e-04,-1.086845842e-04,-4.161989723e-04,-2.498824142e-04,5.103160605e-05,-1.988508081e-04,-1.299462315e-04,5.611660387e-05,-7.382962761e-05,-2.009526535e-04,3.164219898e-05,-1.693104545e-04,-8.029379469e-05,3.992886272e-05,-4.036493197e-05,-4.579635362e-04,-1.284900718e-04,-5.864536080e-04,-7.875288213e-04,1.914690796e-04,-5.960597417e-04,-1.124471724e-03,3.362091282e-04,-7.882625959e-04,-6.022753152e-04,4.784131901e-05,-5.544339962e-04,-7.697544968e-04,2.211016020e-04,-5.486528948e-04,-6.969944332e-04,2.129388891e-04,-4.840555441e-04,-6.609524842e-04,-3.044025301e-06,-6.639965095e-04,-1.058952807e-03,2.039596989e-04,-8.549931079e-04,-5.427354643e-04,4.511659995e-05,-4.976188644e-04,-4.756579450e-04,-4.363277165e-05,-5.192907167e-04,-5.439486054e-04,-9.349477876e-05,-6.374433841e-04,-6.687348124e-04,1.022030304e-04,-5.665317820e-04,-1.088860926e-03,2.050523454e-05,-1.068355692e-03
-4.5,-3.843448139e-04,1.821417413e-05,-3.661306398e-04,2.818432772e-04,6.019357026e-05,3.420368475e-04,-2.849363743e-04,3.689827552e-05,-2.480380988e-04,1.310074634e-04,4.159862673e-05,1.726060902e-04,-4.460067807e-04,1.011892625e-04,-3.448175182e-04,-2.454392997e-04,7.589072533e-05,-1.695485744e-04,-1.987963451e-04,6.341584555e-05,-1.353804995e-04,-2.372828546e-04,3.204088420e-06,-2.340787662e-04,-2.157973746e-04,6.008021949e-05,-1.557171551e-04,-1.748704896e-04,8.876442376e-05,-8.610606583e-05,-2.119428593e-04,8.131950165e-05,-1.306233577e-04,-6.101471240e-04,4.193165985e-05,-5.682154641e-04,-4.060891423e-04,-1.929137499e-04,-5.990028922e-04,-1.060212677e-03,2.510520442e-04,-8.091606332e-04,-1.001852785e-03,3.182268403e-04,-6.836259447e-04,-5.907825511e-04,3.240057066e-05,-5.583819804e-04,-6.685280255e-04,1.088610871e-04,-5.596669385e-04,1.017217750e-04,-4.222788210e-04,-3.205570461e-04,-3.268128359e-04,-9.821311815e-05,-4.250259540e-04,-2.359023967e-04,5.660762808e-05,-1.792947687e-04,-1.257221471e-04,6.053659709e-05,-6.518555006e-05,-1.815298072e-04,3.763202331e-05,-1.438977839e-04,-7.946189696e-05,4.125184153e-05,-3.821005543e-05,-4.547154904e-04,-1.254075272e-04,-5.801230176e-04,-7.997529686e-04,1.965557597e-04,-6.031972089e-04,-1.134747237e-03,3.455443043e-04,-7.892029330e-04,-5.857300412e-04,5.074370847e-05,-5.349863328e-04,-7.829359343e-04,2.288596292e-04,-5.540763051e-04,-7.141645634e-04,2.168364063e-04,-4.973281571e-04,-7.082138414e-04,6.409370349e-06,-7.018044711e-04,-1.047675641e-03,1.818323208e-04,-8.658433202e-04,-5.499786315e-04,5.203055774e-05,-4.979480737e-04,-4.514080981e-04,-4.847206445e-05,-4.998801626e-04,-5.096695774e-04,-8.231953254e-05,-5.919891099e-04,-6.467073504e-04,9.882166456e-05,-5.478856858e-04,-1.187897786e-03,-5.294373343e-08,-1.187950730e-03
-4.4,-4.009645007e-04,3.380465321e-05,-3.671598475e-04,3.172470716e-04,6.280458084e-05,3.800516524e-04,-3.038291603e-04,4.568778809e-05,-2.581413722e-04,1.484220103e-04,4.263463828e-05,1.910566486e-04,-4.532049096e-04,1.082991170e-04,-3.449057926e-04,-2.295468363e-04,8.465286683e-05,-1.448939695e-04,-1.810056182e-04,6.628766983e-05,-1.147179484e-04,-2.161907556e-04,5.818750655e-06,-2.103720049e-04,-2.060100781e-04,6.479013297e-05,-1.412199451e-04,-1.483224257e-04,8.813195908e-05,-6.019046666e-05,-2.029260399e-04,8.774561865e-05,-1.151804213e-04,-5.964652269e-04,4.395731834e-05,-5.525079086e-04,-3.594488309e-04,-2.150348322e-04,-5.744836631e-04,-1.055804299e-03,2.467522166e-04,-8.090520827e-04,-1.030685539e-03,3.397565577e-04,-6.909289812e-04,-5.980204072e-04,3.992098717e-05,-5.580994200e-04,-6.618579869e-04,1.140413647e-04,-5.478166222e-04,1.248040250e-04,-4.255305904e-04,-3.007265653e-04,-3.453995113e-04,-8.655941857e-05,-4.319589299e-04,-2.214124805e-04,6.226315602e-05,-1.591493245e-04,-1.218045538e-04,6.491438923e-05,-5.689016452e-05,-1.608992048e-04,4.360365221e-05,-1.172955526e-04,-7.967520073e-05,4.242789597e-05,-3.724730476e-05,-4.507980564e-04,-1.223093861e-04,-5.731074424e-04,-8.100358275e-04,2.008358846e-04,-6.091999429e-04,-1.142056826e-03,3.546548146e-04,-7.874020119e-04,-5.697305161e-04,5.416588953e-05,-5.155646265e-04,-7.934469875e-04,2.366204870e-04,-5.568265005e-04,-7.286361495e-04,2.201865379e-04,-5.084496115e-04,-7.535536758e-04,1.577633248e-05,-7.377773433e-04,-1.030182522e-03,1.578854143e-04,-8.722971076e-04,-5.547706369e-04,5.884366177e-05,-4.959269751e-04,-4.254188719e-04,-5.325552433e-05,-4.786743963e-04,-4.713828364e-04,-7.306044183e-05,-5.444432783e-04,-6.218571482e-04,9.477424655e-05,-5.270829016e-04,-1.277917609e-03,-2.528520585e-05,-1.303202815e-03
-4.3,-4.160393771e-04,4.969333965e-05,-3.663460374e-04,3.534825285e-04,6.526653645e-05,4.187490649e-04,-3.220152502e-04,5.442284448e-05,-2.675924058e-04,1.661256735e-04,4.367536206e-05,2.098010355e-04,-4.592026451e-04,1.151407507e-04,-3.440618944e-04,-2.117783069e-04,9.305378170e-05,-1.187245252e-04,-1.626266792e-04,6.908663778e-05,-9.354004147e-05,-1.943578898e-04,8.855194686e-06,-1.855026951e-04,-1.955985894e-04,6.941715448e-05,-1.261814349e-04,-1.208386679e-04,8.739880796e-05,-3.343985996e-05,-1.935824414e-04,9.411549228e-05,-9.946694912e-05,-5.817638488e-04,4.651968547e-05,-5.352441633e-04,-3.113949027e-04,-2.355789802e-04,-5.469738829e-04,-1.047915321e-03,2.412109442e-04,-8.067043769e-04,-1.054988158e-03,3.593112960e-04,-6.956768623e-04,-6.036442719e-04,4.813862930e-05,-5.555056426e-04,-6.505198684e-04,1.177899685e-04,-5.327298999e-04,1.414031478e-04,-4.223639676e-04,-2.809608199e-04,-3.628633184e-04,-7.376752296e-05,-4.366308414e-04,-2.061299657e-04,6.795710203e-05,-1.381728637e-04,-1.180633392e-04,6.922639017e-05,-4.883694904e-05,-1.388371250e-04,4.952078994e-05,-8.931633505e-05,-8.089956204e-05,4.346481668e-05,-3.743474536e-05,-4.462860216e-04,-1.192362935e-04,-5.655223151e-04,-8.181268080e-04,2.043008902e-04,-6.138259177e-04,-1.146104429e-03,3.634400148e-04,-7.826644137e-04,-5.542273812e-04,5.812767036e-05,-4.960997109e-04,-8.008044926e-04,2.441838706e-04,-5.566206220e-04,-7.401155975e-04,2.229382865e-04,-5.171773110e-04,-7.964827955e-04,2.494242691e-05,-7.715403686e-04,-1.006559669e-03,1.324501756e-04,-8.741094930e-04,-5.570584982e-04,6.558134727e-05,-4.914771509e-04,-3.972880935e-04,-5.803087374e-05,-4.553189672e-04,-4.287193275e-04,-6.581424776e-05,-4.945335753e-04,-5.938705142e-04,9.009058105e-05,-5.037799331e-04,-1.357946252e-03,-5.470599800e-05,-1.412652250e-03
-4.2,-4.294842690e-04,6.586441318e-05,-3.636198558e-04,3.907884149e-04,6.755146835e-05,4.583398833e-04,-3.393692222e-04,6.308046114e-05,-2.762887610e-04,1.843210572e-04,4.470751951e-05,2.290285767e-04,-4.638427311e-04,1.216866607e-04,-3.421560704e-04,-1.918003285e-04,1.010257428e-04,-9.077458570e-05,-1.434902569e-04,7.180622440e-05,-7.168403247e-05,-1.715334699e-04,1.227750332e-05,-1.592559666e-04,-1.844495131e-04,7.396672061e-05,-1.104827925e-04,-9.224716421e-05,8.656845372e-05,-5.678710486e-06,-1.838136479e-04,1.004080252e-04,-8.340562273e-05,-5.659323155e-04,4.968607662e-05,-5.162462388e-04,-2.617492834e-04,-2.546656561e-04,-5.164149395e-04,-1.036369214e-03,2.344261647e-04,-8.019430489e-04,-1.074337147e-03,3.766935316e-04,-6.976436150e-04,-6.073908326e-04,5.702927631e-05,-5.503615563e-04,-6.341068565e-04,1.200738173e-04,-5.140330392e-04,1.518494745e-04,-4.130074696e-04,-2.611579951e-04,-3.787762203e-04,-5.988425346e-05,-4.386604737e-04,-1.897628649e-04,7.364362135e-05,-1.161192435e-04,-1.143528571e-04,7.344683911e-05,-4.090601797e-05,-1.151209318e-04,5.534507130e-05,-5.977586049e-05,-8.308577383e-05,4.437034364e-05,-3.871543018e-05,-4.412443380e-04,-1.162248648e-04,-5.574692028e-04,-8.237675959e-04,2.069453043e-04,-6.168222916e-04,-1.146579403e-03,3.717777306e-04,-7.748016725e-04,-5.390951896e-04,6.263860830e-05,-4.764565813e-04,-8.045086348e-04,2.513165786e-04,-5.531920562e-04,-7.483395758e-04,2.250542664e-04,-5.232853094e-04,-8.365160937e-04,3.379389051e-05,-8.027222032e-04,-9.769755493e-04,1.059110772e-04,-8.710644721e-04,-5.568242004e-04,7.228090140e-05,-4.845432990e-04,-3.665864110e-04,-6.286628837e-05,-4.294526994e-04,-3.813563047e-04,-6.061321459e-05,-4.419695193e-04,-5.624505973e-04,8.482545559e-05,-4.776251417e-04,-1.427136335e-03,-8.775775786e-05,-1.514894093e-03
-4.1,-4.412160549e-04,8.229877150e-05,-3.589172834e-04,4.293987676e-04,6.963132977e-05,4.990300973e-04,-3.557645306e-04,7.163885397e-05,-2.841256767e-04,2.032127689e-04,4.571542894e-05,2.489281978e-04,-4.669657089e-04,1.279094362e-04,-3.390562727e-04,-1.692905139e-04,1.085075767e-04,-6.078293724e-05,-1.234205725e-04,7.443828272e-05,-4.898228981e-05,-1.474625849e-04,1.604094695e-05,-1.314216379e-04,-1.724481628e-04,7.844334713e-05,-9.400481567e-05,-6.237894199e-05,8.564283812e-05,2.326389613e-05,-1.735161059e-04,1.066002632e-04,-6.691584271e-05,-5.488455395e-04,5.351223462e-05,-4.953333049e-04,-2.104280173e-04,-2.724006973e-04,-4.828287146e-04,-1.020998795e-03,2.264071397e-04,-7.945916555e-04,-1.088344602e-03,3.917197312e-04,-6.966248707e-04,-6.089810657e-04,6.655191540e-05,-5.424291503e-04,-6.122584456e-04,1.208741642e-04,-4.913842814e-04,1.566182806e-04,-3.977999477e-04,-2.411816671e-04,-3.927079402e-04,-4.495171563e-05,-4.376596558e-04,-1.720172545e-04,7.927241076e-05,-9.274484373e-05,-1.105155617e-04,7.754823613e-05,-3.296732561e-05,-8.953537909e-05,6.103635384e-05,-2.849902525e-05,-8.617291884e-05,4.515202189e-05,-4.102089695e-05,-4.357307513e-04,-1.133067229e-04,-5.490374742e-04,-8.266957010e-04,2.087639430e-04,-6.179317580e-04,-1.143167635e-03,3.795271941e-04,-7.636404407e-04,-5.241294065e-04,6.769384287e-05,-4.564355636e-04,-8.040540058e-04,2.577579834e-04,-5.462960224e-04,-7.530854052e-04,2.265164494e-04,-5.265689559e-04,-8.731868071e-04,4.222323199e-05,-8.309635751e-04,-9.416754315e-04,7.869351636e-05,-8.629819152e-04,-5.540860135e-04,7.898665479e-05,-4.750993587e-04,-3.328700463e-04,-6.784638357e-05,-4.007164299e-04,-3.290260856e-04,-5.742456303e-05,-3.864506487e-04,-5.273302184e-04,7.905990311e-05,-4.482703153e-04,-1.484791818e-03,-1.238026185e-04,-1.608594436e-03
-4,-4.511576369e-04,9.897434192e-05,-3.521832949e-04,4.695356121e-04,7.147891319e-05,5.410145253e-04,-3.710778787e-04,8.007794060e-05,-2.909999381e-04,2.230004352e-04,4.668162338e-05,2.696820585e-04,-4.684158823e-04,1.337823931e-04,-3.346334892e-04,-1.439437193e-04,1.154448024e-04,-2.849891691e-05,-1.022417439e-04,7.697350272e-05,-2.526824120e-05,-1.218943930e-04,2.009405239e-05,-1.018003406e-04,-1.594854859e-04,8.285062383e-05,-7.663486205e-05,-3.107648636e-05,8.462272602e-05,5.354623965e-05,-1.625881641e-04,1.126680783e-04,-4.992008576e-05,-5.303667055e-04,5.803721085e-05,-4.723294947e-04,-1.574415341e-04,-2.888769610e-04,-4.463184951e-04,-1.001652717e-03,2.171753008e-04,-7.844774161e-04,-1.096668520e-03,4.042219890e-04,-6.924465306e-04,-6.081284204e-04,7.665001523e-05,-5.314784052e-04,-5.846691159e-04,1.201856889e-04,-4.644834270e-04,1.563073428e-04,-3.771723881e-04,-2.208650453e-04,-4.042401269e-04,-2.900216065e-05,-4.332422876e-04,-1.526056719e-04,8.478960985e-05,-6.781606202e-05,-1.063864850e-04,8.150199124e-05,-2.488449380e-05,-6.187934120e-05,6.655323541e-05,4.673894211e-06,-9.009182963e-05,4.581720475e-05,-4.427462488e-05,-4.297990077e-04,-1.105077460e-04,-5.403067537e-04,-8.266493625e-04,2.097497284e-04,-6.168996341e-04,-1.135564234e-03,3.865332652e-04,-7.490309686e-04,-5.090463707e-04,7.326871409e-05,-4.357776566e-04,-7.989434143e-04,2.632276568e-04,-5.357157575e-04,-7.541787805e-04,2.273287817e-04,-5.268499988e-04,-9.060601472e-04,5.013459822e-05,-8.559255489e-04,-9.009749304e-04,5.125123065e-05,-8.497236997e-04,-5.488979113e-04,8.574494168e-05,-4.631529696e-04,-2.956958587e-04,-7.306679045e-05,-3.687626492e-04,-2.715259816e-04,-5.615221561e-05,-3.276781972e-04,-4.882840307e-04,7.289914810e-05,-4.153848826e-04,-1.530395465e-03,-1.621087049e-04,-1.692504170e-03
-3.9,-4.592422564e-04,1.158665128e-04,-3.433757435e-04,5.114014155e-04,7.306872341e-05,5.844701389e-04,-3.851933936e-04,8.837983920e-05,-2.968135544e-04,2.438715490e-04,4.758743510e-05,2.914589841e-04,-4.680470065e-04,1.392802561e-04,-3.287667505e-04,-1.154768520e-04,1.217886271e-04,6.311775094e-06,-7.978418777e-05,7.940181178e-05,-3.823759889e-07,-9.459014656e-05,2.438084803e-05,-7.020929853e-05,-1.454639082e-04,8.719132044e-05,-5.827258781e-05,1.798967095e-06,8.350812912e-05,8.530709621e-05,-1.509360659e-04,1.185869644e-04,-3.234910157e-05,-5.103516757e-04,6.327957668e-05,-4.470720991e-04,-1.028944880e-04,-3.041699514e-04,-4.070644395e-04,-9.782007764e-04,2.067646159e-04,-7.714361605e-04,-1.099021389e-03,4.140502121e-04,-6.849711773e-04,-6.045470956e-04,8.725279773e-05,-5.172942979e-04,-5.510963720e-04,1.180160976e-04,-4.330802744e-04,1.516156136e-04,-3.516295052e-04,-2.000138916e-04,-4.129777858e-04,-1.205586593e-05,-4.250336518e-04,-1.312549834e-04,9.013901214e-05,-4.111597130e-05,-1.017976767e-04,8.527916268e-05,-1.651851407e-05,-3.197182433e-05,7.185368586e-05,3.988186153e-05,-9.476788954e-05,4.637319534e-05,-4.839469420e-05,-4.235017373e-04,-1.078476397e-04,-5.313493770e-04,-8.233727272e-04,2.098925066e-04,-6.134802205e-04,-1.123485332e-03,3.926313982e-04,-7.308539338e-04,-4.934889669e-04,7.931574699e-05,-4.141732199e-04,-7.887024781e-04,2.674338918e-04,-5.212685863e-04,-7.514973467e-04,2.275166106e-04,-5.239807361e-04,-9.347447913e-04,5.744856283e-05,-8.772962285e-04,-8.552516275e-04,2.405281575e-05,-8.311988117e-04,-5.413443703e-04,9.259812232e-05,-4.487462480e-04,-2.546363579e-04,-7.862770646e-05,-3.332640643e-04,-2.087276731e-04,-5.664089603e-05,-2.653685691e-04,-4.451380031e-04,6.646774064e-05,-3.786702625e-04,-1.563626687e-03,-2.018405678e-04,-1.765467255e-03
-3.8,-4.654171983e-04,1.329486722e-04,-3.324685261e-04,5.551725010e-04,7.437776969e-05,6.295502706e-04,-3.980055953e-04,9.652939355e-05,-3.014762017e-04,2.659953842e-04,4.841355139e-05,3.144089356e-04,-4.657263992e-04,1.443798348e-04,-3.213465644e-04,-8.363182548e-05,1.274942830e-04,4.386245750e-05,-5.588979833e-05,8.171268638e-05,2.582288805e-05,-6.532912930e-05,2.884259168e-05,-3.648653761e-05,-1.303004576e-04,9.146754887e-05,-3.883290873e-05,3.636303356e-05,8.229866641e-05,1.186617000e-04,-1.384772644e-04,1.243328237e-04,-1.414444065e-05,-4.886542309e-04,6.923613387e-05,-4.194180970e-04,-4.698343742e-05,-3.183288031e-04,-3.653122406e-04,-9.505369239e-04,1.952215711e-04,-7.553153528e-04,-1.095174836e-03,4.210744128e-04,-6.741004233e-04,-5.979589195e-04,9.827672504e-05,-4.996821944e-04,-5.113665894e-04,1.143864278e-04,-3.969801616e-04,1.433252583e-04,-3.217330802e-04,-1.784078219e-04,-4.185563970e-04,5.877964002e-06,-4.126784330e-04,-1.077121198e-04,9.526328651e-05,-1.244883332e-05,-9.658164338e-05,8.885109942e-05,-7.730543957e-06,3.438717249e-07,7.689561784e-05,7.723948956e-05,-1.001224991e-04,4.682754359e-05,-5.329495552e-05,-4.168921259e-04,-1.053399120e-04,-5.222320379e-04,-8.166203958e-04,2.091793204e-04,-6.074410754e-04,-1.106676486e-03,3.976527315e-04,-7.090237544e-04,-4.770376491e-04,8.576588638e-05,-3.912717627e-04,-7.728931881e-04,2.700824204e-04,-5.028107676e-04,-7.449700417e-04,2.271239478e-04,-5.178460938e-04,-9.589006642e-04,6.410627266e-05,-8.947943916e-04,-8.049323747e-04,-2.434465725e-06,-8.073668404e-04,-5.315294674e-04,9.957784261e-05,-4.319516248e-04,-2.092928428e-04,-8.462627691e-05,-2.939191197e-04,-1.405843542e-04,-5.868178448e-05,-1.992661386e-04,-3.977742395e-04,5.990323537e-05,-3.378710041e-04,-1.584361507e-03,-2.420616657e-04,-1.826423173e-03
-3.7,-4.696459843e-04,1.501928834e-04,-3.194531008e-04,6.009945611e-04,7.538630630e-05,6.763808674e-04,-4.094202822e-04,1.045147208e-04,-3.049055614e-04,2.895191941e-04,4.914051463e-05,3.386597087e-04,-4.613363852e-04,1.490606319e-04,-3.122757534e-04,-4.817647050e-05,1.325193572e-04,8.434288673e-05,-3.041474526e-05,8.389531688e-05,5.348057161e-05,-3.391111987e-05,3.341861417e-05,-4.925056935e-07,-1.139260544e-04,9.568090150e-05,-1.824515294e-05,7.270793094e-05,8.099374649e-05,1.537016774e-04,-1.251399636e-04,1.298826050e-04,4.742641423e-06,-4.651298877e-04,7.588310389e-05,-3.892467838e-04,1.001208601e-05,-3.313676519e-04,-3.213555659e-04,-9.185792189e-04,1.826048130e-04,-7.359744059e-04,-1.084958592e-03,4.251868522e-04,-6.597717396e-04,-5.880978871e-04,1.096274964e-04,-4.784703907e-04,-4.653778626e-04,1.093325658e-04,-3.560452968e-04,1.322867594e-04,-2.880873362e-04,-1.558005768e-04,-4.206436121e-04,2.479713061e-05,-3.958464815e-04,-8.174667000e-05,1.001051288e-04,1.835845883e-05,-9.057315835e-05,9.218993750e-05,1.616779147e-06,3.519848510e-05,8.163736084e-05,1.168358459e-04,-1.060729614e-04,4.718848362e-05,-5.888447777e-05,-4.100238629e-04,-1.029921691e-04,-5.130160320e-04,-8.061608101e-04,2.075965127e-04,-5.985642974e-04,-1.084916346e-03,4.014291659e-04,-6.834871802e-04,-4.592237715e-04,9.253321182e-05,-3.666905597e-04,-7.511249514e-04,2.708852179e-04,-4.802397335e-04,-7.345728861e-04,2.262098202e-04,-5.083630659e-04,-9.782414510e-04,7.007250504e-05,-9.081689459e-04,-7.504747561e-04,-2.776376508e-05,-7.782385212e-04,-5.195620205e-04,1.066988324e-04,-4.128631880e-04,-1.593054204e-04,-9.114774523e-05,-2.504531656e-04,-6.713289516e-05,-6.201965273e-05,-1.291525479e-04,-3.461294447e-04,5.334933431e-05,-2.927801104e-04,-1.592656231e-03,-2.817520923e-04,-1.874408323e-03
-3.6,-4.719086349e-04,1.675706926e-04,-3.043379423e-04,6.489808629e-04,7.607850307e-05,7.250593660e-04,-4.193531619e-04,1.123276995e-04,-3.070254625e-04,3.145672692e-04,4.974913277e-05,3.643164019e-04,-4.547729040e-04,1.533053039e-04,-3.014676001e-04,-8.903288999e-06,1.368224896e-04,1.279192006e-04,-3.229427143e-06,8.593861562e-05,8.270918848e-05,-1.551851587e-07,3.804642416e-05,3.789123900e-05,-9.628133730e-05,9.983250958e-05,3.551172282e-06,1.109061488e-04,7.959255611e-05,1.904987050e-04,-1.108592977e-04,1.352147304e-04,2.435543271e-05,-4.396358264e-04,8.317831103e-05,-3.564575153e-04,6.774734072e-05,-3.432614854e-04,-2.755141447e-04,-8.822670967e-04,1.689844360e-04,-7.132826607e-04,-1.068253543e-03,4.263037751e-04,-6.419497679e-04,-5.747120627e-04,1.212023435e-04,-4.535097193e-04,-4.130999842e-04,1.029079785e-04,-3.101920056e-04,1.194056455e-04,-2.513251044e-04,-1.319194589e-04,-4.189350715e-04,4.469932201e-05,-3.742357495e-04,-5.315047050e-05,1.046083401e-04,5.145786957e-05,-8.360952392e-05,9.526903630e-05,1.165951238e-05,7.269732259e-05,8.603815916e-05,1.587354818e-04,-1.125312792e-04,4.746540518e-05,-6.506587402e-05,-4.029495914e-04,-1.008064953e-04,-5.037560866e-04,-7.917782528e-04,2.051333211e-04,-5.866449316e-04,-1.058016006e-03,4.037985310e-04,-6.542174752e-04,-4.395436257e-04,9.952230114e-05,-3.400213246e-04,-7.230619807e-04,2.695693508e-04,-4.534926299e-04,-7.203219356e-04,2.248443247e-04,-4.954776109e-04,-9.925314425e-04,7.533696742e-05,-9.171944751e-04,-6.923442643e-04,-5.152792668e-05,-7.438721909e-04,-5.055407955e-04,1.139550814e-04,-3.915857141e-04,-1.043593996e-04,-9.825606105e-05,-2.026154606e-04,1.151149712e-05,-6.636202201e-05,-5.485052489e-05,-2.901869785e-04,4.694884300e-05,-2.432381355e-04,-1.588722689e-03,-3.198391673e-04,-1.908561856e-03
