Time,S1D1HbO,S1D1HbR,S1D1HbT,S2D2HbO,S2D2HbR,S2D2HbT,S3D3HbO,S3D3HbR,S3D3HbT,S4D4HbO,S4D4HbR,S4D4HbT,S5D5HbO,S5D5HbR,S5D5HbT,S6D6HbO,S6D6HbR,S6D6HbT,S7D7HbO,S7D7HbR,S7D7HbT,S8D8HbO,S8D8HbR,S8D8HbT,S9D9HbO,S9D9HbR,S9D9HbT,S10D10HbO,S10D10HbR,S10D10HbT,S11D11HbO,S11D11HbR,S11D11HbT,S12D12HbO,S12D12HbR,S12D12HbT,S13D13HbO,S13D13HbR,S13D13HbT,S14D14HbO,S14D14HbR,S14D14HbT,S15D15HbO,S15D15HbR,S15D15HbT,S16D16HbO,S16D16HbR,S16D16HbT,S17D17HbO,S17D17HbR,S17D17HbT,S18D18HbO,S18D18HbR,S18D18HbT,S19D19HbO,S19D19HbR,S19D19HbT,S20D20HbO,S20D20HbR,S20D20HbT,S21D21HbO,S21D21HbR,S21D21HbT,S22D22HbO,S22D22HbR,S22D22HbT,S23D23HbO,S23D23HbR,S23D23HbT,S24D24HbO,S24D24HbR,S24D24HbT,S25D25HbO,S25D25HbR,S25D25HbT,S26D26HbO,S26D26HbR,S26D26HbT,S27D27HbO,S27D27HbR,S27D27HbT,S28D28HbO,S28D28HbR,S28D28HbT,S29D29HbO,S29D29HbR,S29D29HbT,S30D30HbO,S30D30HbR,S30D30HbT,S31D31HbO,S31D31HbR,S31D31HbT,S32D32HbO,S32D32HbR,S32D32HbT,S33D33HbO,S33D33HbR,S33D33HbT,S34D34HbO,S34D34HbR,S34D34HbT,S35D35HbO,S35D35HbR,S35D35HbT,S36D36HbO,S36D36HbR,S36D36HbT,
-10,8.170829708e-04,-2.718119401e-04,5.452710307e-04,6.371812966e-04,-9.615082015e-05,5.410304764e-04,7.064519227e-04,-1.417801226e-04,5.646718001e-04,-1.927033532e-04,-4.248840135e-05,-2.351917545e-04,-2.801309177e-05,-9.501334558e-05,-1.230264374e-04,7.734745099e-06,1.042557963e-04,1.119905414e-04,-1.562051465e-04,-8.489596904e-05,-2.411011155e-04,3.451148132e-04,-4.890123046e-05,2.962135828e-04,-1.908690470e-04,-5.853324629e-05,-2.494022933e-04,3.362846810e-04,-3.388702885e-06,3.328959781e-04,7.766589005e-05,3.994246795e-05,1.176083580e-04,-3.041451575e-04,-1.308877139e-04,-4.350328714e-04,-1.458888256e-03,1.444032150e-04,-1.314485041e-03,4.247868116e-04,-2.760555366e-04,1.487312750e-04,-5.003681899e-04,-2.279678646e-04,-7.283360545e-04,-6.708849429e-04,-6.778977176e-05,-7.386747146e-04,-4.974364198e-04,2.205324037e-04,-2.769040160e-04,1.924305394e-04,-1.527893188e-04,3.964122065e-05,6.377373082e-04,-1.524128911e-04,4.853244171e-04,3.968333603e-04,9.243469819e-05,4.892680585e-04,-1.505361523e-04,-5.964832718e-05,-2.101844795e-04,-7.019306945e-05,8.642372392e-05,1.623065447e-05,2.780288050e-04,-2.973441723e-05,2.482943878e-04,1.042286177e-04,8.291950895e-05,1.871481267e-04,4.059264086e-06,-5.550984351e-05,-5.145057943e-05,5.320552029e-04,-4.069157002e-04,1.251395027e-04,-2.037349528e-03,8.222839842e-04,-1.215065544e-03,-3.906823705e-04,-3.861662509e-04,-7.768486214e-04,-8.766898136e-04,-1.323790444e-05,-8.899277180e-04,2.358215323e-04,-1.164138646e-04,1.194076677e-04,-9.533422302e-04,-5.021357178e-07,-9.538443659e-04,-4.959552957e-04,-6.208957021e-05,-5.580448659e-04,-1.701658688e-04,-1.137366606e-04,-2.839025294e-04,2.206541821e-04,3.608545849e-04,5.815087670e-04,-6.737796600e-04,2.498429713e-04,-4.239366887e-04,7.938503048e-04,1.576822839e-04,9.515325887e-04
-9.9,8.148532091e-04,-2.673062842e-04,5.475469249e-04,6.534802053e-04,-8.960110147e-05,5.638791038e-04,6.951019725e-04,-1.462242440e-04,5.488777284e-04,-1.491952444e-04,-4.140649495e-05,-1.906017394e-04,1.581157523e-05,-1.007874048e-04,-8.497582960e-05,4.148618548e-05,1.026541025e-04,1.441402880e-04,-1.236643407e-04,-8.638626514e-05,-2.100506058e-04,3.705071260e-04,-4.911370762e-05,3.213934184e-04,-1.722347219e-04,-5.897658941e-05,-2.312113113e-04,3.574327850e-04,-5.146748513e-06,3.522860365e-04,9.078417997e-05,3.811438348e-05,1.288985634e-04,-2.873894519e-04,-1.354135181e-04,-4.228029701e-04,-1.425077111e-03,1.370666828e-04,-1.288010428e-03,4.355233353e-04,-2.747981206e-04,1.607252147e-04,-4.724942505e-04,-2.236123299e-04,-6.961065804e-04,-6.475626778e-04,-6.631782073e-05,-7.138804985e-04,-4.457447210e-04,2.224013338e-04,-2.233433871e-04,2.275284963e-04,-1.528055677e-04,7.472292857e-05,6.644700930e-04,-1.517231908e-04,5.127469022e-04,4.124195903e-04,9.478951659e-05,5.072091069e-04,-1.536066498e-04,-5.560302016e-05,-2.092096700e-04,-5.285977550e-05,9.641339384e-05,4.355361833e-05,2.660748996e-04,-1.667971224e-05,2.493951874e-04,1.092247535e-04,9.671116150e-05,2.059359150e-04,2.568033288e-05,-6.633904604e-05,-4.065871316e-05,5.481563914e-04,-4.057235378e-04,1.424328536e-04,-2.023138422e-03,8.300385775e-04,-1.193099845e-03,-3.799662409e-04,-3.943553292e-04,-7.743215701e-04,-8.551210430e-04,-3.571943690e-06,-8.586929867e-04,2.586423887e-04,-1.202316530e-04,1.384107358e-04,-9.155815466e-04,1.415367523e-05,-9.014278713e-04,-4.453591808e-04,-7.204606548e-05,-5.174052462e-04,-1.455523254e-04,-9.581802183e-05,-2.413703473e-04,1.947802614e-04,3.783403271e-04,5.731205885e-04,-6.276774669e-04,2.545922314e-04,-3.730852355e-04,8.148252757e-04,1.654821950e-04,9.803074706e-04
-9.8,8.094113278e-04,-2.624220081e-04,5.469893197e-04,6.653493124e-04,-8.263179383e-05,5.827175186e-04,6.814732724e-04,-1.503298863e-04,5.311433861e-04,-1.088578284e-04,-4.017166756e-05,-1.490294960e-04,5.665138716e-05,-1.062512383e-04,-4.959985118e-05,7.157314969e-05,1.006287449e-04,1.722018946e-04,-9.355366220e-05,-8.767739847e-05,-1.812310607e-04,3.933148968e-04,-4.947964465e-05,3.438352521e-04,-1.556336539e-04,-5.933124222e-05,-2.149648961e-04,3.762472475e-04,-6.671518063e-06,3.695757294e-04,1.011107795e-04,3.640413173e-05,1.375149112e-04,-2.734401132e-04,-1.378815636e-04,-4.113216768e-04,-1.390779480e-03,1.294091835e-04,-1.261370296e-03,4.437390361e-04,-2.726359231e-04,1.711031130e-04,-4.473322794e-04,-2.174897772e-04,-6.648220566e-04,-6.253418929e-04,-6.458050810e-05,-6.899224010e-04,-3.946628262e-04,2.232887244e-04,-1.713741018e-04,2.601403272e-04,-1.517933959e-04,1.083469313e-04,6.892934594e-04,-1.500507818e-04,5.392426776e-04,4.255380460e-04,9.726435023e-05,5.228023962e-04,-1.584930199e-04,-5.141333752e-05,-2.099063574e-04,-3.799567166e-05,1.062258944e-04,6.823022277e-05,2.515710859e-04,-3.491343309e-06,2.480797426e-04,1.123507591e-04,1.102744273e-04,2.226251864e-04,4.380370264e-05,-7.532548455e-05,-3.152178191e-05,5.602592779e-04,-4.029721124e-04,1.572871655e-04,-2.005573802e-03,8.300746160e-04,-1.175499186e-03,-3.709897145e-04,-4.009760379e-04,-7.719657524e-04,-8.348063641e-04,6.367120958e-06,-8.284392431e-04,2.794933707e-04,-1.237090975e-04,1.557842732e-04,-8.780541743e-04,2.853854723e-05,-8.495156271e-04,-3.974584975e-04,-8.137714027e-05,-4.788356378e-04,-1.234775549e-04,-7.798992220e-05,-2.014674771e-04,1.629632081e-04,3.987610150e-04,5.617242231e-04,-5.791832933e-04,2.560928304e-04,-3.230904630e-04,8.347069775e-04,1.730359368e-04,1.007742914e-03
-9.7,8.008189469e-04,-2.571896194e-04,5.436293276e-04,6.729531707e-04,-7.527275701e-05,5.976804137e-04,6.658142740e-04,-1.540870682e-04,5.117272058e-04,-7.161736220e-05,-3.881758743e-05,-1.104349496e-04,9.454948854e-05,-1.113993810e-04,-1.684989246e-05,9.826657173e-05,9.824410106e-05,1.965106728e-04,-6.584900092e-05,-8.876709350e-05,-1.546160944e-04,4.137837820e-04,-5.003686666e-05,3.637469153e-04,-1.409933226e-04,-5.958536985e-05,-2.005786924e-04,3.928938147e-04,-7.970525569e-06,3.849232891e-04,1.088359511e-04,3.482189396e-05,1.436578451e-04,-2.618538497e-04,-1.383590116e-04,-4.002128612e-04,-1.355654124e-03,1.215023595e-04,-1.234151765e-03,4.496664198e-04,-2.695032422e-04,1.801631776e-04,-4.247647009e-04,-2.095580991e-04,-6.343228000e-04,-6.040690173e-04,-6.253592779e-05,-6.666049451e-04,-3.443970813e-04,2.232612059e-04,-1.211358754e-04,2.902474766e-04,-1.497406365e-04,1.405068401e-04,7.122229690e-04,-1.473468687e-04,5.648761003e-04,4.364965759e-04,9.978486018e-05,5.362814361e-04,-1.649336405e-04,-4.709508065e-05,-2.120287211e-04,-2.544882600e-05,1.158320833e-04,9.038325731e-05,2.348196715e-04,9.766609862e-06,2.445862814e-04,1.137542286e-04,1.235214226e-04,2.372756512e-04,5.853947826e-05,-8.237816652e-05,-2.383868826e-05,5.686813577e-04,-3.986470725e-04,1.700342853e-04,-1.984299602e-03,8.223041252e-04,-1.161995477e-03,-3.635509388e-04,-4.056749521e-04,-7.692258909e-04,-8.155675811e-04,1.661133231e-05,-7.989562488e-04,2.984395258e-04,-1.267522659e-04,1.716872599e-04,-8.404638006e-04,4.258567508e-05,-7.978781255e-04,-3.521412596e-04,-8.998128530e-05,-4.421225449e-04,-1.036543859e-04,-6.037536299e-05,-1.640297489e-04,1.258137553e-04,4.216124842e-04,5.474262396e-04,-5.282087079e-04,2.542971097e-04,-2.739115981e-04,8.532467129e-04,1.806014445e-04,1.033848157e-03
-9.6,7.891822549e-04,-2.516411280e-04,5.375411269e-04,6.764956734e-04,-6.755734821e-05,6.089383251e-04,6.483813305e-04,-1.574936838e-04,4.908876467e-04,-3.733535396e-05,-3.737476305e-05,-7.471011701e-05,1.295760507e-04,-1.162314590e-04,1.334459171e-05,1.218470651e-04,9.556357619e-05,2.174106412e-04,-4.049560042e-05,-8.965336478e-05,-1.301489652e-04,4.321668538e-04,-5.081348065e-05,3.813533731e-04,-1.282272896e-04,-5.972988617e-05,-1.879571758e-04,4.075522619e-04,-9.054500435e-06,3.984977614e-04,1.141694372e-04,3.337438338e-05,1.475438205e-04,-2.521584086e-04,-1.369433272e-04,-3.891017358e-04,-1.319345071e-03,1.134105095e-04,-1.205934562e-03,4.535510072e-04,-2.653439762e-04,1.882070310e-04,-4.046401256e-04,-1.997994627e-04,-6.044395883e-04,-5.835682009e-04,-6.014626219e-05,-6.437144631e-04,-2.951176269e-04,2.223981977e-04,-7.271942917e-05,3.178728797e-04,-1.466531664e-04,1.712197134e-04,7.332971679e-04,-1.435796694e-04,5.897174985e-04,4.456152903e-04,1.022729088e-04,5.478881991e-04,-1.726517739e-04,-4.266642330e-05,-2.153181972e-04,-1.505351524e-05,1.252008720e-04,1.101473568e-04,2.161358170e-04,2.302522939e-05,2.391610464e-04,1.135975426e-04,1.363637498e-04,2.499612925e-04,7.004938159e-05,-8.744598533e-05,-1.739660374e-05,5.737737546e-04,-3.927484158e-04,1.810253388e-04,-1.959016863e-03,8.067520249e-04,-1.152264838e-03,-3.574333080e-04,-4.081120619e-04,-7.655453699e-04,-7.972065980e-04,2.719121441e-05,-7.700153835e-04,3.155615222e-04,-1.292728499e-04,1.862886723e-04,-8.025039390e-04,5.623552891e-05,-7.462684101e-04,-3.092391053e-04,-9.776314813e-05,-4.070022535e-04,-8.573642405e-05,-4.309487705e-05,-1.288313011e-04,8.408931589e-05,4.462662670e-04,5.303555829e-04,-4.747081038e-04,2.492320823e-04,-2.254760215e-04,8.702006653e-04,1.884314610e-04,1.058632126e-03
-9.5,7.746487288e-04,-2.458099587e-04,5.288387702e-04,6.762145642e-04,-5.952243296e-05,6.166921312e-04,6.294356328e-04,-1.605545382e-04,4.688810946e-04,-5.814985356e-06,-3.587071436e-05,-4.168569971e-05,1.618249903e-04,-1.207517709e-04,4.107321943e-05,1.425982909e-04,9.264855098e-05,2.352468419e-04,-1.741101982e-05,-9.033434377e-05,-1.077453636e-04,4.487181279e-04,-5.182696605e-05,3.968911619e-04,-1.172367384e-04,-5.975833677e-05,-1.769950752e-04,4.204127604e-04,-9.936934239e-06,4.104758262e-04,1.173366894e-04,3.206491615e-05,1.494016055e-04,-2.438648943e-04,-1.337581926e-04,-3.776230869e-04,-1.281493405e-03,1.051915215e-04,-1.176301883e-03,4.556452233e-04,-2.601127136e-04,1.955325097e-04,-3.867754236e-04,-1.882212124e-04,-5.749966361e-04,-5.636479272e-04,-5.737831585e-05,-6.210262430e-04,-2.469573608e-04,2.207899917e-04,-2.616736905e-05,3.430777881e-04,-1.425557426e-04,2.005220455e-04,7.525739870e-04,-1.387363492e-04,6.138376378e-04,4.532192268e-04,1.046489814e-04,5.578682082e-04,-1.813600847e-04,-3.814769703e-05,-2.195077818e-04,-6.632178393e-06,1.342987700e-04,1.276665916e-04,1.958426053e-04,3.621151201e-05,2.320541173e-04,1.120552137e-04,1.487136330e-04,2.607688467e-04,7.853896512e-05,-9.051658276e-05,-1.197761763e-05,5.759120649e-04,-3.852904031e-04,1.906216618e-04,-1.929509727e-03,7.835736742e-04,-1.145936053e-03,-3.524101346e-04,-4.079748789e-04,-7.603850135e-04,-7.795089137e-04,3.813470900e-05,-7.413742047e-04,3.309513479e-04,-1.311885773e-04,1.997627707e-04,-7.638655323e-04,6.943505224e-05,-6.944304800e-04,-2.685328445e-04,-1.046368771e-04,-3.731697216e-04,-6.932974191e-05,-2.626998680e-05,-9.559972871e-05,3.867331125e-05,4.719942452e-04,5.106675565e-04,-4.186840665e-04,2.409999569e-04,-1.776841095e-04,8.853347130e-04,1.967590516e-04,1.082093765e-03
-9.4,7.574043151e-04,-2.397306947e-04,5.176736204e-04,6.723766348e-04,-5.120785482e-05,6.211687800e-04,6.092415639e-04,-1.632801066e-04,4.459614574e-04,2.319227236e-05,-3.433029124e-05,-1.113801888e-05,1.914120098e-04,-1.249688010e-04,6.644320881e-05,1.608020361e-04,8.955745067e-05,2.503594867e-04,3.512946205e-06,-9.080822218e-05,-8.729527597e-05,4.636876004e-04,-5.308296718e-05,4.106046332e-04,-1.079105693e-04,-5.966689359e-05,-1.675774629e-04,4.316743159e-04,-1.063366496e-05,4.210406510e-04,1.185774799e-04,3.089352879e-05,1.494710087e-04,-2.364749746e-04,-1.289493988e-04,-3.654243734e-04,-1.241749169e-03,9.690074280e-05,-1.144848426e-03,4.562058152e-04,-2.537756627e-04,2.024301526e-04,-3.709556934e-04,-1.748562866e-04,-5.458119799e-04,-5.441055536e-04,-5.420392773e-05,-5.983094813e-04,-2.000103373e-04,2.185341826e-04,1.852384525e-05,3.659587659e-04,-1.374919968e-04,2.284667691e-04,7.701268098e-04,-1.328233420e-04,6.373034678e-04,4.596331945e-04,1.068346295e-04,5.664678240e-04,-1.907633078e-04,-3.356109337e-05,-2.243244011e-04,4.401699096e-09,1.430896480e-04,1.430940497e-04,1.742684122e-04,4.924927424e-05,2.235176864e-04,1.093131993e-04,1.604850683e-04,2.697982675e-04,8.425072074e-05,-9.161351900e-05,-7.362798255e-06,5.754908399e-04,-3.763012498e-04,1.991895902e-04,-1.895666386e-03,7.530690452e-04,-1.142597341e-03,-3.482428942e-04,-4.049910950e-04,-7.532339891e-04,-7.622451700e-04,4.946606271e-05,-7.127791073e-04,3.447088961e-04,-1.324224276e-04,2.122864685e-04,-7.242427034e-04,8.213620111e-05,-6.421065023e-04,-2.297582011e-04,-1.105281500e-04,-3.402863511e-04,-5.400449901e-05,-1.002597765e-05,-6.403047666e-05,-9.446183636e-06,4.979986241e-04,4.885524405e-04,-3.601914174e-04,2.297774943e-04,-1.304139231e-04,8.984318141e-04,2.057834937e-04,1.104215308e-03
-9.3,7.376711617e-04,-2.334386767e-04,5.042324850e-04,6.652741192e-04,-4.265553894e-05,6.226185802e-04,5.880663201e-04,-1.656851812e-04,4.223811389e-04,4.998007255e-05,-3.277617229e-05,1.720390026e-05,2.184739680e-04,-1.288947342e-04,8.957923373e-05,1.767349473e-04,8.634517430e-05,2.630801217e-04,2.240949850e-05,-9.107340178e-05,-6.866390328e-05,4.773177304e-04,-5.457370197e-05,4.227440284e-04,-1.001244226e-04,-5.945440930e-05,-1.595788319e-04,4.415447782e-04,-1.116250252e-05,4.303822757e-04,1.181462607e-04,2.985717875e-05,1.480034394e-04,-2.294855257e-04,-1.226798634e-04,-3.521653890e-04,-1.199782116e-03,8.859652750e-05,-1.111185589e-03,4.554938115e-04,-2.463114300e-04,2.091823815e-04,-3.569329184e-04,-1.597634401e-04,-5.166963585e-04,-5.247296749e-04,-5.060055572e-05,-5.753302306e-04,-1.543301992e-04,2.157310673e-04,6.140086808e-05,3.866450569e-04,-1.315232699e-04,2.551217870e-04,7.860410599e-04,-1.258656107e-04,6.601754492e-04,4.651786706e-04,1.087546492e-04,5.739333198e-04,-2.005596517e-04,-2.893021651e-05,-2.294898682e-04,5.057999766e-06,1.515349082e-04,1.565929080e-04,1.517458127e-04,6.206012016e-05,2.138059329e-04,1.055693319e-04,1.715948609e-04,2.771641928e-04,8.745952931e-05,-9.079285762e-05,-3.333328309e-06,5.729215400e-04,-3.658227756e-04,2.070987644e-04,-1.857488803e-03,7.156886970e-04,-1.141800106e-03,-3.446731486e-04,-3.989399268e-04,-7.436130755e-04,-7.451712382e-04,6.120449465e-05,-6.839667436e-04,3.569398686e-04,-1.329015857e-04,2.240382830e-04,-6.833370371e-04,9.429435752e-05,-5.890426796e-04,-1.926118371e-04,-1.153749262e-04,-3.079867633e-04,-3.930533398e-05,5.507727520e-06,-3.379760646e-05,-5.920127176e-05,5.234451178e-04,4.642438461e-04,-2.993393578e-04,2.158140888e-04,-8.352526902e-05,9.093007440e-04,2.156577686e-04,1.124958513e-03
-9.2,7.157054447e-04,-2.269696090e-04,4.887358357e-04,6.552218998e-04,-3.390861861e-05,6.213132812e-04,5.661800139e-04,-1.677875500e-04,3.983924639e-04,7.488033586e-05,-3.122952164e-05,4.365081421e-05,2.431687874e-04,-1.325449834e-04,1.106238040e-04,1.906664929e-04,8.306277039e-05,2.737292633e-04,3.943652495e-05,-9.112881121e-05,-5.169228626e-05,4.898410756e-04,-5.627664550e-05,4.335644301e-04,-9.373960575e-05,-5.912241505e-05,-1.528620208e-04,4.502410214e-04,-1.154282898e-05,4.386981924e-04,1.163126935e-04,2.895006371e-05,1.452627572e-04,-2.223942444e-04,-1.151236105e-04,-3.375178549e-04,-1.155291056e-03,8.034537256e-05,-1.074945683e-03,4.537745812e-04,-2.377116158e-04,2.160629654e-04,-3.444253194e-04,-1.430270175e-04,-4.874523369e-04,-5.053015356e-04,-4.655216177e-05,-5.518536973e-04,-1.099293163e-04,2.124788160e-04,1.025494997e-04,4.052953063e-04,-1.247263718e-04,2.805689345e-04,8.004116227e-04,-1.179056988e-04,6.825059239e-04,4.701717660e-04,1.103386363e-04,5.805104022e-04,-2.104421955e-04,-2.427957238e-05,-2.347217679e-04,8.743804903e-06,1.595939510e-04,1.683377559e-04,1.286106044e-04,7.456437626e-05,2.031749806e-04,1.010335088e-04,1.819634850e-04,2.829969938e-04,8.846989797e-05,-8.813986972e-05,3.300282427e-07,5.686317947e-04,-3.539102575e-04,2.147215373e-04,-1.815085914e-03,6.720270168e-04,-1.143058897e-03,-3.414115743e-04,-3.896628232e-04,-7.310743974e-04,-7.280284023e-04,7.336263793e-05,-6.546657644e-04,3.677547797e-04,-1.325570820e-04,2.351976977e-04,-6.408615751e-04,1.058672248e-04,-5.349943503e-04,-1.567581790e-04,-1.191274964e-04,-2.758856754e-04,-2.475983639e-05,2.019882942e-05,-4.561006969e-06,-1.094747898e-04,5.474961208e-04,4.380213310e-04,-2.362918929e-04,1.994279712e-04,-3.686392176e-05,9.177844440e-04,2.264784309e-04,1.144262875e-03
-9.1,6.917945113e-04,-2.203592924e-04,4.714352189e-04,6.425544479e-04,-2.501077691e-05,6.175436710e-04,5.438552766e-04,-1.696067565e-04,3.742485201e-04,9.825558913e-05,-2.971066396e-05,6.854492517e-05,2.656748081e-04,-1.359376788e-04,1.297371293e-04,2.028576709e-04,7.975698083e-05,2.826146517e-04,5.477572243e-05,-9.097425228e-05,-3.619852985e-05,5.014786836e-04,-5.815426276e-05,4.433244209e-04,-8.860281307e-05,-5.867499711e-05,-1.472778102e-04,4.579880152e-04,-1.179514684e-05,4.461928684e-04,1.133609700e-04,2.816404062e-05,1.415250106e-04,-2.147080662e-04,-1.064596942e-04,-3.211677604e-04,-1.108011900e-03,7.222494196e-05,-1.035786958e-03,4.513159103e-04,-2.279812017e-04,2.233347086e-04,-3.331193971e-04,-1.247557162e-04,-4.578751133e-04,-4.855972073e-04,-4.205018377e-05,-5.276473911e-04,-6.677920001e-05,2.088689398e-04,1.420897398e-04,4.220924152e-04,-1.171907724e-04,3.049016428e-04,8.133404747e-04,-1.090030432e-04,7.043374315e-04,4.749211461e-04,1.115217420e-04,5.864428881e-04,-2.201013284e-04,-1.963417668e-05,-2.397355051e-04,1.129037890e-05,1.672247204e-04,1.785150993e-04,1.051998358e-04,8.668197962e-05,1.918818154e-04,9.592665668e-05,1.915158706e-04,2.874425272e-04,8.761306094e-05,-8.376593772e-05,3.847123218e-06,5.630631450e-04,-3.406324836e-04,2.224306614e-04,-1.768649974e-03,6.227999968e-04,-1.145849977e-03,-3.381279789e-04,-3.770736360e-04,-7.152016149e-04,-7.105449594e-04,8.594482596e-05,-6.246001334e-04,3.772684070e-04,-1.313245777e-04,2.459438293e-04,-5.965458141e-04,1.168147259e-04,-4.797310883e-04,-1.218373766e-04,-1.217485260e-04,-2.435859026e-04,-9.885270320e-06,3.391296800e-05,2.402769768e-05,-1.591368120e-04,5.693411490e-04,4.102043370e-04,-1.712667998e-04,1.809997291e-04,9.732929326e-06,9.237671267e-04,2.382779243e-04,1.162045051e-03
-9,6.662526404e-04,-2.136434358e-04,4.526092047e-04,6.276216497e-04,-1.600573281e-05,6.116159169e-04,5.213657030e-04,-1.711629408e-04,3.502027622e-04,1.204902092e-04,-2.823959298e-05,9.225061622e-05,2.861887996e-04,-1.390930705e-04,1.470957291e-04,2.135600565e-04,7.646944845e-05,2.900295049e-04,6.863039993e-05,-9.061066802e-05,-2.198026809e-05,5.124391279e-04,-6.015542414e-05,4.522837037e-04,-8.454704646e-05,-5.811856641e-05,-1.426656129e-04,4.650162908e-04,-1.194064139e-05,4.530756494e-04,1.095873650e-04,2.748908012e-05,1.370764451e-04,-2.059539707e-04,-9.686757341e-05,-3.028215441e-04,-1.057724272e-03,6.432411379e-05,-9.934001581e-04,4.483834896e-04,-2.171387680e-04,2.312447217e-04,-3.226753689e-04,-1.050803042e-04,-4.277556731e-04,-4.653915544e-04,-3.709431670e-05,-5.024858711e-04,-2.481289474e-05,2.049825283e-04,1.801696336e-04,4.372361790e-04,-1.090156360e-04,3.282205430e-04,8.249332794e-04,-9.923319300e-05,7.257000864e-04,4.797250731e-04,1.122448675e-04,5.919699406e-04,-2.292286460e-04,-1.501934799e-05,-2.442479940e-04,1.293824993e-05,1.743843325e-04,1.873225824e-04,8.184849026e-05,9.833338808e-05,1.801818783e-04,9.047824040e-05,2.001822935e-04,2.906605339e-04,8.524227672e-05,-7.780547469e-05,7.436802026e-06,5.566655085e-04,-3.260717746e-04,2.305937340e-04,-1.718420782e-03,5.688084334e-04,-1.149612349e-03,-3.344452032e-04,-3.611670842e-04,-6.956122873e-04,-6.924397119e-04,9.894539123e-05,-5.934943207e-04,3.855990215e-04,-1.291462792e-04,2.564527423e-04,-5.501422561e-04,1.270999512e-04,-4.230423048e-04,-8.747430861e-05,-1.232135263e-04,-2.106878350e-04,5.805288150e-06,4.651313646e-05,5.231842461e-05,-2.070847919e-04,5.882236181e-04,3.811388263e-04,-1.045331952e-04,1.609629148e-04,5.642971958e-05,9.271795160e-04,2.510194131e-04,1.178198929e-03
-8.9,6.394151422e-04,-2.068574117e-04,4.325577305e-04,6.107834073e-04,-6.936765268e-06,6.038466420e-04,4.989830162e-04,-1.724757908e-04,3.265072254e-04,1.419807092e-04,-2.683622530e-05,1.151444839e-04,3.049224136e-04,-1.420328610e-04,1.628895526e-04,2.230147451e-04,7.323583692e-05,2.962505820e-04,8.122174198e-05,-9.004029785e-05,-8.818555867e-06,5.229178833e-04,-6.221836337e-05,4.606995199e-04,-8.139371463e-05,-5.746154359e-05,-1.388552582e-04,4.715579800e-04,-1.200081751e-05,4.595571625e-04,1.052961205e-04,2.691370221e-05,1.322098227e-04,-1.956906717e-04,-8.652477205e-05,-2.822154438e-04,-1.004256747e-03,5.674006673e-05,-9.475166803e-04,4.452344949e-04,-2.052166594e-04,2.400178355e-04,-3.127352590e-04,-8.415092562e-05,-3.968861846e-04,-4.444638720e-04,-3.169308369e-05,-4.761569557e-04,1.606998760e-05,2.008877631e-04,2.169577507e-04,4.509343134e-04,-1.003067478e-04,3.506275656e-04,8.352941235e-04,-8.868618776e-05,7.466079358e-04,4.848671581e-04,1.124548095e-04,5.973219676e-04,-2.375221547e-04,-1.046056332e-05,-2.479827180e-04,1.393698132e-05,1.810299690e-04,1.949669503e-04,5.888510358e-05,1.094405725e-04,1.683256760e-04,8.492268026e-05,2.078994079e-04,2.928220881e-04,8.172596542e-05,-7.041303673e-05,1.131292869e-05,5.498882265e-04,-3.103237456e-04,2.395644809e-04,-1.664647177e-03,5.108930653e-04,-1.153754112e-03,-3.299397851e-04,-3.420232229e-04,-6.719630081e-04,-6.734274048e-04,1.123473535e-04,-5.610800512e-04,3.928670942e-04,-1.259737566e-04,2.668933376e-04,-5.014341092e-04,1.366905982e-04,-3.647435111e-04,-5.328847894e-05,-1.235116885e-04,-1.768001675e-04,2.279599535e-05,5.785862292e-05,8.065461827e-05,-2.522811167e-04,6.034626612e-04,3.511815445e-04,-3.640783445e-05,1.397921781e-04,1.033843436e-04,9.280009094e-04,2.645953603e-04,1.192596270e-03
-8.8,6.116310695e-04,-2.000358802e-04,4.115951892e-04,5.924034966e-04,2.153692018e-06,5.945571886e-04,4.769732649e-04,-1.735636591e-04,3.034096057e-04,1.631255242e-04,-2.552042689e-05,1.376050973e-04,3.220973733e-04,-1.447795278e-04,1.773178455e-04,2.314508807e-04,7.008530516e-05,3.015361858e-04,9.278377337e-05,-8.926670273e-05,3.517070640e-06,5.330963587e-04,-6.427411050e-05,4.688222482e-04,-7.895558680e-05,-5.671395714e-05,-1.356695439e-04,4.778420049e-04,-1.199718442e-05,4.658448205e-04,1.007941497e-04,2.642537347e-05,1.272195231e-04,-1.835196601e-04,-7.560639214e-05,-2.591260522e-04,-9.474910394e-04,4.957320284e-05,-8.979178366e-04,4.421106119e-04,-1.922611837e-04,2.498494283e-04,-3.029323263e-04,-6.213449660e-05,-3.650668229e-04,-4.226043150e-04,-2.586433708e-05,-4.484686521e-04,5.599580709e-05,1.966386970e-04,2.526345041e-04,4.633929608e-04,-9.117340387e-05,3.722195569e-04,8.445186599e-04,-7.746375358e-05,7.670549064e-04,4.906110863e-04,1.121047469e-04,6.027158333e-04,-2.446921776e-04,-5.983237364e-06,-2.506754150e-04,1.454106534e-05,1.871200764e-04,2.016611418e-04,3.662699087e-05,1.199280784e-04,1.565550692e-04,7.949538532e-05,2.146112772e-04,2.941066625e-04,7.743973590e-05,-6.176113357e-05,1.567860232e-05,5.431687829e-04,-2.934967224e-04,2.496720606e-04,-1.607556914e-03,4.498915620e-04,-1.157665352e-03,-3.241512148e-04,-3.198059943e-04,-6.439572091e-04,-6.532260326e-04,1.261219981e-04,-5.271040345e-04,3.991938323e-04,-1.217713677e-04,2.774224646e-04,-4.502430995e-04,1.455600793e-04,-3.046830202e-04,-1.890460311e-05,-1.226467442e-04,-1.415513473e-04,4.156014250e-05,6.780469978e-05,1.093648423e-04,-2.937798629e-04,6.144671031e-04,3.206872403e-04,3.274937207e-05,1.179898828e-04,1.507392549e-04,9.262572048e-04,2.788314117e-04,1.205088616e-03
-8.7,5.832552494e-04,-1.932122802e-04,3.900429693e-04,5.728434615e-04,1.122424355e-05,5.840677051e-04,4.555926003e-04,-1.744428531e-04,2.811497473e-04,1.843149321e-04,-2.431185829e-05,1.600030739e-04,3.379400732e-04,-1.473556806e-04,1.905843926e-04,2.390838940e-04,6.704056044e-05,3.061244545e-04,1.035576276e-04,-8.829463965e-05,1.526298799e-05,5.431404722e-04,-6.624951054e-05,4.768909617e-04,-7.704003755e-05,-5.588697951e-05,-1.329270171e-04,4.840892601e-04,-1.195093846e-05,4.721383216e-04,9.638536627e-05,2.601084574e-05,1.223962120e-04,-1.690942886e-04,-6.428531045e-05,-2.333795991e-04,-8.873648602e-04,4.292123557e-05,-8.444436247e-04,4.392320895e-04,-1.783327326e-04,2.608993569e-04,-2.929005082e-04,-3.921210957e-05,-3.321126177e-04,-3.996200944e-04,-1.963566006e-05,-4.192557545e-04,9.510824561e-05,1.922747201e-04,2.873829657e-04,4.748078724e-04,-8.172558820e-05,3.930822842e-04,8.526866545e-04,-6.567555949e-05,7.870110950e-04,4.971952521e-04,1.111551008e-04,6.083503529e-04,-2.504669841e-04,-1.612432383e-06,-2.520794165e-04,1.500555331e-05,1.926157116e-04,2.076212649e-04,1.537595352e-05,1.297241040e-04,1.451000576e-04,7.442925886e-05,2.202702270e-04,2.946994859e-04,7.275884563e-05,-5.203885007e-05,2.071999556e-05,5.369210765e-04,-2.757108689e-04,2.612102076e-04,-1.547340937e-03,3.866046364e-04,-1.160736301e-03,-3.165981894e-04,-2.947559307e-04,-6.113541201e-04,-6.315654197e-04,1.402296365e-04,-4.913357832e-04,4.047002587e-04,-1.165197811e-04,2.881804777e-04,-3.964361465e-04,1.536878402e-04,-2.427483063e-04,1.603673147e-05,-1.206377453e-04,-1.046010139e-04,6.255158277e-05,7.620397283e-05,1.387555556e-04,-3.307383702e-04,6.207395166e-04,2.900011464e-04,1.025404120e-04,9.607218015e-05,1.986125921e-04,9.220159419e-04,2.934951204e-04,1.215511062e-03
-8.6,5.546404994e-04,-1.864182130e-04,3.682222864e-04,5.524574396e-04,2.023436124e-05,5.726918009e-04,4.350832698e-04,-1.751270386e-04,2.599562312e-04,2.059218535e-04,-2.322966630e-05,1.826921872e-04,3.526764452e-04,-1.497834489e-04,2.028929963e-04,2.461140452e-04,6.411835407e-05,3.102323993e-04,1.137859648e-04,-8.712980332e-05,2.665616151e-05,5.531997180e-04,-6.806990547e-05,4.851298125e-04,-7.545191170e-05,-5.499249341e-05,-1.304444051e-04,4.905087229e-04,-1.188266146e-05,4.786260615e-04,9.236562205e-05,2.565638493e-05,1.180220070e-04,-1.521256410e-04,-5.273201047e-05,-2.048576514e-04,-8.238729959e-04,3.687386381e-05,-7.869991321e-04,4.367942661e-04,-1.635055770e-04,2.732886891e-04,-2.822825064e-04,-1.557614443e-05,-2.978586508e-04,-3.753406116e-04,-1.304437334e-05,-3.883849850e-04,1.335596047e-04,1.878204533e-04,3.213800580e-04,4.853573103e-04,-7.207163545e-05,4.132856749e-04,8.598552161e-04,-5.343510103e-05,8.064201150e-04,5.048284448e-04,1.095745199e-04,6.144029647e-04,-2.545971207e-04,2.627415428e-06,-2.519697052e-04,1.558246660e-05,1.974818560e-04,2.130643226e-04,-4.584758635e-06,1.387615596e-04,1.341768010e-04,6.995235819e-05,2.248374689e-04,2.947898271e-04,6.805199741e-05,-4.145070705e-05,2.660129036e-05,5.315254396e-04,-2.570971072e-04,2.744283323e-04,-1.484149983e-03,3.217732037e-04,-1.162376779e-03,-3.067974238e-04,-2.671786797e-04,-5.739761035e-04,-6.081955773e-04,1.546213362e-04,-4.535742411e-04,4.095071131e-04,-1.102187831e-04,2.992883301e-04,-3.399297673e-04,1.610590309e-04,-1.788707364e-04,5.186931307e-05,-1.175198697e-04,-6.565055658e-05,8.619607606e-05,8.291063257e-05,1.691067086e-04,-3.624153808e-04,6.218712563e-04,2.594558754e-04,1.725356372e-04,7.455506233e-05,2.470906995e-04,9.153802189e-04,3.083073972e-04,1.223687616e-03
-8.5,5.261307423e-04,-1.796827541e-04,3.464479882e-04,5.315886610e-04,2.914379261e-05,5.607324536e-04,4.156703859e-04,-1.756267107e-04,2.400436752e-04,2.282942056e-04,-2.229208133e-05,2.060021242e-04,3.665278332e-04,-1.520839033e-04,2.144439299e-04,2.527259912e-04,6.133002210e-05,3.140560133e-04,1.237083272e-04,-8.577852152e-05,3.792980564e-05,5.634078670e-04,-6.966202603e-05,4.937458409e-04,-7.399557279e-05,-5.404278624e-05,-1.280383590e-04,4.972950695e-04,-1.181209297e-05,4.854829766e-04,8.901894641e-05,2.534784423e-05,1.143667906e-04,-1.323842183e-04,-4.111361281e-05,-1.734978311e-04,-7.570666562e-04,3.150874511e-05,-7.255579111e-04,4.349672731e-04,-1.478671856e-04,2.871000875e-04,-2.707353238e-04,8.572970335e-06,-2.621623535e-04,-3.496209190e-04,-6.136841981e-06,-3.557577610e-04,1.715025877e-04,1.832863771e-04,3.547889647e-04,4.951974046e-04,-6.231620809e-05,4.328811965e-04,8.660541657e-04,-4.085590593e-05,8.251982597e-04,5.136873086e-04,1.073406283e-04,6.210279369e-04,-2.568579494e-04,6.712755513e-06,-2.501451939e-04,1.651854531e-05,2.016885613e-04,2.182071066e-04,-2.299201845e-05,1.469790877e-04,1.239870693e-04,6.628675275e-05,2.282835502e-04,2.945703029e-04,6.367641393e-05,-3.021489855e-05,3.346151538e-05,5.273220852e-04,-2.377957992e-04,2.895262860e-04,-1.418097409e-03,2.560656009e-04,-1.162031808e-03,-2.942803354e-04,-2.374312174e-04,-5.317115529e-04,-5.828930947e-04,1.692409896e-04,-4.136521050e-04,4.137350490e-04,-1.028885962e-04,3.108464528e-04,-2.806915489e-04,1.676639037e-04,-1.130276452e-04,8.889317905e-05,-1.133451127e-04,-2.445193360e-05,1.128824909e-04,8.778811957e-05,2.006706105e-04,-3.881605312e-04,6.175322839e-04,2.293717527e-04,2.422823409e-04,5.394108081e-05,2.962234217e-04,9.064821478e-04,3.229556044e-04,1.229437752e-03
-8.4,4.980552951e-04,-1.730317594e-04,3.250235357e-04,5.105676485e-04,3.791174333e-05,5.484793918e-04,3.975596439e-04,-1.759487821e-04,2.216108618e-04,2.517490674e-04,-2.151601369e-05,2.302330537e-04,3.797080608e-04,-1.542765443e-04,2.254315165e-04,2.590896905e-04,5.868168724e-05,3.177713778e-04,1.335576958e-04,-8.424751590e-05,4.931017988e-05,5.738854209e-04,-7.095734995e-05,5.029280710e-04,-7.247630865e-05,-5.305037166e-05,-1.255266803e-04,5.046275117e-04,-1.175799384e-05,4.928695178e-04,8.661496027e-05,2.507061812e-05,1.116855784e-04,-1.096980404e-04,-2.959221696e-05,-1.392902574e-04,-6.870515091e-04,2.688835305e-05,-6.601631560e-04,4.338982234e-04,-1.315171429e-04,3.023810804e-04,-2.579328957e-04,3.302987584e-05,-2.249030199e-04,-3.223433348e-04,1.032911524e-06,-3.213104233e-04,2.090831768e-04,1.786702906e-04,3.877534674e-04,5.044603016e-04,-5.255854383e-05,4.519017577e-04,8.712846785e-04,-2.804877728e-05,8.432359012e-04,5.239154934e-04,1.044402443e-04,6.283557377e-04,-2.570508064e-04,1.062125489e-05,-2.464295515e-04,1.805404129e-05,2.052117793e-04,2.232658206e-04,-3.960353611e-05,1.543219958e-04,1.147184597e-04,6.364784447e-05,2.305886411e-04,2.942364856e-04,5.997345960e-05,-1.856030924e-05,4.141315035e-05,5.246081326e-04,-2.179552092e-04,3.066529234e-04,-1.349263570e-03,1.900732925e-04,-1.159190278e-03,-2.786051275e-04,-2.059075287e-04,-4.845126562e-04,-5.554648937e-04,1.840271823e-04,-3.714377114e-04,4.175043019e-04,-9.456952961e-05,3.229347723e-04,-2.187390838e-04,1.734973126e-04,-4.524177123e-05,1.273682519e-04,-1.081824680e-04,1.918578394e-05,1.429540436e-04,9.071863833e-05,2.336726820e-04,-4.074007361e-04,6.074613728e-04,2.000606367e-04,3.113145060e-04,3.470754947e-05,3.460220555e-04,8.954755764e-04,3.371081804e-04,1.232583757e-03
-8.3,4.707240503e-04,-1.664872610e-04,3.042367893e-04,4.897112080e-04,4.649624881e-05,5.362074568e-04,3.809355821e-04,-1.760963985e-04,2.048391835e-04,2.765682849e-04,-2.091670088e-05,2.556515840e-04,3.924211582e-04,-1.563788961e-04,2.360422621e-04,2.653622278e-04,5.617404810e-05,3.215362759e-04,1.435577767e-04,-8.254377899e-05,6.101399770e-05,5.847425182e-04,-7.189577943e-05,5.128467388e-04,-7.070179853e-05,-5.202783208e-05,-1.227296306e-04,5.126688228e-04,-1.173805379e-05,5.009307690e-04,8.540656530e-05,2.480959202e-05,1.102161573e-04,-8.394990218e-05,-1.832275273e-05,-1.022726549e-04,-6.139849175e-04,2.305686599e-05,-5.909280515e-04,4.337139902e-04,-1.145658517e-04,3.191481386e-04,-2.435666815e-04,5.758656688e-05,-1.859801146e-04,-2.934178374e-04,8.405024078e-06,-2.850128133e-04,2.464353054e-04,1.739591946e-04,4.203945001e-04,5.132548162e-04,-4.289142055e-05,4.703633956e-04,8.755212627e-04,-1.512058655e-05,8.604006761e-04,5.356237520e-04,1.008690036e-04,6.364927556e-04,-2.550037914e-04,1.433220654e-05,-2.406715848e-04,2.042163064e-05,2.080337601e-04,2.284553907e-04,-5.419873590e-05,1.607430270e-04,1.065442911e-04,6.224317599e-05,2.317425868e-04,2.939857628e-04,5.726404057e-05,-6.722401362e-06,5.054163921e-05,5.236366139e-04,-1.977299384e-04,3.259066755e-04,-1.277700932e-03,1.243134764e-04,-1.153387455e-03,-2.593650583e-04,-1.730255585e-04,-4.323906168e-04,-5.257501833e-04,1.989147172e-04,-3.268354662e-04,4.209335402e-04,-8.532055101e-05,3.356129892e-04,-1.541377795e-04,1.785587079e-04,2.442092840e-05,1.675095563e-04,-1.021174011e-04,6.539215520e-05,1.767001520e-04,9.161200459e-05,2.683121566e-04,-4.196294172e-04,5.914616368e-04,1.718322196e-04,3.791624354e-04,1.729585170e-05,3.964582871e-04,8.825283873e-04,3.504295436e-04,1.232957931e-03
-8.2,4.444230165e-04,-1.600670203e-04,2.843559962e-04,4.693210144e-04,5.485402497e-05,5.241750394e-04,3.659597194e-04,-1.760690143e-04,1.898907051e-04,3.029947925e-04,-2.050735974e-05,2.824874327e-04,4.048589176e-04,-1.584061859e-04,2.464527317e-04,2.716896383e-04,5.380204337e-05,3.254916817e-04,1.539201985e-04,-8.067452639e-05,7.324567208e-05,5.960806073e-04,-7.242944486e-05,5.236511625e-04,-6.848431773e-05,-5.098758611e-05,-1.194719038e-04,5.215635422e-04,-1.176878734e-05,5.097947548e-04,8.562697509e-05,2.454917863e-05,1.101761537e-04,-5.507675738e-05,-7.450373249e-06,-6.252713063e-05,-5.380730679e-04,2.003691577e-05,-5.180361521e-04,4.345226910e-04,-9.713315752e-05,3.373895334e-04,-2.273459856e-04,8.203376403e-05,-1.453122216e-04,-2.627823819e-04,1.591585690e-05,-2.468665250e-04,2.836771997e-04,1.691312871e-04,4.528084869e-04,5.216685526e-04,-3.340121367e-05,4.882673390e-04,8.787161971e-04,-2.174690504e-06,8.765415066e-04,5.488900855e-04,9.663052746e-05,6.455206130e-04,-2.505730532e-04,1.782687839e-05,-2.327461748e-04,2.384450313e-05,2.101430489e-04,2.339875520e-04,-6.658051372e-05,1.662029242e-04,9.962241051e-05,6.227014123e-05,2.317446689e-04,2.940148101e-04,5.584358478e-05,5.061392558e-06,6.090497734e-05,5.246153616e-04,-1.772794557e-04,3.473359058e-04,-1.203442866e-03,5.923774566e-05,-1.144205120e-03,-2.361956393e-04,-1.392166426e-04,-3.754122819e-04,-4.936219735e-04,2.138357950e-04,-2.797861785e-04,4.241384321e-04,-7.521780579e-05,3.489206263e-04,-8.699890189e-05,1.828527270e-04,9.585382507e-05,2.094837534e-04,-9.525077208e-05,1.142329813e-04,2.143494006e-04,9.041220882e-05,3.047616095e-04,-4.244029235e-04,5.694024494e-04,1.449995259e-04,4.453623553e-04,2.100666556e-06,4.474630218e-04,8.678155472e-04,3.625928656e-04,1.230408413e-03
-8.1,4.194098747e-04,-1.537842717e-04,2.656256029e-04,4.496810787e-04,6.294079528e-05,5.126218740e-04,3.527681483e-04,-1.758626463e-04,1.769055020e-04,3.312290495e-04,-2.029874543e-05,3.109303040e-04,4.171977364e-04,-1.603710479e-04,2.568266885e-04,2.782078276e-04,5.155481189e-05,3.297626395e-04,1.648410622e-04,-7.864716004e-05,8.619390214e-05,6.079921015e-04,-7.252642367e-05,5.354656778e-04,-6.564388977e-05,-4.994158375e-05,-1.155854735e-04,5.314350163e-04,-1.186542059e-05,5.195695958e-04,8.748572739e-05,2.427343434e-05,1.117591617e-04,-2.307206279e-05,2.892541538e-06,-2.017952126e-05,-4.595688063e-04,1.782713289e-05,-4.417416734e-04,4.364131267e-04,-7.934697576e-05,3.570661509e-04,-2.089996759e-04,1.061620672e-04,-1.028376087e-04,-2.304038900e-04,2.350022442e-05,-2.069036656e-04,3.209084171e-04,1.641580791e-04,4.850664962e-04,5.297699977e-04,-2.416871479e-05,5.056012829e-04,8.808053031e-04,1.068746259e-05,8.914927657e-04,5.637592197e-04,9.173546923e-05,6.554946890e-04,-2.436448671e-04,2.108868021e-05,-2.225561869e-04,2.853313306e-05,2.115342268e-04,2.400673598e-04,-7.657799606e-05,1.706708141e-04,9.409281809e-05,6.391249853e-05,2.306031640e-04,2.945156625e-04,5.597664211e-05,1.655629405e-05,7.253293616e-05,5.277046124e-04,-1.567665840e-04,3.709380283e-04,-1.126519906e-03,-4.753519562e-06,-1.131273426e-03,-2.087836557e-04,-1.049169623e-04,-3.137006180e-04,-4.589888865e-04,2.287208024e-04,-2.302680841e-04,4.272306726e-04,-6.435391500e-05,3.628767576e-04,-1.747828489e-05,1.863899743e-04,1.689116895e-04,2.534065900e-04,-8.769737563e-05,1.657092144e-04,2.560634232e-04,8.710127018e-05,3.431646933e-04,-4.213445409e-04,5.412246915e-04,1.198801506e-04,5.094668443e-04,-1.054119515e-05,4.989256492e-04,8.515142843e-04,3.732886164e-04,1.224802901e-03
-8,3.959095604e-04,-1.476476562e-04,2.482619042e-04,4.310539966e-04,7.071199847e-05,5.017659951e-04,3.414686338e-04,-1.754702256e-04,1.659984081e-04,3.614254058e-04,-2.029859286e-05,3.411268129e-04,4.295947346e-04,-1.622832265e-04,2.673115081e-04,2.850422322e-04,4.941612306e-05,3.344583553e-04,1.764968126e-04,-7.646922490e-05,1.000275877e-04,6.205580113e-04,-7.217366462e-05,5.483843466e-04,-6.201213591e-05,-4.890098943e-05,-1.109131253e-04,5.423816185e-04,-1.204181135e-05,5.303398071e-04,9.116393468e-05,2.396619779e-05,1.151301325e-04,1.201032213e-05,1.258949352e-05,2.459981564e-05,-3.787706905e-04,1.640183245e-05,-3.623688581e-04,4.394527211e-04,-6.134195481e-05,3.781107662e-04,-1.882799317e-04,1.297634658e-04,-5.851646586e-05,-1.962797418e-04,3.109351744e-05,-1.651862243e-04,3.582069550e-04,1.590064443e-04,5.172133993e-04,5.376095012e-04,-1.527004356e-05,5.223394576e-04,8.817138709e-04,2.336448954e-05,9.050783604e-04,5.802410849e-04,8.620088359e-05,6.664419685e-04,-2.341382804e-04,2.410318517e-05,-2.100350953e-04,3.468079443e-05,2.122075803e-04,2.468883748e-04,-8.404991259e-05,1.741244762e-04,9.007456359e-05,6.733595350e-05,2.283348630e-04,2.956708165e-04,5.789092188e-05,2.753481366e-05,8.542573554e-05,5.330134240e-04,-1.363557161e-04,3.966577079e-04,-1.046982857e-03,-6.729318984e-05,-1.114276047e-03,-1.768801358e-04,-7.055887640e-05,-2.474390122e-04,-4.217970759e-04,2.434987407e-04,-1.782983352e-04,4.303177428e-04,-5.283818995e-05,3.774795528e-04,5.422476563e-05,1.891873950e-04,2.434121606e-04,2.993406776e-04,-7.958388380e-05,2.197567938e-04,3.019309043e-04,8.170072244e-05,3.836316267e-04,-4.101538206e-04,5.069463634e-04,9.679254274e-05,5.710562279e-04,-2.036169633e-05,5.506945316e-04,8.338018991e-04,3.822285235e-04,1.216030423e-03
-7.9,3.741101788e-04,-1.416613433e-04,2.324488355e-04,4.136764333e-04,7.812379407e-05,4.918002274e-04,3.321376791e-04,-1.748820315e-04,1.572556476e-04,3.936886651e-04,-2.051104370e-05,3.731776214e-04,4.421835942e-04,-1.641493111e-04,2.780342831e-04,2.923066979e-04,4.736504483e-05,3.396717427e-04,1.890398602e-04,-7.414836238e-05,1.148914978e-04,6.338438310e-04,-7.137813076e-05,5.624657003e-04,-5.743628481e-05,-4.787589555e-05,-1.053121804e-04,5.544728939e-04,-1.231039411e-05,5.421624998e-04,9.680948472e-05,2.361122889e-05,1.204207136e-04,5.005319985e-05,2.154256460e-05,7.159576445e-05,-2.960227920e-04,1.571331281e-05,-2.803094791e-04,4.436852565e-04,-4.325809809e-05,4.004271584e-04,-1.649674265e-04,1.526332781e-04,-1.233414836e-05,-1.604389462e-04,3.863328556e-05,-1.218056607e-04,3.956268683e-04,1.536400351e-04,5.492669033e-04,5.452192998e-04,-6.777352498e-06,5.384419473e-04,8.813618268e-04,3.575400421e-05,9.171158310e-04,5.983087503e-04,8.005013449e-05,6.783588848e-04,-2.220076943e-04,2.685813998e-05,-1.951495543e-04,4.245840763e-05,2.121688724e-04,2.546272800e-04,-8.888780562e-05,1.765505315e-04,8.766272587e-05,7.268347494e-05,2.249646309e-04,2.976481058e-04,6.177109221e-05,3.778144100e-05,9.955253321e-05,5.405959286e-04,-1.162106926e-04,4.243852361e-04,-9.649255430e-04,-1.280305101e-04,-1.092956053e-03,-1.403172668e-04,-3.656018961e-05,-1.768774564e-04,-3.820313900e-04,2.580973928e-04,-1.239339972e-04,4.335032403e-04,-4.079714486e-05,3.927060954e-04,1.278692802e-04,1.912678443e-04,3.191371245e-04,3.472932681e-04,-7.104571446e-05,2.762475537e-04,3.519615703e-04,7.427135927e-05,4.262329296e-04,-3.906198169e-04,4.666691259e-04,7.604930906e-05,6.297497050e-04,-2.717081234e-05,6.025788926e-04,8.148550271e-04,3.891469342e-04,1.204001961e-03
-7.8,3.541598085e-04,-1.358253610e-04,2.183344475e-04,3.977547984e-04,8.513418820e-05,4.828889866e-04,3.248182494e-04,-1.740861937e-04,1.507320557e-04,4.280714344e-04,-2.093618712e-05,4.071352473e-04,4.550708783e-04,-1.659725461e-04,2.890983322e-04,3.001025209e-04,4.537654808e-05,3.454790690e-04,2.025946642e-04,-7.169223011e-05,1.309024341e-04,6.478946212e-04,-7.016595350e-05,5.777286677e-04,-5.178265027e-05,-4.687508721e-05,-9.865773748e-05,5.677465812e-04,-1.268208117e-05,5.550645000e-04,1.045332170e-04,2.319236691e-05,1.277255839e-04,9.087681229e-05,2.967409383e-05,1.205509061e-04,-2.117135660e-04,1.569581247e-05,-1.960177535e-04,4.491298879e-04,-2.523911639e-05,4.238907715e-04,-1.388765243e-04,1.745724664e-04,3.569594200e-05,-1.229420833e-04,4.606004838e-05,-7.688203490e-05,4.331973347e-04,1.480195672e-04,5.812169019e-04,5.526138446e-04,1.240589281e-06,5.538544338e-04,8.796684011e-04,4.775245653e-05,9.274208577e-04,6.178971050e-04,7.331303565e-05,6.912101407e-04,-2.072444523e-04,2.934352410e-05,-1.779009282e-04,5.200976453e-05,2.114292285e-04,2.634389930e-04,-9.101808514e-05,1.779445310e-04,8.692644582e-05,8.007135022e-05,2.205249435e-04,3.005962937e-04,6.775374647e-05,4.709724529e-05,1.148509918e-04,5.504491190e-04,-9.649245552e-05,4.539566634e-04,-8.804981763e-04,-1.866199023e-04,-1.067118079e-03,-9.902576381e-05,-3.311610171e-06,-1.023373740e-04,-3.397146646e-04,2.724431845e-04,-6.727148009e-05,4.368876115e-04,-2.837434379e-05,4.085132677e-04,2.031759230e-04,1.926588903e-04,3.958348133e-04,3.972145323e-04,-6.222269205e-05,3.349918403e-04,4.060817726e-04,6.491140465e-05,4.709931772e-04,-3.626381139e-04,4.205875825e-04,5.794946858e-05,6.852145448e-04,-3.086214096e-05,6.543524039e-04,7.948488824e-04,3.938021257e-04,1.188651008e-03
-7.7,3.361648850e-04,-1.301361375e-04,2.060287475e-04,3.834622778e-04,9.170401157e-05,4.751662894e-04,3.195188439e-04,-1.730691917e-04,1.464496522e-04,4.645729204e-04,-2.156975987e-05,4.430031605e-04,4.683336752e-04,-1.677527271e-04,3.005809481e-04,3.085183569e-04,4.342205267e-05,3.519404095e-04,2.172550588e-04,-6.910836337e-05,1.481466954e-04,6.627308906e-04,-6.858020084e-05,5.941506898e-04,-4.493895426e-05,-4.590589977e-05,-9.084485403e-05,5.822073916e-04,-1.316611294e-05,5.690412787e-04,1.144070398e-04,2.269369800e-05,1.371007378e-04,1.342448798e-04,3.692724201e-05,1.711721218e-04,-1.262716052e-04,1.626955342e-05,-1.100020518e-04,4.557825492e-04,-7.430340424e-06,4.483522088e-04,-1.098590963e-04,1.953904210e-04,8.553132477e-05,-8.387945752e-05,5.331757093e-05,-3.056188660e-05,4.709236206e-04,1.421020424e-04,6.130256629e-04,5.597919055e-04,8.717857927e-06,5.685097634e-04,8.765575024e-04,5.925522755e-05,9.358127300e-04,6.389035521e-04,6.602573202e-05,7.049292841e-04,-1.898766055e-04,3.155159592e-05,-1.583250096e-04,6.344823919e-05,2.100049173e-04,2.734531564e-04,-9.040221096e-05,1.783109017e-04,8.790869074e-05,8.958683387e-05,2.150552975e-04,3.046421314e-04,7.592513296e-05,5.530422893e-05,1.312293619e-04,5.625140071e-04,-7.735658637e-05,4.851574207e-04,-7.939066537e-04,-2.427181168e-04,-1.036624770e-03,-5.304672771e-05,2.883545364e-05,-2.421127407e-05,-2.949044481e-04,2.864605900e-04,-8.443858115e-06,4.405691589e-04,-1.572884104e-05,4.248403179e-04,2.798320104e-04,1.933913696e-04,4.732233799e-04,4.489975069e-04,-5.325405938e-05,3.957434475e-04,4.641339494e-04,5.375298618e-05,5.178869356e-04,-3.262294516e-04,3.689995579e-04,4.277010621e-05,7.371728346e-04,-3.141398523e-05,7.057588493e-04,7.739568916e-04,3.959782600e-04,1.169935152e-03
-7.6,3.201905575e-04,-1.245871486e-04,1.956034089e-04,3.709380259e-04,9.779756112e-05,4.687355870e-04,3.162142543e-04,-1.718162845e-04,1.443979698e-04,5.031395351e-04,-2.240298652e-05,4.807365486e-04,4.820190745e-04,-1.694861789e-04,3.125328956e-04,3.176310529e-04,4.147012716e-05,3.591011801e-04,2.330833195e-04,-6.640402718e-05,1.666792923e-04,6.783463683e-04,-6.667758026e-05,6.116687880e-04,-3.681532176e-05,-4.497422339e-05,-8.178954515e-05,5.978278173e-04,-1.376997586e-05,5.840578414e-04,1.264642215e-04,2.209968052e-05,1.485639021e-04,1.798749910e-04,4.326593962e-05,2.231409307e-04,-4.015693464e-05,1.734390931e-05,-2.281302533e-05,4.636197132e-04,1.002372757e-05,4.736434407e-04,-7.780672363e-05,2.149084165e-04,1.371016929e-04,-4.336739553e-05,6.035305649e-05,1.698566096e-05,5.087893276e-04,1.358397333e-04,6.446290609e-04,5.667412085e-04,1.559100174e-05,5.823322102e-04,8.719643678e-04,7.015677948e-05,9.421211473e-04,6.611908541e-04,5.823020640e-05,7.194210605e-04,-1.699667735e-04,3.347686733e-05,-1.364899062e-04,7.685534577e-05,2.079167941e-04,2.847721399e-04,-8.703518608e-05,1.776627345e-04,9.062754842e-05,1.012873534e-04,2.086014521e-04,3.098888055e-04,8.632226465e-05,6.224918816e-05,1.485714528e-04,5.766809945e-04,-5.895074699e-05,5.177302475e-04,-7.053990709e-04,-2.959897262e-04,-1.001388797e-03,-2.533249064e-06,5.957845956e-05,5.704521050e-05,-2.476875947e-04,3.000710890e-04,5.238349434e-05,4.446447665e-04,-3.031960178e-06,4.416128063e-04,3.574979417e-04,1.934983335e-04,5.509962752e-04,5.024806252e-04,-4.427375626e-05,4.582068689e-04,5.258807286e-04,4.095762817e-05,5.668383567e-04,-2.815546337e-04,3.123119379e-04,3.075730416e-05,7.854059673e-04,-2.888655106e-05,7.565194162e-04,7.523522671e-04,3.954869697e-04,1.147839237e-03
-7.5,3.062627028e-04,-1.191694998e-04,1.870932031e-04,3.602883600e-04,1.033829390e-04,4.636712990e-04,3.148476751e-04,-1.703119132e-04,1.445357620e-04,5.436670234e-04,-2.342254449e-05,5.202444789e-04,4.961452046e-04,-1.711658143e-04,3.249793904e-04,3.275069143e-04,3.948745055e-05,3.669943648e-04,2.501107801e-04,-6.358614941e-05,1.865246306e-04,6.947074780e-04,-6.452391890e-05,6.301835591e-04,-2.734441855e-05,-4.408464310e-05,-7.142906164e-05,6.145502555e-04,-1.449949905e-05,6.000507564e-04,1.407010231e-04,2.139520860e-05,1.620962316e-04,2.274507267e-04,4.867431518e-05,2.761250419e-04,4.615118266e-05,1.881989273e-05,6.497107539e-05,4.726029060e-04,2.698201170e-05,4.995849177e-04,-4.265224182e-05,2.329635692e-04,1.903113274e-04,-1.543116135e-06,6.711738001e-05,6.557426387e-05,5.467584586e-04,1.291801578e-04,6.759386164e-04,5.734449358e-04,2.179905142e-05,5.952439873e-04,8.658426821e-04,8.035129042e-05,9.461939725e-04,6.845910623e-04,4.997369090e-05,7.345647532e-04,-1.476090091e-04,3.511605064e-05,-1.124929585e-04,9.228043808e-05,2.051894271e-04,2.974698652e-04,-8.094346368e-05,1.760214140e-04,9.507795035e-05,1.152002804e-04,2.012145539e-04,3.164148343e-04,9.893667639e-05,6.780654960e-05,1.667432260e-04,5.927982531e-04,-4.141207959e-05,5.513861735e-04,-6.152453604e-04,-3.461178359e-04,-9.613631963e-04,5.225853378e-05,8.866929567e-05,1.409278295e-04,-1.981742753e-04,3.131920644e-04,1.150177891e-04,4.492093061e-04,9.537316715e-06,4.587466228e-04,4.358143537e-04,1.930145316e-04,6.288288853e-04,5.574527347e-04,-3.540662296e-05,5.220461117e-04,5.910122848e-04,2.671208028e-05,6.177243651e-04,-2.289210131e-04,2.510379757e-04,2.211696258e-05,8.297566016e-04,-2.341597462e-05,8.063406270e-04,7.302117795e-04,3.921675471e-04,1.122379327e-03
-7.4,2.943707195e-04,-1.138723840e-04,1.804983355e-04,3.515888745e-04,1.084322848e-04,4.600211594e-04,3.153332829e-04,-1.685401773e-04,1.467931056e-04,5.860033042e-04,-2.461066771e-05,5.613926365e-04,5.107028922e-04,-1.727812751e-04,3.379216170e-04,3.382026533e-04,3.744001155e-05,3.756426648e-04,2.683391580e-04,-6.066138080e-05,2.076777772e-04,7.117536386e-04,-6.218869628e-05,6.495649423e-04,-1.648153173e-05,-4.324060413e-05,-5.972213586e-05,6.322891639e-04,-1.535907989e-05,6.169300841e-04,1.570783119e-04,2.056567118e-05,1.776439831e-04,2.766327725e-04,5.315510984e-05,3.297878824e-04,1.321665566e-04,2.059289294e-05,1.527594495e-04,4.826817225e-04,4.330943658e-05,5.259911591e-04,-4.371326964e-06,2.494122631e-04,2.450409361e-04,4.144083361e-05,7.356511739e-05,1.150059510e-04,5.847758847e-04,1.220678417e-04,7.068437264e-04,5.798881106e-04,2.728404818e-05,6.071721587e-04,8.581706911e-04,8.973382418e-05,9.479045153e-04,7.089092794e-04,4.130818112e-05,7.502174605e-04,-1.229259573e-04,3.646805174e-05,-8.645790555e-05,1.097404908e-04,2.018501048e-04,3.115905956e-04,-7.218346911e-05,1.734160872e-04,1.012326181e-04,1.313221899e-04,1.929502347e-04,3.242724246e-04,1.137193307e-04,7.187954326e-05,1.855988740e-04,6.106804258e-04,-2.486478111e-05,5.858156447e-04,-5.237176501e-04,-3.928156568e-04,-9.165333069e-04,1.109850039e-04,1.159154206e-04,2.269004245e-04,-1.464930338e-04,3.257362123e-04,1.792431785e-04,4.543529425e-04,2.179768538e-05,4.761506279e-04,5.144089383e-04,1.919760846e-04,7.063850230e-04,6.136594617e-04,-2.676555795e-05,5.868939037e-04,6.591547120e-04,1.122475000e-05,6.703794620e-04,-1.687797164e-04,1.857866138e-04,1.700689745e-05,8.701279495e-04,-1.520560635e-05,8.549223432e-04,7.077199918e-04,3.858857763e-04,1.093605768e-03
-7.3,2.844702640e-04,-1.086835016e-04,1.757867625e-04,3.448863057e-04,1.129220033e-04,4.578083090e-04,3.175584292e-04,-1.664854175e-04,1.510730117e-04,6.299512726e-04,-2.594540272e-05,6.040058699e-04,5.256569875e-04,-1.743191309e-04,3.513378566e-04,3.497652821e-04,3.529456315e-05,3.850598452e-04,2.877416779e-04,-5.763624838e-05,2.301054295e-04,7.293976029e-04,-5.973959581e-05,6.696580071e-04,-4.205172451e-06,-4.244448098e-05,-4.664965343e-05,6.509322633e-04,-1.635188427e-05,6.345803790e-04,1.755222116e-04,1.959708109e-05,1.951192927e-04,3.270667845e-04,5.672709334e-05,3.837938778e-04,2.174053448e-04,2.255620160e-05,2.399615464e-04,4.937939094e-04,5.887932153e-05,5.526732309e-04,3.701611006e-05,2.641317713e-04,3.011478813e-04,8.542120155e-05,7.965426403e-05,1.650754656e-04,6.227654979e-04,1.144478695e-04,7.372133674e-04,5.860617148e-04,3.199208013e-05,6.180537950e-04,8.489548792e-04,9.820166290e-05,9.471565421e-04,7.339266860e-04,3.228991920e-05,7.662166052e-04,-9.606712371e-05,3.753398414e-05,-5.853313957e-05,1.292193988e-04,1.979278727e-04,3.271472715e-04,-6.084128075e-05,1.698829684e-04,1.090416877e-04,1.496172105e-04,1.838677602e-04,3.334849707e-04,1.305855225e-04,7.439938048e-05,2.049849030e-04,6.301153783e-04,-9.418179636e-06,6.206971986e-04,-4.310779202e-04,-4.358354751e-04,-8.669133953e-04,1.732319531e-04,1.411768145e-04,3.144087675e-04,-9.278762000e-05,3.376116343e-04,2.448240143e-04,4.601563987e-04,3.357092373e-05,4.937273225e-04,5.929016043e-04,1.904201319e-04,7.833217363e-04,6.708094343e-04,-1.844929015e-05,6.523601441e-04,7.298773588e-04,-5.278152308e-06,7.245992065e-04,-1.017160321e-04,1.172472166e-04,1.553118450e-05,9.064809629e-04,-4.515418909e-06,9.019655440e-04,6.850712421e-04,3.765327048e-04,1.061603947e-03
-7.2,2.764855226e-04,-1.035895154e-04,1.728960072e-04,3.401995930e-04,1.168328451e-04,4.570324381e-04,3.213850510e-04,-1.641328005e-04,1.572522504e-04,6.752712625e-04,-2.740098405e-05,6.478702784e-04,5.409469091e-04,-1.757630771e-04,3.651838320e-04,3.622305461e-04,3.302036000e-05,3.952509061e-04,3.082635415e-04,-5.451732978e-05,2.537462117e-04,7.475252975e-04,-5.723795791e-05,6.902873396e-04,9.481709528e-06,-4.169752208e-05,-3.221581255e-05,6.703405998e-04,-1.747994114e-05,6.528606587e-04,1.959236735e-04,1.847628679e-05,2.143999603e-04,3.783866979e-04,5.942230254e-05,4.378090004e-04,3.013918504e-04,2.460482176e-05,3.259966722e-04,5.058625152e-04,7.357541353e-05,5.794379287e-04,8.144488967e-05,2.770198824e-04,3.584647721e-04,1.302266608e-04,8.534584077e-05,2.155725016e-04,6.606262521e-04,1.062705692e-04,7.668968213e-04,5.919633244e-04,3.587475222e-05,6.278380766e-04,8.382300562e-04,1.056559326e-04,9.438859888e-04,7.594028185e-04,2.297866755e-05,7.823814860e-04,-6.720828426e-05,3.831708928e-05,-2.889119498e-05,1.506668857e-04,1.934526172e-04,3.441195029e-04,-4.703327141e-05,1.654645291e-04,1.184312577e-04,1.700147567e-04,1.740292925e-04,3.440440492e-04,1.494192063e-04,7.532292158e-05,2.247421279e-04,6.508681708e-04,4.834498760e-06,6.557026696e-04,-3.375774830e-04,-4.749721188e-04,-8.125496018e-04,2.385287072e-04,1.643595516e-04,4.028882588e-04,-3.721550407e-05,3.487222237e-04,3.115067196e-04,4.666851159e-04,4.468688783e-05,5.113720038e-04,6.709070150e-04,1.883846827e-04,8.592916977e-04,7.285793607e-04,-1.054061607e-05,7.180387446e-04,8.026973740e-04,-2.255692400e-05,7.801404500e-04,-2.843615606e-05,4.617284939e-05,1.773669333e-05,9.388298103e-04,8.349307334e-06,9.471791176e-04,6.624674112e-04,3.640249811e-04,1.026492392e-03
-7.1,2.703110044e-04,-9.857648612e-05,1.717345183e-04,3.375201712e-04,1.201496363e-04,4.576698074e-04,3.266504233e-04,-1.614687857e-04,1.651816376e-04,7.216833221e-04,-2.894825970e-05,6.927350624e-04,5.564865273e-04,-1.770940908e-04,3.793924365e-04,3.756201014e-04,3.059101939e-05,4.062111208e-04,3.298218532e-04,-5.131140308e-05,2.785104501e-04,7.659951367e-04,-5.473553204e-05,7.112596047e-04,2.455023301e-05,-4.099973832e-05,-1.644950531e-05,6.903479929e-04,-1.874416427e-05,6.716038286e-04,2.181375732e-04,1.719122039e-05,2.353287936e-04,4.302137934e-04,6.128381019e-05,4.914976036e-04,3.836623492e-04,2.663861180e-05,4.103009610e-04,5.187912725e-04,8.729343647e-05,6.060847090e-04,1.288034119e-04,2.879935569e-04,4.167969688e-04,1.756784008e-04,9.060354669e-05,2.662819475e-04,6.982272054e-04,9.749624780e-05,7.957234533e-04,5.975942869e-04,3.889099446e-05,6.364852813e-04,8.260554252e-04,1.120040873e-04,9.380595125e-04,7.850772785e-04,1.343684428e-05,7.985141228e-04,-3.655149706e-05,3.882251404e-05,2.271016982e-06,1.739974725e-04,1.884542380e-04,3.624517105e-04,-3.090701256e-05,1.602086738e-04,1.293016612e-04,1.924073936e-04,1.634993292e-04,3.559067229e-04,1.700761038e-04,7.463022572e-05,2.447063295e-04,6.726824854e-04,1.781681303e-05,6.904992984e-04,-2.434694161e-04,-5.100585685e-04,-7.535279846e-04,3.063578354e-04,1.854075246e-04,4.917653600e-04,2.005227066e-05,3.589680473e-04,3.790203179e-04,4.739836896e-04,5.498768641e-05,5.289713760e-04,7.480346228e-04,1.859089351e-04,9.339435579e-04,7.866177744e-04,-3.105179303e-06,7.835125951e-04,8.770809249e-04,-4.036204221e-05,8.367188827e-04,5.024748507e-05,-2.663611463e-05,2.361137044e-05,9.672351362e-04,2.304939857e-05,9.902845347e-04,6.401117238e-04,3.483070786e-04,9.884188024e-04
-7,2.658131633e-04,-9.363019055e-05,1.721829727e-04,3.368117872e-04,1.228606494e-04,4.596724366e-04,3.331677883e-04,-1.584814464e-04,1.746863419e-04,7.688697903e-04,-3.055514167e-05,7.383146486e-04,5.721639514e-04,-1.782905662e-04,3.938733851e-04,3.899381159e-04,2.798620555e-05,4.179243215e-04,3.523055335e-04,-4.802557165e-05,3.042799618e-04,7.846376703e-04,-5.227266291e-05,7.323650074e-04,4.094440943e-05,-4.034981654e-05,5.945928914e-07,7.107607676e-04,-2.014432635e-05,6.906164412e-04,2.419823494e-04,1.573114856e-05,2.577134979e-04,4.821536845e-04,6.236404989e-05,5.445177344e-04,4.637686844e-04,2.856407533e-05,4.923327597e-04,5.324600429e-04,9.994220829e-05,6.324022512e-04,1.789322403e-04,2.969876533e-04,4.759198935e-04,2.215896614e-04,9.539335811e-05,3.169830195e-04,7.354031833e-04,8.809892830e-05,8.235021116e-04,6.029546650e-04,4.100902757e-05,6.439636926e-04,8.125075836e-04,1.171631827e-04,9.296707663e-04,8.106713722e-04,3.728687996e-06,8.144000602e-04,-4.324873021e-06,3.905705110e-05,3.473217808e-05,1.990900845e-04,1.829620924e-04,3.820521770e-04,-1.264144175e-05,1.541680010e-04,1.415265592e-04,2.166498757e-04,1.523443586e-04,3.689942343e-04,1.923852017e-04,7.232330323e-05,2.647085049e-04,6.952805773e-04,2.946953831e-05,7.247501156e-04,-1.490300091e-04,-5.409534093e-04,-6.899834184e-04,3.761614048e-04,2.042942690e-04,5.804556738e-04,7.883030610e-05,3.682460136e-04,4.470763198e-04,4.820716954e-04,6.433081004e-05,5.464025054e-04,8.238875599e-04,1.830338623e-04,1.006921422e-03,8.445479495e-04,3.809223427e-06,8.483571729e-04,9.524434309e-04,-5.843675379e-05,8.940066771e-04,1.334314911e-04,-1.003473810e-04,3.308411010e-05,9.917945703e-04,3.922326177e-05,1.031017832e-03,6.182003543e-04,3.293544730e-04,9.475548273e-04
-6.9,2.628324267e-04,-8.873630729e-05,1.740961194e-04,3.380103496e-04,1.249568122e-04,4.629671618e-04,3.407276398e-04,-1.551606999e-04,1.855669399e-04,8.164788765e-04,-3.218713594e-05,7.842917405e-04,5.878420766e-04,-1.793285048e-04,4.085135719e-04,4.051681160e-04,2.519293532e-05,4.303610513e-04,3.755760194e-04,-4.466736772e-05,3.309086517e-04,8.032567003e-04,-4.987769627e-05,7.533790040e-04,5.858101100e-05,-3.974509743e-05,1.883591357e-05,7.313587949e-04,-2.167893801e-05,7.096798569e-04,2.672413656e-04,1.408693814e-05,2.813283038e-04,5.337947391e-04,6.272337903e-05,5.965181182e-04,5.412831292e-04,3.029455931e-05,5.715776885e-04,5.467223334e-04,1.114445269e-04,6.581668603e-04,2.316234229e-04,3.039540786e-04,5.355775015e-04,2.677656383e-04,9.968293208e-05,3.674485704e-04,7.719524913e-04,7.806859765e-05,8.500210890e-04,6.080380500e-04,4.220816151e-05,6.502462115e-04,7.976727317e-04,1.210629580e-04,9.187356897e-04,8.358905780e-04,-6.080479508e-06,8.298100985e-04,2.921889789e-05,3.902899072e-05,6.824788861e-05,2.257889899e-04,1.770048943e-04,4.027938842e-04,7.554798395e-06,1.473991662e-04,1.549539646e-04,2.425604337e-04,1.406326909e-04,3.831931246e-04,2.161495569e-04,6.842623319e-05,2.845757901e-04,7.183637235e-04,3.975101077e-05,7.581147343e-04,-5.458118601e-05,-5.675230431e-04,-6.221042291e-04,4.473467528e-04,2.210163445e-04,6.683630972e-04,1.389179100e-04,3.764513048e-04,5.153692147e-04,4.909416188e-04,7.259130662e-05,5.635329254e-04,8.980623529e-04,1.798024566e-04,1.077864809e-03,9.019709369e-04,1.017286230e-05,9.121437992e-04,1.028153089e-03,-7.651974798e-05,9.516333407e-04,2.201379972e-04,-1.741109230e-04,4.602707414e-05,1.012631394e-03,5.649801743e-05,1.069129411e-03,5.969132536e-04,3.071773449e-04,9.040905984e-04
-6.8,2.611862801e-04,-8.388048415e-05,1.773057959e-04,3.410245881e-04,1.264309744e-04,4.674555625e-04,3.491004254e-04,-1.514984658e-04,1.976019596e-04,8.641299436e-04,-3.380802359e-05,8.303219200e-04,6.033607888e-04,-1.801818117e-04,4.231789771e-04,4.212708704e-04,2.220644979e-05,4.434773201e-04,3.994695873e-04,-4.124482036e-05,3.582247669e-04,8.216323112e-04,-4.756704869e-05,7.740652626e-04,7.735114073e-05,-3.918163898e-05,3.816950175e-05,7.518987545e-04,-2.334501790e-05,7.285537366e-04,2.936669724e-04,1.225133891e-05,3.059183113e-04,5.847113276e-04,6.242880699e-05,6.471401346e-04,6.158053973e-04,3.174929541e-05,6.475546928e-04,5.614065104e-04,1.217379819e-04,6.831444923e-04,2.866221342e-04,3.088613291e-04,5.954834633e-04,3.140048547e-04,1.034410061e-04,4.174458607e-04,8.076372922e-04,6.741225621e-05,8.750495484e-04,6.128283147e-04,4.248008594e-05,6.553084006e-04,7.816404529e-04,1.236478202e-04,9.052882731e-04,8.604286282e-04,-1.592482948e-05,8.445037987e-04,6.380617350e-05,3.874810344e-05,1.025542769e-04,2.539068204e-04,1.706109656e-04,4.245177860e-04,2.944759310e-05,1.399622892e-04,1.694098823e-04,2.699248780e-04,1.284343284e-04,3.983592063e-04,2.411485400e-04,6.298573428e-05,3.041342743e-04,7.416154047e-04,4.863740702e-05,7.902528117e-04,3.949400249e-05,-5.896238891e-04,-5.501298866e-04,5.192954190e-04,2.355886412e-04,7.548840602e-04,2.000991651e-04,3.834795712e-04,5.835787363e-04,5.005595612e-04,7.966309921e-05,5.802226604e-04,9.701510123e-04,1.762591704e-04,1.146410183e-03,9.584696914e-04,1.597367756e-05,9.744433690e-04,1.103540205e-03,-9.434912820e-05,1.009191076e-03,3.093334850e-04,-2.470713923e-04,6.226209271e-05,1.029883721e-03,7.449921904e-05,1.104382940e-03,5.764050402e-04,2.818252983e-04,8.582303386e-04
-6.7,2.606737651e-04,-7.904827457e-05,1.816254905e-04,3.457381609e-04,1.272774241e-04,4.730155850e-04,3.580410104e-04,-1.474887233e-04,2.105522871e-04,9.114207922e-04,-3.538070880e-05,8.760400834e-04,6.185412867e-04,-1.808226880e-04,4.377185987e-04,4.381838826e-04,1.903058791e-05,4.572144705e-04,4.238017165e-04,-3.776647240e-05,3.860352441e-04,8.395255138e-04,-4.534558696e-05,7.941799269e-04,9.712367395e-05,-3.865440006e-05,5.846927389e-05,7.721198734e-04,-2.513787073e-05,7.469820027e-04,3.209873913e-04,1.021922921e-05,3.312066206e-04,6.344729189e-04,6.155307439e-05,6.960259933e-04,6.869713901e-04,3.285222412e-05,7.198236142e-04,5.763211111e-04,1.307756239e-04,7.070967349e-04,3.436314889e-04,3.116941957e-04,6.553256846e-04,3.601022379e-04,1.066372304e-04,4.667394683e-04,8.421863757e-04,5.615454834e-05,8.983409240e-04,6.172992476e-04,4.182952684e-05,6.591287744e-04,7.645002084e-04,1.248777409e-04,8.893779493e-04,8.839732873e-04,-2.573842707e-05,8.582348602e-04,9.914834968e-05,3.822564099e-05,1.373739907e-04,2.832299014e-04,1.638084958e-04,4.470383972e-04,5.278392843e-05,1.319203263e-04,1.847042547e-04,2.985030279e-04,1.158207106e-04,4.143237385e-04,2.671432406e-04,5.607109361e-05,3.232143342e-04,7.647082919e-04,5.612296555e-05,8.208312575e-04,1.327458455e-04,-6.070887402e-04,-4.743428947e-04,5.913775582e-04,2.480411049e-04,8.394186631e-04,2.621448309e-04,3.892294280e-04,6.513742589e-04,5.108689438e-04,8.545939768e-05,5.963283415e-04,1.039745863e-03,1.724485868e-04,1.212194450e-03,1.013614674e-03,2.121606156e-05,1.034830736e-03,1.177911056e-03,-1.116674700e-04,1.066243586e-03,3.999483759e-04,-3.183775801e-04,8.157079579e-05,1.043696543e-03,9.285802932e-05,1.136554572e-03,5.567966324e-04,2.533934707e-04,8.101901032e-04
-6.6,2.610811576e-04,-7.422499452e-05,1.868561631e-04,3.520130573e-04,1.274917573e-04,4.795048146e-04,3.672944843e-04,-1.431274640e-04,2.241670203e-04,9.579364803e-04,-3.686818328e-05,9.210682970e-04,6.331920868e-04,-1.812220721e-04,4.519700147e-04,4.558224280e-04,1.567758485e-05,4.715000128e-04,4.483730633e-04,-3.424135634e-05,4.141317070e-04,8.566838094e-04,-4.320728868e-05,8.134765207e-04,1.177499262e-04,-3.815755675e-05,7.959236946e-05,7.917512208e-04,-2.705103030e-05,7.647001905e-04,3.489152353e-04,7.987761199e-06,3.569029965e-04,6.826565387e-04,6.017405183e-05,7.428305906e-04,7.544617758e-04,3.353134219e-05,7.879931180e-04,5.912627739e-04,1.385262439e-04,7.297890177e-04,4.023196704e-04,3.124532989e-04,7.147729693e-04,4.058532263e-04,1.092425829e-04,5.150958092e-04,8.752997056e-04,4.433848724e-05,9.196381928e-04,6.214165440e-04,4.027433133e-05,6.616908753e-04,7.463401561e-04,1.247287769e-04,8.710689330e-04,9.062131642e-04,-3.545572868e-05,8.707574356e-04,1.349492471e-04,3.747426589e-05,1.724235130e-04,3.135249941e-04,1.566255812e-04,4.701505753e-04,7.729943145e-05,1.233383704e-04,2.006378018e-04,3.280359770e-04,1.028642563e-04,4.309002334e-04,2.938846245e-04,4.777307990e-05,3.416577044e-04,7.873138172e-04,6.222012010e-05,8.495339373e-04,2.246599666e-04,-6.197184173e-04,-3.950584507e-04,6.629703476e-04,2.584164455e-04,9.213867931e-04,3.248156662e-04,3.936047696e-04,7.184204358e-04,5.217960113e-04,8.991249946e-05,6.117085108e-04,1.106446132e-03,1.684136716e-04,1.274859803e-03,1.066970538e-03,2.591882864e-05,1.092889366e-03,1.250562674e-03,-1.282264475e-04,1.122336227e-03,4.908938706e-04,-3.871887854e-04,1.037050852e-04,1.054217692e-03,1.112149876e-04,1.165432680e-03,5.381679924e-04,2.220291801e-04,7.601971725e-04
-6.5,2.621880376e-04,-6.939567236e-05,1.927923653e-04,3.596933949e-04,1.270709993e-04,4.867643942e-04,3.766022667e-04,-1.384126357e-04,2.381896310e-04,1.003258556e-03,-3.823452960e-05,9.650240267e-04,6.471155000e-04,-1.813500993e-04,4.657654007e-04,4.740813461e-04,1.216734947e-05,4.862486955e-04,4.729758890e-04,-3.067896439e-05,4.422969246e-04,8.728468494e-04,-4.113611508e-05,8.317107343e-04,1.390683872e-04,-3.768488240e-05,1.013835048e-04,8.105188574e-04,-2.907639953e-05,7.814424579e-04,3.771557274e-04,5.556413237e-06,3.827121406e-04,7.288582356e-04,5.837409780e-05,7.872323334e-04,8.180076837e-04,3.371887269e-05,8.517265564e-04,6.060240579e-04,1.449741119e-04,7.509981698e-04,4.623270661e-04,3.111545636e-04,7.734816297e-04,4.510576088e-04,1.112301375e-04,5.622877463e-04,9.066541948e-04,3.202598390e-05,9.386801787e-04,6.251407453e-04,3.784492289e-05,6.629856682e-04,7.272468889e-04,1.231938807e-04,8.504407696e-04,9.268444659e-04,-4.501254470e-05,8.818319212e-04,1.709121928e-04,3.650793041e-05,2.074201232e-04,3.445457951e-04,1.490900886e-04,4.936358837e-04,1.027251144e-04,1.142828806e-04,2.170079951e-04,3.582525594e-04,8.963772225e-05,4.478902817e-04,3.211220161e-04,3.820231159e-05,3.593243277e-04,8.091114705e-04,6.695936076e-05,8.760708313e-04,3.146639539e-04,-6.272797165e-04,-3.126157626e-04,7.334750495e-04,2.667691134e-04,1.000244163e-03,3.878656938e-04,3.965166200e-04,7.843823138e-04,5.332548503e-04,9.297372247e-05,6.262285727e-04,1.169864439e-03,1.641940809e-04,1.334058520e-03,1.118103186e-03,3.011249321e-05,1.148215680e-03,1.320795222e-03,-1.437893570e-04,1.177005865e-03,5.810752639e-04,-4.526805473e-04,1.283947166e-04,1.061596777e-03,1.292204719e-04,1.190817249e-03,5.205527769e-04,1.879365188e-04,7.084892957e-04
-6.4,2.637728108e-04,-6.454525872e-05,1.992275521e-04,3.686086065e-04,1.260137543e-04,4.946223607e-04,3.857074498e-04,-1.333441853e-04,2.523632645e-04,1.046973515e-03,-3.944587610e-05,1.007527639e-03,6.601132893e-04,-1.811765718e-04,4.789367175e-04,4.928366542e-04,8.526358831e-06,5.013630130e-04,4.973997161e-04,-2.708923226e-05,4.703104839e-04,8.877516674e-04,-3.910698495e-05,8.486446825e-04,1.609085363e-04,-3.723006494e-05,1.236784714e-04,8.281513930e-04,-3.120446958e-05,7.969469234e-04,4.054130745e-04,2.927018890e-06,4.083400934e-04,7.727004054e-04,5.623890801e-05,8.289393134e-04,8.773916568e-04,3.335231639e-05,9.107439732e-04,6.203987808e-04,1.501182574e-04,7.705170382e-04,5.232711584e-04,3.078293647e-04,8.311005231e-04,4.955217498e-04,1.125760389e-04,6.080977887e-04,9.359103890e-04,1.929740552e-05,9.552077946e-04,6.284296302e-04,3.458294943e-05,6.630125796e-04,7.073046696e-04,1.202839219e-04,8.275885915e-04,9.455765149e-04,-5.434743444e-05,8.912290805e-04,2.067454242e-04,3.534173901e-05,2.420871632e-04,3.760378654e-04,1.412294576e-04,5.172673231e-04,1.287921638e-04,1.048208566e-04,2.336130203e-04,3.888740787e-04,7.621346019e-05,4.650875389e-04,3.486094679e-04,2.748745614e-05,3.760969241e-04,8.297952933e-04,7.038855659e-05,9.001838499e-04,4.021393109e-04,-6.295130241e-04,-2.273737132e-04,8.023280211e-04,2.731655574e-04,1.075493579e-03,4.510439736e-04,3.978844447e-04,8.489284183e-04,5.451501815e-04,9.461382949e-05,6.397640110e-04,1.229631623e-03,1.598248953e-04,1.389456518e-03,1.166586673e-03,3.383586874e-05,1.200422541e-03,1.387920699e-03,-1.581313363e-04,1.229789363e-03,6.694043414e-04,-5.140536383e-04,1.553507030e-04,1.065984375e-03,1.465339421e-04,1.212518317e-03,5.039365518e-04,1.513760563e-04,6.553126081e-04
-6.3,2.656170165e-04,-5.965911074e-05,2.059579058e-04,3.785753185e-04,1.243203314e-04,5.028956499e-04,3.943587686e-04,-1.279242134e-04,2.664345552e-04,1.088679714e-03,-4.047119705e-05,1.048208517e-03,6.719907257e-04,-1.806714277e-04,4.913192980e-04,5.119465090e-04,4.786246170e-06,5.167327551e-04,5.214354392e-04,-2.348251155e-05,4.979529276e-04,9.011374137e-04,-3.708699861e-05,8.640504151e-04,1.830933060e-04,-3.678687647e-05,1.463064295e-04,8.443833509e-04,-3.342447827e-05,8.109588726e-04,4.333944130e-04,1.038206985e-07,4.334982337e-04,8.138344689e-04,5.385542306e-05,8.676898919e-04,9.324441274e-04,3.237615638e-05,9.648202837e-04,6.341839321e-04,1.539714221e-04,7.881553541e-04,5.847484092e-04,3.025257873e-04,8.872741965e-04,5.390584601e-04,1.132607227e-04,6.523191827e-04,9.627198425e-04,6.249758279e-06,9.689696008e-04,6.312389461e-04,3.053927095e-05,6.617782171e-04,6.865936882e-04,1.160280521e-04,8.026217403e-04,9.621351808e-04,-6.340308114e-05,8.987320997e-04,2.421653677e-04,3.399173130e-05,2.761570990e-04,4.077416521e-04,1.330704100e-04,5.408120621e-04,1.552345512e-04,9.501897992e-05,2.502535312e-04,4.196172226e-04,6.266267300e-05,4.822798956e-04,3.761088883e-04,1.577305235e-05,3.918819407e-04,8.490765216e-04,7.257163749e-05,9.216481591e-04,4.864410601e-04,-6.261522668e-04,-1.397112067e-04,8.690051825e-04,2.776845786e-04,1.146689761e-03,5.140943215e-04,3.976370630e-04,9.117313845e-04,5.573774612e-04,9.482359214e-05,6.522010533e-04,1.285399548e-03,1.553357004e-04,1.440735248e-03,1.212009424e-03,3.713209750e-05,1.249141522e-03,1.451268929e-03,-1.710391368e-04,1.280229792e-03,7.548125623e-04,-5.705489390e-04,1.842636233e-04,1.067528900e-03,1.628248662e-04,1.230353766e-03,4.882596711e-04,1.126589713e-04,6.009186424e-04
-6.2,2.675082058e-04,-5.472362851e-05,2.127845773e-04,3.893976649e-04,1.219930182e-04,5.113906831e-04,4.023131076e-04,-1.221571480e-04,2.801559596e-04,1.127992473e-03,-4.128285930e-05,1.086709614e-03,6.825588784e-04,-1.798051731e-04,5.027537053e-04,5.312514864e-04,9.821475449e-07,5.322336340e-04,5.448777004e-04,-1.986949605e-05,5.250082044e-04,9.127496811e-04,-3.503743688e-05,8.777122442e-04,2.054402741e-04,-3.634921394e-05,1.690910602e-04,8.589565101e-04,-3.572445796e-05,8.232320522e-04,4.608115633e-04,-2.906475650e-06,4.579050877e-04,8.519401613e-04,5.130869418e-05,9.032488555e-04,9.830370872e-04,3.074376947e-05,1.013780857e-03,6.471786281e-04,1.565587176e-04,8.037373458e-04,6.463339507e-04,2.953104875e-04,9.416444382e-04,5.814846273e-04,1.132703206e-04,6.947549479e-04,9.867326821e-04,-7.006103046e-06,9.797265791e-04,6.335210711e-04,2.577186004e-05,6.592929312e-04,6.651876715e-04,1.104727578e-04,7.756604293e-04,9.762641174e-04,-7.212725604e-05,9.041368613e-04,2.768980993e-04,3.247450277e-05,3.093726021e-04,4.393940482e-04,1.246384517e-04,5.640324999e-04,1.817899211e-04,8.494278851e-05,2.667327096e-04,4.501956709e-04,4.905475639e-05,4.992504273e-04,4.033897959e-04,3.216851778e-06,4.066066477e-04,8.666826763e-04,7.358675636e-05,9.402694327e-04,5.669243801e-04,-6.169544245e-04,-5.003004438e-05,9.330221322e-04,2.804163514e-04,1.213438484e-03,5.767532854e-04,3.957134511e-04,9.724667365e-04,5.698206022e-04,9.361413280e-05,6.634347350e-04,1.336842601e-03,1.507496368e-04,1.487592238e-03,1.253979358e-03,4.004453736e-05,1.294023895e-03,1.510192568e-03,-1.823128813e-04,1.327879687e-03,8.362643318e-04,-6.214677703e-04,2.147965615e-04,1.066371019e-03,1.777762817e-04,1.244147301e-03,4.734238533e-04,7.213742173e-05,5.455612750e-04
-6.1,2.692415956e-04,-4.972690648e-05,2.195146891e-04,4.008663308e-04,1.190366513e-04,5.199029821e-04,4.093368581e-04,-1.160498469e-04,2.932870112e-04,1.164547482e-03,-4.185690334e-05,1.122690578e-03,6.916354797e-04,-1.785492577e-04,5.130862220e-04,5.505743379e-04,-2.849036395e-06,5.477253015e-04,5.675258271e-04,-1.626109525e-05,5.512647319e-04,9.223446038e-04,-3.291718550e-05,8.894274182e-04,2.277620337e-04,-3.591108874e-05,1.918509449e-04,8.716199120e-04,-3.809119840e-05,8.335287135e-04,4.873813783e-04,-6.094699524e-06,4.812866787e-04,8.867231051e-04,4.867811280e-05,9.354012179e-04,1.029076375e-03,2.841934825e-05,1.057495724e-03,6.591814900e-04,1.579160487e-04,8.170975387e-04,7.075805856e-04,2.862701511e-04,9.938507366e-04,6.226174820e-04,1.125979722e-04,7.352154542e-04,1.007604789e-03,-2.034852666e-05,9.872562621e-04,6.352220708e-04,2.034414028e-05,6.555662111e-04,6.431512690e-04,1.036798411e-04,7.468311101e-04,9.877244812e-04,-8.047334722e-05,9.072511339e-04,3.106796713e-04,3.080671920e-05,3.414863905e-04,4.707291794e-04,1.159572035e-04,5.866863828e-04,2.081995855e-04,7.465597565e-05,2.828555611e-04,4.803211888e-04,3.545678438e-05,5.157779731e-04,4.302263778e-04,-1.001303565e-05,4.202133421e-04,8.823544082e-04,7.352410607e-05,9.558785143e-04,6.429730154e-04,-6.017306989e-04,4.124231652e-05,9.939323728e-04,2.814594230e-04,1.275391796e-03,6.387471312e-04,3.920638440e-04,1.030810975e-03,5.823481526e-04,9.101703099e-05,6.733651836e-04,1.383658659e-03,1.460823868e-04,1.529741046e-03,1.292127824e-03,4.261293957e-05,1.334740763e-03,1.564072299e-03,-1.917707974e-04,1.372301501e-03,9.127698864e-04,-6.661946409e-04,2.465752455e-04,1.062637648e-03,1.910896561e-04,1.253727304e-03,4.592996703e-04,3.019411104e-05,4.894937814e-04
-6,2.706209929e-04,-4.465931684e-05,2.259616761e-04,4.127571941e-04,1.154593986e-04,5.282165927e-04,4.152067499e-04,-1.096116270e-04,3.055951229e-04,1.198002945e-03,-4.217315777e-05,1.155829787e-03,6.990450786e-04,-1.768764261e-04,5.221686524e-04,5.697196151e-04,-6.670286732e-06,5.630493284e-04,5.891839802e-04,-1.266826142e-05,5.765157188e-04,9.296930092e-04,-3.068781240e-05,8.990051968e-04,2.498664298e-04,-3.546662000e-05,2.143998098e-04,8.821295436e-04,-4.051015505e-05,8.416193885e-04,5.128258206e-04,-9.449272143e-06,5.033765484e-04,9.179125622e-04,4.603349400e-05,9.639460562e-04,1.070493610e-03,2.537982163e-05,1.095873432e-03,6.699883014e-04,1.580884754e-04,8.280767768e-04,7.680186298e-04,2.755118618e-04,1.043530492e-03,6.622710773e-04,1.112446196e-04,7.735156969e-04,1.025004587e-03,-3.364801356e-05,9.913565733e-04,6.362781796e-04,1.432393671e-05,6.506021164e-04,6.205376054e-04,9.572392223e-05,7.162615276e-04,9.962941940e-04,-8.840064721e-05,9.078935468e-04,3.432562003e-04,2.900469958e-05,3.722608999e-04,5.014790944e-04,1.070478444e-04,6.085269387e-04,2.342086955e-04,6.421987005e-05,2.984285655e-04,5.097050893e-04,2.193315891e-05,5.316382482e-04,4.563935070e-04,-2.374103875e-05,4.326524683e-04,8.958421003e-04,7.248353144e-05,9.683256317e-04,7.140231180e-04,-5.803721360e-04,1.336509820e-04,1.051325917e-03,2.809157154e-04,1.332241632e-03,6.997887466e-04,3.866515455e-04,1.086440292e-03,5.948092366e-04,8.708437035e-05,6.818936069e-04,1.425569915e-03,1.413415498e-04,1.566911464e-03,1.326112805e-03,4.487015484e-05,1.370982960e-03,1.612322125e-03,-1.992556878e-04,1.413066437e-03,9.833993020e-04,-7.042191554e-04,2.791801466e-04,1.056437395e-03,2.024898225e-04,1.258927218e-03,4.457321198e-04,-1.276610610e-05,4.329660137e-04
-5.9,2.714596382e-04,-3.951397375e-05,2.319456645e-04,4.248307935e-04,1.112734636e-04,5.361042571e-04,4.197109667e-04,-1.028542603e-04,3.168567065e-04,1.228041128e-03,-4.221531062e-05,1.185825818e-03,7.046194224e-04,-1.747611066e-04,5.298583158e-04,5.884739184e-04,-1.044595730e-05,5.780279611e-04,6.096613627e-04,-9.101762137e-06,6.005596005e-04,9.345847078e-04,-2.831960829e-05,9.062650995e-04,2.715574711e-04,-3.501004579e-05,2.365474253e-04,8.902488955e-04,-4.296533639e-05,8.472835591e-04,5.368730679e-04,-1.295628165e-05,5.239167862e-04,9.452616921e-04,4.343137437e-05,9.886930664e-04,1.107239642e-03,2.161621218e-05,1.128855854e-03,6.793919294e-04,1.571287318e-04,8.365206612e-04,8.271580484e-04,2.631623693e-04,1.090320418e-03,7.002548937e-04,1.092188953e-04,8.094737890e-04,1.038619979e-03,-4.677000177e-05,9.918499769e-04,6.366128153e-04,7.783033369e-06,6.443958487e-04,5.973865598e-04,8.668990411e-05,6.840764639e-04,1.001767837e-03,-9.587452396e-05,9.058933127e-04,3.743847719e-04,2.708417689e-05,4.014689488e-04,5.313752031e-04,9.792893691e-05,6.293041400e-04,2.595677055e-04,5.369307140e-05,3.132607769e-04,5.380608947e-04,8.545390314e-06,5.466062850e-04,4.816638706e-04,-3.778713306e-05,4.438767375e-04,9.069044314e-04,7.057204312e-05,9.774764746e-04,7.795806382e-04,-5.528681735e-04,2.267124647e-04,1.104829809e-03,2.788844841e-04,1.383714293e-03,7.595756325e-04,3.794555049e-04,1.139031137e-03,6.070305015e-04,8.188905961e-05,6.889195611e-04,1.462324092e-03,1.365267674e-04,1.598850859e-03,1.355621797e-03,4.683974547e-05,1.402461543e-03,1.654394082e-03,-2.046405720e-04,1.449753511e-03,1.047299476e-03,-7.351549609e-04,3.121445153e-04,1.047857934e-03,2.117301881e-04,1.259588122e-03,4.325430894e-04,-5.632084277e-05,3.762222466e-04
-5.8,2.715816156e-04,-3.428701950e-05,2.372945961e-04,4.368337649e-04,1.064954083e-04,5.433291732e-04,4.226512661e-04,-9.579192364e-05,3.268593425e-04,1.254369958e-03,-4.197099326e-05,1.212398964e-03,7.081989447e-04,-1.721798610e-04,5.360190837e-04,6.066076066e-04,-1.414313428e-05,5.924644723e-04,6.287732972e-04,-5.571903321e-06,6.232013939e-04,9.368326665e-04,-2.579701833e-05,9.110356482e-04,2.926375684e-04,-3.453577184e-05,2.581017966e-04,8.957513777e-04,-4.543925517e-05,8.503121225e-04,5.592606469e-04,-1.659956458e-05,5.426610823e-04,9.685519174e-04,4.091218504e-05,1.009464102e-03,1.139282034e-03,1.713353362e-05,1.156415568e-03,6.871858715e-04,1.550960310e-04,8.422819025e-04,8.844940366e-04,2.493666282e-04,1.133860665e-03,7.363757525e-04,1.065361266e-04,8.429118791e-04,1.048166105e-03,-5.957749109e-05,9.885886137e-04,6.361352160e-04,7.972853419e-07,6.369325013e-04,5.737244104e-04,7.667083389e-05,6.503952443e-04,1.003958000e-03,-1.028664648e-04,9.010915349e-04,4.038360379e-04,2.506018629e-05,4.288962242e-04,5.601513249e-04,8.861658609e-05,6.487679110e-04,2.840357765e-04,4.313117214e-05,3.271669486e-04,5.651085774e-04,-4.648086595e-06,5.604604908e-04,5.058080320e-04,-5.197002758e-05,4.538380044e-04,9.153106680e-04,6.790130649e-05,9.832119744e-04,8.392365122e-04,-5.193209277e-04,3.199155845e-04,1.154111510e-03,2.754566337e-04,1.429568144e-03,8.177902483e-04,3.704732049e-04,1.188263453e-03,6.188149697e-04,7.552549219e-05,6.943404619e-04,1.493696915e-03,1.316303799e-04,1.625327295e-03,1.380374775e-03,4.853497905e-05,1.428909754e-03,1.689782469e-03,-2.078316558e-04,1.481950813e-03,1.103713616e-03,-7.587533986e-04,3.449602171e-04,1.036965203e-03,2.185988483e-04,1.255564051e-03,4.195316909e-04,-1.000311634e-04,3.195005275e-04
-5.7,2.708241798e-04,-2.897767416e-05,2.418465056e-04,4.485026730e-04,1.011459360e-04,5.496486089e-04,4.238463143e-04,-8.844104430e-05,3.354052701e-04,1.276725008e-03,-4.143186754e-05,1.235293140e-03,7.096356815e-04,-1.691118656e-04,5.405238159e-04,6.238783064e-04,-1.773285223e-05,6.061454541e-04,6.463435471e-04,-2.088282169e-06,6.442552649e-04,9.362768060e-04,-2.312195616e-05,9.131548499e-04,3.129111345e-04,-3.403849724e-05,2.788726372e-04,8.984246731e-04,-4.791306708e-05,8.505116060e-04,5.797405638e-04,-2.036084293e-05,5.593797208e-04,9.876005008e-04,3.849914535e-05,1.026099646e-03,1.166607550e-03,1.194921032e-05,1.178556760e-03,6.931710950e-04,1.520550788e-04,8.452261738e-04,9.395163261e-04,2.342856008e-04,1.173801927e-03,7.704425534e-04,1.032170522e-04,8.736596056e-04,1.053394318e-03,-7.193374241e-05,9.814605753e-04,6.347415325e-04,-6.552968003e-06,6.281885645e-04,5.495649644e-04,6.576665169e-05,6.153316161e-04,1.002698162e-03,-1.093539860e-04,8.933441756e-04,4.313984757e-04,2.294697761e-05,4.543454533e-04,5.875484017e-04,7.912467386e-05,6.666730755e-04,3.073856617e-04,3.258650704e-05,3.399721688e-04,5.905798297e-04,-1.759215926e-05,5.729876705e-04,5.285982883e-04,-6.611078065e-05,4.624875077e-04,9.208469727e-04,6.458521636e-05,9.854321891e-04,8.926857802e-04,-4.799579386e-04,4.127278416e-04,1.198886046e-03,2.707098885e-04,1.469595935e-03,8.741032321e-04,3.597231134e-04,1.233826346e-03,6.299433341e-04,6.810978178e-05,6.980531159e-04,1.519496203e-03,1.266381514e-04,1.646134355e-03,1.400127824e-03,4.995908051e-05,1.450086904e-03,1.718028600e-03,-2.087687312e-04,1.509259869e-03,1.151999952e-03,-7.749089185e-04,3.770910332e-04,1.023804149e-03,2.229258093e-04,1.246729958e-03,4.064751539e-04,-1.434410855e-04,2.630340685e-04
-5.6,2.690406968e-04,-2.358804731e-05,2.454526495e-04,4.595695218e-04,9.524925908e-05,5.548187808e-04,4.231356745e-04,-8.082004776e-05,3.423156267e-04,1.294871545e-03,-4.059370479e-05,1.254277841e-03,7.087970678e-04,-1.655393761e-04,5.432576916e-04,6.400357804e-04,-2.119110761e-05,6.188446728e-04,6.622074812e-04,1.340285408e-06,6.635477666e-04,9.327873910e-04,-2.031477914e-05,9.124726119e-04,3.321887905e-04,-3.351341303e-05,2.986753774e-04,8.980759163e-04,-5.036695250e-05,8.477089638e-04,5.980851108e-04,-2.421995707e-05,5.738651537e-04,1.002268191e-03,3.619901876e-05,1.038467210e-03,1.189227891e-03,6.090938996e-06,1.195318830e-03,6.971639150e-04,1.480750745e-04,8.452389894e-04,9.917212279e-04,2.180927465e-04,1.209813974e-03,8.022719890e-04,9.928687927e-05,9.015588683e-04,1.054101791e-03,-8.370550161e-05,9.703962895e-04,6.323181303e-04,-1.418261854e-05,6.181355118e-04,5.249113532e-04,5.408399082e-05,5.789953441e-04,9.978461722e-04,-1.153204812e-04,8.825256909e-04,4.568830953e-04,2.075793094e-05,4.776410263e-04,6.133196664e-04,6.946504981e-05,6.827847162e-04,3.294085875e-04,2.210790219e-05,3.515164897e-04,6.142230079e-04,-3.023535566e-05,5.839876522e-04,5.498156753e-04,-8.003720562e-05,4.697784697e-04,9.233247573e-04,6.073772193e-05,9.840624792e-04,9.397522938e-04,-4.351444199e-04,5.046078739e-04,1.238925604e-03,2.647049947e-04,1.503630599e-03,9.281786619e-04,3.472460166e-04,1.275424678e-03,6.401775111e-04,5.977854093e-05,6.999560520e-04,1.539566489e-03,1.215299942e-04,1.661096483e-03,1.414677476e-03,5.110600763e-05,1.465783484e-03,1.738726383e-03,-2.074241036e-04,1.531302279e-03,1.191646074e-03,-7.836554623e-04,4.079906120e-04,1.008400125e-03,2.245911909e-04,1.232991316e-03,3.931328190e-04,-1.860786898e-04,2.070541292e-04
-5.5,2.661033264e-04,-1.812281399e-05,2.479805124e-04,4.697674431e-04,8.883242955e-05,5.585998727e-04,4.203833804e-04,-7.294911538e-05,3.474342650e-04,1.308605795e-03,-3.945646493e-05,1.269149331e-03,7.055694791e-04,-1.614481511e-04,5.441213279e-04,6.548272585e-04,-2.449964012e-05,6.303276184e-04,6.762150656e-04,4.705580783e-06,6.809206464e-04,9.262677999e-04,-1.741385743e-05,9.088539424e-04,3.502911259e-04,-3.295637790e-05,3.173347480e-04,8.945360757e-04,-5.278064123e-05,8.417554345e-04,6.140915725e-04,-2.815515163e-05,5.859364208e-04,1.012463753e-03,3.400398966e-05,1.046467742e-03,1.207185508e-03,-4.052585020e-07,1.206780250e-03,6.990020797e-04,1.432285930e-04,8.422306727e-04,1.040624192e-03,2.009689663e-04,1.241593159e-03,8.316932764e-04,9.477479969e-05,9.264680761e-04,1.050140171e-03,-9.476688172e-05,9.553732892e-04,6.287455260e-04,-2.200186696e-05,6.067436591e-04,4.997575056e-04,4.173641797e-05,5.414939236e-04,9.892869727e-04,-1.207550555e-04,8.685319171e-04,4.801269599e-04,1.850551960e-05,4.986324795e-04,6.372345776e-04,5.964777317e-05,6.968823508e-04,3.499175816e-04,1.174041511e-05,3.616579967e-04,6.358064446e-04,-4.253013591e-05,5.932763087e-04,5.692579385e-04,-9.358873096e-05,4.756692076e-04,9.225877100e-04,5.647101166e-05,9.790587217e-04,9.804145873e-04,-3.853950705e-04,5.950195168e-04,1.274066563e-03,2.574841761e-04,1.531550739e-03,9.796796627e-04,3.331048949e-04,1.312784558e-03,6.492655159e-04,5.068601034e-05,6.999515263e-04,1.553792430e-03,1.162808821e-04,1.670073313e-03,1.423864582e-03,5.196134945e-05,1.475825931e-03,1.751527422e-03,-2.038005716e-04,1.547726850e-03,1.222277914e-03,-7.851566388e-04,4.371212750e-04,9.907595126e-04,2.235338527e-04,1.214293365e-03,3.792530931e-04,-2.274606570e-04,1.517924361e-04
-5.4,2.619045596e-04,-1.258891273e-05,2.493156468e-04,4.788352437e-04,8.192493063e-05,5.607601743e-04,4.154801413e-04,-6.485005112e-05,3.506300902e-04,1.317754679e-03,-3.802435881e-05,1.279730320e-03,6.998604743e-04,-1.568278153e-04,5.430326590e-04,6.680023924e-04,-2.764650893e-05,6.403558835e-04,6.882326220e-04,7.999629534e-06,6.962322515e-04,9.166558276e-04,-1.447441105e-05,9.021814165e-04,3.670512696e-04,-3.236394474e-05,3.346873248e-04,8.876623657e-04,-5.513388616e-05,8.325284795e-04,6.275846579e-04,-3.214332375e-05,5.954413341e-04,1.018143636e-03,3.189389213e-05,1.050037528e-03,1.220556604e-03,-7.496461081e-06,1.213060142e-03,6.985472075e-04,1.375904962e-04,8.361377036e-04,1.085769969e-03,1.830969364e-04,1.268866905e-03,8.585507622e-04,8.971365938e-05,9.482644216e-04,1.041421472e-03,-1.050033634e-04,9.364181088e-04,6.239012030e-04,-2.991662138e-05,5.939845816e-04,4.740889247e-04,2.884400290e-05,5.029329276e-04,9.769335417e-04,-1.256522664e-04,8.512812753e-04,5.009944886e-04,1.620130812e-05,5.171957968e-04,6.590805197e-04,4.968148760e-05,7.087620073e-04,3.687484991e-04,1.525076622e-06,3.702735757e-04,6.551195752e-04,-5.443304128e-05,6.006865339e-04,5.867456697e-04,-1.066204279e-04,4.801252418e-04,9.185147462e-04,5.189407172e-05,9.704088180e-04,1.014825953e-03,-3.313833573e-04,6.834425956e-04,1.304209190e-03,2.490727442e-04,1.553281934e-03,1.028272891e-03,3.173833909e-04,1.345656282e-03,6.569465425e-04,4.100031664e-05,6.979468592e-04,1.562100074e-03,1.108618658e-04,1.672961940e-03,1.427575926e-03,5.250361389e-05,1.480079540e-03,1.756143496e-03,-1.979285205e-04,1.558214975e-03,1.243664284e-03,-7.796928161e-04,4.639714680e-04,9.708688432e-04,2.197590478e-04,1.190627891e-03,3.645805696e-04,-2.670995742e-04,9.748099536e-05
-5.3,2.563571700e-04,-6.995335632e-06,2.493618343e-04,4.865202083e-04,7.455858857e-05,5.610787969e-04,4.083437372e-04,-5.654624195e-05,3.517974953e-04,1.322173817e-03,-3.630583121e-05,1.285867986e-03,6.915992100e-04,-1.516721199e-04,5.399270902e-04,6.793172658e-04,-3.062650670e-05,6.486907591e-04,6.981427542e-04,1.121436434e-05,7.093571186e-04,9.039224567e-04,-1.156642306e-05,8.923560336e-04,3.823160430e-04,-3.173319171e-05,3.505828513e-04,8.773383350e-04,-5.740675154e-05,8.199315835e-04,6.384164135e-04,-3.616019878e-05,6.022562148e-04,1.019306516e-03,2.983852913e-05,1.049145045e-03,1.229449622e-03,-1.513342650e-05,1.214316196e-03,6.956832030e-04,1.312370877e-04,8.269202906e-04,1.126737978e-03,1.646563430e-04,1.291394321e-03,8.827040898e-04,8.413948092e-05,9.668435707e-04,1.027920065e-03,-1.143151699e-04,9.136048950e-04,6.176606414e-04,-3.782929183e-05,5.798313495e-04,4.478825814e-04,1.553161405e-05,4.634141954e-04,9.607257592e-04,-1.300116795e-04,8.307140797e-04,5.193764223e-04,1.385588956e-05,5.332323119e-04,6.786623170e-04,3.957388178e-05,7.182361988e-04,3.857588510e-04,-8.501317491e-06,3.772575335e-04,6.719720597e-04,-6.590465113e-05,6.060674086e-04,6.021247138e-04,-1.190051358e-04,4.831195779e-04,9.110179744e-04,4.711158620e-05,9.581295606e-04,1.043322044e-03,-2.739428581e-04,7.693791859e-04,1.329309236e-03,2.394827764e-04,1.568792013e-03,1.073631330e-03,3.001830456e-04,1.373814376e-03,6.629553350e-04,3.089978501e-05,6.938551200e-04,1.564455800e-03,1.052409529e-04,1.669696753e-03,1.425742744e-03,5.270611006e-05,1.478448854e-03,1.752345050e-03,-1.898628426e-04,1.562482208e-03,1.255716865e-03,-7.676453066e-04,4.880715580e-04,9.486931035e-04,2.133432095e-04,1.162036313e-03,3.488602774e-04,-3.045117991e-04,4.434847829e-05
-5.2,2.493926430e-04,-1.352929804e-06,2.480397132e-04,4.925790505e-04,6.676786326e-05,5.593469137e-04,3.989177014e-04,-4.806261009e-05,3.508550913e-04,1.321744145e-03,-3.431341553e-05,1.287430730e-03,6.807350565e-04,-1.459790462e-04,5.347560103e-04,6.885372691e-04,-3.344141321e-05,6.550958559e-04,7.058424590e-04,1.434142254e-05,7.201838816e-04,8.880676207e-04,-8.771320995e-06,8.792962997e-04,3.959458861e-04,-3.106142213e-05,3.648844640e-04,8.634719817e-04,-5.957971326e-05,8.038922685e-04,6.464640719e-04,-4.018048247e-05,6.062835895e-04,1.015983905e-03,2.779991169e-05,1.043783817e-03,1.233999390e-03,-2.326030028e-05,1.210739090e-03,6.903115210e-04,1.242455694e-04,8.145570903e-04,1.163142356e-03,1.458209328e-04,1.308963289e-03,9.040261012e-04,7.809079081e-05,9.821168920e-04,1.009670690e-03,-1.226197388e-04,8.870509515e-04,6.098970395e-04,-4.564025708e-05,5.642567824e-04,4.211057513e-04,1.926247085e-06,4.230319984e-04,9.406275173e-04,-1.338372711e-04,8.067902461e-04,5.351869366e-04,1.147871186e-05,5.466656484e-04,6.958002607e-04,2.933220845e-05,7.251324692e-04,4.008250717e-04,-1.830628240e-05,3.825187893e-04,6.861914970e-04,-7.690937506e-05,6.092821219e-04,6.152647645e-04,-1.306337638e-04,4.846310007e-04,9.000365302e-04,4.222311996e-05,9.422596501e-04,1.066411961e-03,-2.140555065e-04,8.523564546e-04,1.349363541e-03,2.287170975e-04,1.578080638e-03,1.115435801e-03,2.816194868e-04,1.397055288e-03,6.670255382e-04,2.056959873e-05,6.875951369e-04,1.560862876e-03,9.938394692e-05,1.660246823e-03,1.418336488e-03,5.253912250e-05,1.470875610e-03,1.739956565e-03,-1.796810122e-04,1.560275553e-03,1.258485009e-03,-7.494768013e-04,5.090082076e-04,9.241746460e-04,2.044345779e-04,1.128609224e-03,3.318376708e-04,-3.392237972e-04,-7.386126336e-06
-5.1,2.409585436e-04,4.325887893e-06,2.452844315e-04,4.967772049e-04,5.859066902e-05,5.553678739e-04,3.871687736e-04,-3.942548486e-05,3.477432888e-04,1.316367745e-03,-3.206348490e-05,1.284304260e-03,6.672348851e-04,-1.397507471e-04,5.274841379e-04,6.954390667e-04,-3.610005212e-05,6.593390146e-04,7.112399333e-04,1.737207480e-05,7.286120081e-04,8.691133484e-04,-6.177548482e-06,8.629357999e-04,4.078140377e-04,-3.034583252e-05,3.774682052e-04,8.459927190e-04,-6.163364044e-05,7.843590785e-04,6.516267077e-04,-4.417804291e-05,6.074486648e-04,1.008229508e-03,2.573401491e-05,1.033963523e-03,1.234358878e-03,-3.181400196e-05,1.202544876e-03,6.823449105e-04,1.166937025e-04,7.990386130e-04,1.194628174e-03,1.267574906e-04,1.321385665e-03,9.223990840e-04,7.160785831e-05,9.940069423e-04,9.867633416e-04,-1.298534071e-04,8.569099345e-04,6.004805389e-04,-5.324997033e-05,5.472305685e-04,3.937142672e-04,-1.184593344e-05,3.818683338e-04,9.166228190e-04,-1.371367746e-04,7.794860445e-04,5.483596944e-04,9.077888575e-06,5.574375829e-04,7.103275251e-04,1.896394226e-05,7.292914673e-04,4.138391457e-04,-2.786152077e-05,3.859776249e-04,6.976205485e-04,-8.741515081e-05,6.102053977e-04,6.260552414e-04,-1.414143442e-04,4.846408972e-04,8.855282206e-04,3.732247515e-05,9.228506958e-04,1.084753828e-03,-1.528261574e-04,9.319276702e-04,1.364392581e-03,2.167729231e-04,1.581165504e-03,1.153376076e-03,2.618179466e-04,1.415194023e-03,6.688928489e-04,1.019830852e-05,6.790911574e-04,1.551355862e-03,9.325556429e-05,1.644611426e-03,1.405362744e-03,5.197201615e-05,1.457334760e-03,1.718851563e-03,-1.674832229e-04,1.551368340e-03,1.252146497e-03,-7.257097502e-04,5.264367471e-04,8.972339741e-04,1.932494079e-04,1.090483382e-03,3.132556459e-04,-3.707767214e-04,-5.752107546e-05
-5,2.310155303e-04,1.002747831e-05,2.410430086e-04,4.988872052e-04,5.006962607e-05,5.489568312e-04,3.730838593e-04,-3.066239724e-05,3.424214621e-04,1.305963597e-03,-2.957596985e-05,1.276387627e-03,6.510798139e-04,-1.329933783e-04,5.180864356e-04,6.998121056e-04,-3.861811029e-05,6.611939953e-04,7.142509050e-04,2.029723810e-05,7.345481431e-04,8.470953295e-04,-3.875344927e-06,8.432199846e-04,4.178056401e-04,-2.958320574e-05,3.882224343e-04,8.248482693e-04,-6.354969720e-05,7.612985721e-04,6.538218169e-04,-4.812611109e-05,6.056957058e-04,9.961104233e-04,2.359195210e-05,1.019702375e-03,1.230691003e-03,-4.072385147e-05,1.189967152e-03,6.717016117e-04,1.086595985e-04,7.803612102e-04,1.220866572e-03,1.076262697e-04,1.328492842e-03,9.377105346e-04,6.473188456e-05,1.002442419e-03,9.593360885e-04,-1.359723577e-04,8.233637308e-04,5.892775879e-04,-6.056113471e-05,5.287164532e-04,3.656511175e-04,-2.566208089e-05,3.399890366e-04,8.887118437e-04,-1.399210175e-04,7.487908262e-04,5.588438406e-04,6.660146414e-06,5.655039871e-04,7.220878513e-04,8.477643813e-06,7.305654951e-04,4.247056932e-04,-3.714259934e-05,3.875630939e-04,7.061145040e-04,-9.739313900e-05,6.087213650e-04,6.343997335e-04,-1.512701374e-04,4.831295961e-04,8.674613262e-04,3.249709210e-05,8.999584183e-04,1.099119391e-03,-9.144631272e-05,1.007673078e-03,1.374423319e-03,2.036454301e-04,1.578068749e-03,1.187152518e-03,2.409086982e-04,1.428061216e-03,6.682994907e-04,-2.660586289e-08,6.682728848e-04,1.535993994e-03,8.682088338e-05,1.622814877e-03,1.386854280e-03,5.097531702e-05,1.437829597e-03,1.688950025e-03,-1.533942019e-04,1.535555823e-03,1.236996068e-03,-6.969070261e-04,5.400890415e-04,8.677734861e-04,1.800638942e-04,1.047837380e-03,2.928523213e-04,-3.987313543e-04,-1.058790331e-04
-4.9,2.195348050e-04,1.573729356e-05,2.352720985e-04,4.986874804e-04,4.125329584e-05,5.399407763e-04,3.566673524e-04,-2.180181319e-05,3.348655392e-04,1.290463942e-03,-2.687408754e-05,1.263589854e-03,6.322623735e-04,-1.257168758e-04,5.065454976e-04,7.014601434e-04,-4.101764132e-05,6.604425021e-04,7.147954463e-04,2.310755967e-05,7.379030060e-04,8.220544768e-04,-1.951155714e-06,8.201033211e-04,4.258175011e-04,-2.876965318e-05,3.970478479e-04,8.000026031e-04,-6.530915144e-05,7.346934516e-04,6.529830235e-04,-5.199746236e-05,6.009855612e-04,9.797024275e-04,2.132117301e-05,1.001023600e-03,1.223162350e-03,-4.991178189e-05,1.173250568e-03,6.583019987e-04,1.002216558e-04,7.585236545e-04,1.241551727e-03,8.858180860e-05,1.330133536e-03,9.498498395e-04,5.750425560e-05,1.007354095e-03,9.275670212e-04,-1.409527375e-04,7.866142837e-04,5.761512290e-04,-6.748044822e-05,5.086707808e-04,3.368459613e-04,-3.940382752e-05,2.974421338e-04,8.569081198e-04,-1.422032868e-04,7.147048330e-04,5.666010816e-04,4.230955352e-06,5.708320369e-04,7.309344139e-04,-2.116036916e-06,7.288183770e-04,4.333405928e-04,-4.612848336e-05,3.872121094e-04,7.115403654e-04,-1.068175049e-04,6.047228605e-04,6.402103392e-04,-1.601369504e-04,4.800733888e-04,8.458088638e-04,2.782743980e-05,8.736363036e-04,1.110352938e-03,-3.115048283e-05,1.079202455e-03,1.379475935e-03,1.893315334e-04,1.568807469e-03,1.216479011e-03,2.190228970e-04,1.435501908e-03,6.650008612e-04,-9.924379818e-06,6.550764813e-04,1.514855260e-03,8.004685414e-05,1.594902114e-03,1.362864402e-03,4.952296690e-05,1.412387369e-03,1.650219643e-03,-1.375649913e-04,1.512654652e-03,1.213432425e-03,-6.636584917e-04,5.497739333e-04,8.356849419e-04,1.652020927e-04,1.000887035e-03,2.703630854e-04,-4.226757724e-04,-1.523126870e-04
-4.8,2.064966885e-04,2.144013533e-05,2.279368238e-04,4.959629288e-04,3.219698784e-05,5.281599167e-04,3.379395650e-04,-1.287277528e-05,3.250667898e-04,1.269811891e-03,-2.398408044e-05,1.245827810e-03,6.107849796e-04,-1.179346979e-04,4.928502817e-04,7.002032996e-04,-4.332612946e-05,6.568771702e-04,7.127961278e-04,2.579357890e-05,7.385897067e-04,7.940304544e-04,-4.824849009e-07,7.935479695e-04,4.317590461e-04,-2.790045038e-05,4.038585957e-04,7.714357162e-04,-6.689311371e-05,7.045426025e-04,6.490597825e-04,-5.576458661e-05,5.932951959e-04,9.590901358e-04,1.886736233e-05,9.779574981e-04,1.211940363e-03,-5.929355232e-05,1.152646810e-03,6.420689545e-04,9.145867251e-05,7.335276270e-04,1.256401647e-03,6.977306591e-05,1.326174713e-03,9.587068190e-04,4.996633733e-05,1.008673156e-03,8.916666385e-04,-1.447899559e-04,7.468766826e-04,5.609634291e-04,-7.391995521e-05,4.870434739e-04,3.072157082e-04,-5.295662750e-05,2.542590807e-04,8.212377542e-04,-1.439987889e-04,6.772389652e-04,5.716047168e-04,1.794769021e-06,5.733994858e-04,7.367305532e-04,-1.280341240e-05,7.239271408e-04,4.396716828e-04,-5.480100179e-05,3.848706810e-04,7.137779677e-04,-1.156653240e-04,5.981126437e-04,6.434033459e-04,-1.679600033e-04,4.754433426e-04,8.205471137e-04,2.338645563e-05,8.439335694e-04,1.119329840e-03,2.683107293e-05,1.146160913e-03,1.379557182e-03,1.738340994e-04,1.553391282e-03,1.241087732e-03,1.962890391e-04,1.437376771e-03,6.587736381e-04,-1.932694716e-05,6.394466909e-04,1.488032444e-03,7.290369433e-05,1.560936138e-03,1.333461763e-03,4.759477650e-05,1.381056540e-03,1.602680969e-03,-1.201728295e-04,1.482508140e-03,1.181943916e-03,-6.265729793e-04,5.553709370e-04,8.008604520e-04,1.490206723e-04,9.498811243e-04,2.455274551e-04,-4.422359693e-04,-1.967085143e-04
-4.7,1.918905756e-04,2.712044419e-05,2.190110198e-04,4.905079100e-04,2.296293802e-05,5.134708480e-04,3.169365062e-04,-3.904422165e-06,3.130320840e-04,1.243960656e-03,-2.093495369e-05,1.223025702e-03,5.866600684e-04,-1.096635226e-04,4.769965458e-04,6.958809486e-04,-4.557504321e-05,6.503059054e-04,7.081778848e-04,2.834593353e-05,7.365238183e-04,7.630586865e-04,4.658175808e-07,7.635245041e-04,4.355543934e-04,-2.697001607e-05,4.085843773e-04,7.391452069e-04,-6.828231616e-05,6.708628908e-04,6.420189632e-04,-5.939989300e-05,5.826190702e-04,9.343709807e-04,1.617701480e-05,9.505479955e-04,1.197194494e-03,-6.878107728e-05,1.128413417e-03,6.229315346e-04,8.245004912e-05,7.053815837e-04,1.265162938e-03,5.134245495e-05,1.316505393e-03,9.641722201e-04,4.216031203e-05,1.006332532e-03,8.518714373e-04,-1.474973378e-04,7.043740995e-04,5.435799820e-04,-7.979820453e-05,4.637817774e-04,2.766661632e-04,-6.620768513e-05,2.104584781e-04,7.817406819e-04,-1.453241359e-04,6.364165460e-04,5.738405537e-04,-6.446883312e-07,5.731958653e-04,7.393522386e-04,-2.356709855e-05,7.157851401e-04,4.436409858e-04,-6.314430836e-05,3.804966774e-04,7.127225220e-04,-1.239165765e-04,5.888059454e-04,6.438974780e-04,-1.746910284e-04,4.692064497e-04,7.916586794e-04,1.923915333e-05,8.108978328e-04,1.126918125e-03,8.131973626e-05,1.208237861e-03,1.374660628e-03,1.571669867e-04,1.531827615e-03,1.260735347e-03,1.728301926e-04,1.433565540e-03,6.494234999e-04,-2.808372475e-05,6.213397751e-04,1.455631300e-03,6.536628012e-05,1.520997580e-03,1.298726956e-03,4.517908835e-05,1.343906045e-03,1.546414977e-03,-1.014180719e-04,1.444996905e-03,1.143093316e-03,-5.862717275e-04,5.568215885e-04,7.632055563e-04,1.318918677e-04,8.950974240e-04,2.180986961e-04,-4.570876693e-04,-2.389889733e-04
-4.6,1.757158138e-04,3.276270089e-05,2.084785147e-04,4.821312262e-04,1.361969733e-05,4.957509236e-04,2.937104986e-04,5.074558821e-06,2.987850574e-04,1.212874120e-03,-1.775821572e-05,1.195115905e-03,5.599113744e-04,-1.009229031e-04,4.589884713e-04,6.883551146e-04,-4.779790154e-05,6.405572131e-04,7.008691889e-04,3.075552727e-05,7.316247162e-04,7.291706930e-04,8.434082733e-07,7.300141012e-04,4.371448025e-04,-2.597200705e-05,4.111727954e-04,7.031486291e-04,-6.945703341e-05,6.336915957e-04,6.318470772e-04,-6.287596104e-05,5.689711162e-04,9.056600960e-04,1.320003301e-05,9.188601290e-04,1.179099235e-03,-7.828507904e-05,1.100814156e-03,6.008297965e-04,7.327586028e-05,6.741056568e-04,1.267618350e-03,3.342357961e-05,1.301041930e-03,9.661394345e-04,3.413091919e-05,1.000270354e-03,8.084381185e-04,-1.491041281e-04,6.593339904e-04,5.238769847e-04,-8.504122207e-05,4.388357626e-04,2.450943580e-04,-7.904357738e-05,1.660507806e-04,7.384726915e-04,-1.461965772e-04,5.922761143e-04,5.733085719e-04,-3.084079137e-06,5.702244927e-04,7.386911481e-04,-3.438576224e-05,7.043053858e-04,4.452070144e-04,-7.114439817e-05,3.740626163e-04,7.082871634e-04,-1.315541889e-04,5.767329745e-04,6.416150982e-04,-1.802864773e-04,4.613286209e-04,7.591380341e-04,1.544249125e-05,7.745805253e-04,1.133943424e-03,1.312328359e-04,1.265176260e-03,1.364771089e-03,1.393609450e-04,1.504132034e-03,1.275209044e-03,1.487622365e-04,1.423971281e-03,6.367906921e-04,-3.606422260e-05,6.007264695e-04,1.417770129e-03,5.741555654e-05,1.475185686e-03,1.258750302e-03,4.227567438e-05,1.301025976e-03,1.481569704e-03,-8.151773191e-05,1.400051972e-03,1.097501642e-03,-5.433799922e-04,5.541216497e-04,7.226523621e-04,1.141859997e-04,8.368383618e-04,1.878539321e-04,-4.669673531e-04,-2.791134210e-04
-4.5,1.579825808e-04,3.835189813e-05,1.963344789e-04,4.706618383e-04,4.240667617e-06,4.749025059e-04,2.683306722e-04,1.403642697e-05,2.823670992e-04,1.176527941e-03,-1.448761525e-05,1.162040326e-03,5.305752588e-04,-9.173489620e-05,4.388403626e-04,6.775133975e-04,-5.002790830e-05,6.274854892e-04,6.908035478e-04,3.301360878e-05,7.238171566e-04,6.923959700e-04,6.149069268e-07,6.930108769e-04,4.364905129e-04,-2.489941234e-05,4.115911006e-04,6.634852371e-04,-7.039712840e-05,5.930881087e-04,6.185515794e-04,-6.616578507e-05,5.523857944e-04,8.730929517e-04,9.891686655e-06,8.829846383e-04,1.157835116e-03,-8.771674875e-05,1.070118368e-03,5.757183873e-04,6.401661811e-05,6.397350055e-04,1.263595320e-03,1.613751406e-05,1.279732835e-03,9.645063312e-04,2.592734760e-05,9.904336788e-04,7.616373236e-04,-1.496526903e-04,6.119846333e-04,5.017470451e-04,-8.958338346e-05,4.121636617e-04,2.123908109e-04,-9.134867041e-05,1.210421405e-04,6.915066960e-04,-1.466327968e-04,5.448738992e-04,5.700239163e-04,-5.520053624e-06,5.645038627e-04,7.346569479e-04,-4.523416901e-05,6.894227789e-04,4.443457946e-04,-7.878872943e-05,3.655570652e-04,7.004042884e-04,-1.385641160e-04,5.618401723e-04,6.364850816e-04,-1.847069583e-04,4.517781234e-04,7.229963041e-04,1.204550375e-05,7.350418079e-04,1.141156884e-03,1.756208389e-04,1.316777723e-03,1.349869554e-03,1.204697080e-04,1.470339262e-03,1.284330483e-03,1.241932027e-04,1.408523686e-03,6.207524711e-04,-4.315864565e-05,5.775938255e-04,1.374579763e-03,4.903967548e-05,1.423619438e-03,1.213630044e-03,3.889861193e-05,1.252528656e-03,1.408362589e-03,-6.069615511e-05,1.347666434e-03,1.045830399e-03,-4.985165375e-04,5.473138612e-04,6.791707028e-04,9.625494101e-05,7.754256439e-04,1.546037638e-04,-4.716819613e-04,-3.170781976e-04
-4.4,1.387119948e-04,4.387394812e-05,1.825859429e-04,4.559538813e-04,-5.097931750e-06,4.508559496e-04,2.408825237e-04,2.295476474e-05,2.638372884e-04,1.134910322e-03,-1.115882574e-05,1.123751496e-03,4.987011127e-04,-8.212365825e-05,4.165774545e-04,6.632704451e-04,-5.229521132e-05,6.109752337e-04,6.779203802e-04,3.511180659e-05,7.130321868e-04,6.527632573e-04,-2.398904083e-07,6.525233669e-04,4.335713090e-04,-2.374454205e-05,4.098267669e-04,6.202161600e-04,-7.108212498e-05,5.491340350e-04,6.021602596e-04,-6.924295381e-05,5.329173058e-04,8.368240953e-04,6.213886658e-06,8.430379820e-04,1.133584916e-03,-9.698772156e-05,1.036597195e-03,5.475675080e-04,5.475270253e-05,6.023202106e-04,1.252973181e-03,-4.116445337e-07,1.252561536e-03,9.591762970e-04,1.760452291e-05,9.767808199e-04,7.117469476e-04,-1.491953105e-04,5.625516371e-04,4.771039004e-04,-9.336844378e-05,3.837354566e-04,1.784413525e-04,-1.030048276e-04,7.543652488e-05,6.409325180e-04,-1.466475025e-04,4.942850155e-04,5.640163717e-04,-7.948889395e-06,5.560674823e-04,7.271779363e-04,-5.608334848e-05,6.710945878e-04,4.410499965e-04,-8.606596163e-05,3.549840349e-04,6.890252363e-04,-1.449354582e-04,5.440897781e-04,6.284446269e-04,-1.879169302e-04,4.405276967e-04,6.832629561e-04,9.089630213e-06,6.923525864e-04,1.149206011e-03,2.136945786e-04,1.362900589e-03,1.329935871e-03,1.005754970e-04,1.430511368e-03,1.287956542e-03,9.922354060e-05,1.387180083e-03,6.012220941e-04,-4.927724913e-05,5.519448450e-04,1.326203042e-03,4.023456080e-05,1.366437603e-03,1.163470468e-03,3.507862327e-05,1.198549091e-03,1.327077455e-03,-3.917468902e-05,1.287902766e-03,9.887629215e-04,-4.522825536e-04,5.364803679e-04,6.327753289e-04,7.841832007e-05,7.111936490e-04,1.182015675e-04,-4.711183091e-04,-3.529167416e-04
-4.3,1.179351287e-04,4.931596821e-05,1.672510969e-04,4.378899552e-04,-1.431912691e-05,4.235708283e-04,2.114662185e-04,3.180476762e-05,2.432709861e-04,1.088022016e-03,-7.809009438e-06,1.080213007e-03,4.643503961e-04,-7.211497233e-05,3.922354237e-04,6.455674887e-04,-5.462390018e-05,5.909435885e-04,6.621647653e-04,3.704219975e-05,6.992069651e-04,6.102997061e-04,-1.724739594e-06,6.085749665e-04,4.283856688e-04,-2.249891084e-05,4.058867580e-04,5.734227992e-04,-7.149125546e-05,5.019315438e-04,5.827186006e-04,-7.208176620e-05,5.106368343e-04,7.970218447e-04,2.136402540e-06,7.991582473e-04,1.106525479e-03,-1.060090362e-04,1.000516443e-03,5.163612205e-04,4.556346940e-05,5.619246899e-04,1.235686797e-03,-1.614036528e-05,1.219546431e-03,9.500580921e-04,9.223461408e-06,9.592815535e-04,6.590461667e-04,-1.477917351e-04,5.112544316e-04,4.498847748e-04,-9.635061763e-05,3.535341572e-04,1.431288401e-04,-1.138922052e-04,2.923663490e-05,5.868553615e-04,-1.462522620e-04,4.406030995e-04,5.553282419e-04,-1.036629439e-05,5.449619475e-04,7.162000355e-04,-6.690082282e-05,6.492992126e-04,4.353263040e-04,-9.296575670e-05,3.423605473e-04,6.741185350e-04,-1.506605566e-04,5.234579783e-04,6.174377186e-04,-1.898837606e-04,4.275539581e-04,6.399837885e-04,6.609183723e-06,6.465929722e-04,1.158607864e-03,2.448436208e-04,1.403451485e-03,1.304947769e-03,7.979332279e-05,1.384741091e-03,1.285977010e-03,7.394699485e-05,1.359924004e-03,5.781446538e-04,-5.434913339e-05,5.237955204e-04,1.272793078e-03,3.100392011e-05,1.303796998e-03,1.108379778e-03,3.086443695e-05,1.139244215e-03,1.238057306e-03,-1.716248007e-05,1.220894826e-03,9.269871281e-04,-4.052515539e-04,5.217355742e-04,5.835278196e-04,6.095399721e-05,6.444818168e-04,7.855274670e-05,-4.652530554e-04,-3.867003087e-04
-4.2,9.569094496e-05,5.466653899e-05,1.503574840e-04,4.163823258e-04,-2.334685753e-05,3.930354683e-04,1.801937777e-04,4.056350742e-05,2.207572851e-04,1.035875586e-03,-4.476228706e-06,1.031399357e-03,4.275944069e-04,-6.173568986e-05,3.658587170e-04,6.243701088e-04,-5.702902343e-05,5.673410853e-04,6.434860962e-04,3.879745042e-05,6.822835467e-04,5.650278354e-04,-3.824223906e-06,5.612036114e-04,4.209487786e-04,-2.115309617e-05,3.997956824e-04,5.232038799e-04,-7.160351763e-05,4.516003623e-04,5.602856161e-04,-7.465732634e-05,4.856282898e-04,7.538598749e-04,-2.361572720e-06,7.514983022e-04,1.076817714e-03,-1.146905392e-04,9.621271745e-04,4.820940601e-04,3.652602273e-05,5.186200829e-04,1.211725767e-03,-3.098734027e-05,1.180738427e-03,9.370645606e-04,8.507812620e-07,9.379153419e-04,6.038108301e-04,-1.455082605e-04,4.583025696e-04,4.200499621e-04,-9.849511724e-05,3.215548448e-04,1.063351034e-04,-1.238907165e-04,-1.755561310e-05,5.293935400e-04,-1.454548335e-04,3.839387064e-04,5.440110623e-04,-1.276737449e-05,5.312436879e-04,7.016846029e-04,-7.765089599e-05,6.240337069e-04,4.271916409e-04,-9.947854829e-05,3.277130926e-04,6.556673158e-04,-1.557349867e-04,4.999323291e-04,6.034102349e-04,-1.905762374e-04,4.128339975e-04,5.932159169e-04,4.631926500e-06,5.978478434e-04,1.169725010e-03,2.686480725e-04,1.438373083e-03,1.274876296e-03,5.827321398e-05,1.333149510e-03,1.278310430e-03,4.845179716e-05,1.326762227e-03,5.514910715e-04,-5.832099251e-05,4.931700790e-04,1.214510125e-03,2.135886214e-05,1.235868987e-03,1.048468065e-03,2.632284002e-05,1.074790905e-03,1.141694974e-03,5.149992768e-06,1.146844967e-03,8.611813484e-04,-3.579609873e-04,5.032203611e-04,5.315337730e-04,4.409267077e-05,5.756264438e-04,3.562327433e-05,-4.541621197e-04,-4.185388454e-04
-4.1,7.202349684e-05,5.991601884e-05,1.319395157e-04,3.913723064e-04,-3.210717087e-05,3.592651355e-04,1.471856426e-04,4.921017728e-05,1.963958199e-04,9.784942850e-04,-1.198737987e-06,9.772955470e-04,3.885112862e-04,-5.101313082e-05,3.374981554e-04,5.996649327e-04,-5.951404436e-05,5.401508884e-04,6.218360817e-04,4.037098685e-05,6.622070685e-04,5.169616415e-04,-6.500606904e-06,5.104610346e-04,4.112899446e-04,-1.969663687e-05,3.915933077e-04,4.696719595e-04,-7.139778659e-05,3.982741729e-04,5.349290562e-04,-7.694563183e-05,4.579834244e-04,7.075079319e-04,-7.289984676e-06,7.002179472e-04,1.044596752e-03,-1.229414267e-04,9.216553257e-04,4.447673327e-04,2.771379305e-05,4.724811258e-04,1.181129918e-03,-4.491324161e-05,1.136216676e-03,9.201106903e-04,-7.442358849e-06,9.126683314e-04,5.463095502e-04,-1.424179416e-04,4.038916087e-04,3.875796160e-04,-9.977781603e-05,2.878017999e-04,6.794304956e-05,-1.328820320e-04,-6.493898241e-05,4.686761062e-04,-1.442589195e-04,3.244171867e-04,5.301218684e-04,-1.514661926e-05,5.149752492e-04,6.836057034e-04,-8.829493159e-05,5.953107718e-04,4.166691766e-04,-1.055952175e-04,3.110739591e-04,6.336667204e-04,-1.601574168e-04,4.735093036e-04,5.863038634e-04,-1.899632395e-04,3.963406239e-04,5.430212924e-04,3.179705311e-06,5.462009977e-04,1.182746556e-03,2.848837434e-04,1.467630299e-03,1.239679539e-03,3.619932935e-05,1.275878869e-03,1.264899569e-03,2.282194880e-05,1.287721518e-03,5.212522832e-04,-6.115629875e-05,4.600959845e-04,1.151517911e-03,1.131703714e-05,1.162834948e-03,9.838461757e-04,2.153709249e-05,1.005383268e-03,1.038424064e-03,2.759308498e-05,1.066017149e-03,7.920031776e-04,-3.109058207e-04,4.810973568e-04,4.769375650e-04,2.801483065e-05,5.049523957e-04,-1.055438125e-05,-4.380266221e-04,-4.485810034e-04
-4,4.697909550e-05,6.505684503e-05,1.120359405e-04,3.628285186e-04,-4.052910674e-05,3.222994119e-04,1.125673409e-04,5.772628220e-05,1.702936231e-04,9.159111725e-04,1.985768462e-06,9.178969409e-04,3.471830390e-04,-3.997452225e-05,3.072085167e-04,5.714562275e-04,-6.206905664e-05,5.093871708e-04,5.971668283e-04,4.175724816e-05,6.389240765e-04,4.661036742e-04,-9.691675453e-06,4.564119987e-04,3.994500682e-04,-1.811798302e-05,3.813320851e-04,4.129503600e-04,-7.085297710e-05,3.420973829e-04,5.067210959e-04,-7.892362670e-05,4.277974692e-04,6.581245844e-04,-1.264710203e-05,6.454774824e-04,1.009963233e-03,-1.306713639e-04,8.792918690e-04,4.043865317e-04,1.919529321e-05,4.235818249e-04,1.143982487e-03,-5.789891508e-05,1.086083572e-03,8.991121397e-04,-1.558168284e-05,8.835304569e-04,4.867993592e-04,-1.386005858e-04,3.481987734e-04,3.524687405e-04,-1.001842911e-04,2.522844494e-04,2.783890118e-05,-1.407520006e-04,-1.129130994e-04,4.048410215e-04,-1.426641201e-04,2.621769015e-04,5.137199763e-04,-1.749777376e-05,4.962222025e-04,6.619476756e-04,-9.879158128e-05,5.631560943e-04,4.037852039e-04,-1.113066923e-04,2.924785116e-04,6.081222250e-04,-1.639293957e-04,4.441928293e-04,5.660515221e-04,-1.880132342e-04,3.780382879e-04,4.894608294e-04,2.269105675e-06,4.917299351e-04,1.197675853e-03,2.935204430e-04,1.491196296e-03,1.199297880e-03,1.378559671e-05,1.213083477e-03,1.245707616e-03,-2.861403913e-06,1.242846212e-03,4.874352415e-04,-6.283522434e-05,4.246000171e-04,1.083980866e-03,9.011561920e-07,1.084882023e-03,9.146262869e-04,1.660371917e-05,9.312300061e-04,9.287124832e-04,5.001498480e-05,9.787274680e-04,7.200802492e-04,-2.645338960e-04,4.555463532e-04,4.199169180e-04,1.284834873e-05,4.327652667e-04,-5.987980040e-05,-4.171327083e-04,-4.770125087e-04
-3.9,2.060432823e-05,7.008369559e-05,9.068802381e-05,3.307449601e-04,-4.854541449e-05,2.821995456e-04,7.646705962e-05,6.609576501e-05,1.425628246e-04,8.481691892e-04,5.040895551e-06,8.532100848e-04,3.036934760e-04,-2.864652311e-05,2.750469529e-04,5.397633415e-04,-6.466988428e-05,4.750934573e-04,5.694299012e-04,4.295201974e-05,6.123819210e-04,4.124444635e-04,-1.331026296e-05,3.991342005e-04,3.854798941e-04,-1.640451030e-05,3.690753839e-04,3.531715049e-04,-6.994823605e-05,2.832232688e-04,4.757357059e-04,-8.056921090e-05,3.951664950e-04,6.058542889e-04,-1.841886494e-05,5.874354240e-04,9.729771126e-04,-1.377914363e-04,8.351856763e-04,3.609612835e-04,1.103339722e-05,3.719946807e-04,1.100402812e-03,-6.994213732e-05,1.030460674e-03,8.739856842e-04,-2.349145311e-05,8.504942311e-04,4.255207821e-04,-1.341415628e-04,2.913792193e-04,3.147221389e-04,-9.970860308e-05,2.150135358e-04,-1.408489171e-05,-1.473930677e-04,-1.614779594e-04,3.380344232e-04,-1.406659095e-04,1.973685137e-04,4.948653519e-04,-1.981361128e-05,4.750517406e-04,6.367039839e-04,-1.090970276e-04,5.276069563e-04,3.885678891e-04,-1.166035415e-04,2.719643476e-04,5.790496610e-04,-1.670551543e-04,4.119945067e-04,5.425760363e-04,-1.846948506e-04,3.578811857e-04,4.325913477e-04,1.912150946e-06,4.345034987e-04,1.214324198e-03,2.947158260e-04,1.509040024e-03,1.153654232e-03,-8.731211137e-06,1.144923021e-03,1.220715821e-03,-2.851833595e-05,1.192197485e-03,4.500612866e-04,-6.335519441e-05,3.867060922e-04,1.012063390e-03,-9.862771436e-06,1.002200619e-03,8.409245774e-04,1.162828927e-05,8.525528667e-04,8.130597427e-04,7.227478616e-05,8.853345288e-04,6.460004082e-04,-2.192411706e-04,4.267592377e-04,3.606778940e-04,-1.333393279e-06,3.593445007e-04,-1.121868542e-04,-3.918657570e-04,-5.040526112e-04
-3.8,-7.054366842e-06,7.499348766e-05,6.793912081e-05,2.951398918e-04,-5.609317028e-05,2.390467215e-04,3.901473918e-05,7.430511233e-05,1.133198515e-04,7.753227880e-04,7.932272898e-06,7.832550609e-04,2.581278351e-04,-1.705483258e-05,2.410730025e-04,5.046197677e-04,-6.727818972e-05,4.373415780e-04,5.385771483e-04,4.395286723e-05,5.825300155e-04,3.559652614e-04,-1.724559701e-05,3.387196644e-04,3.694395456e-04,-1.454266209e-05,3.548968835e-04,2.904773169e-04,-6.866319121e-05,2.218141257e-04,4.420485378e-04,-8.186125856e-05,3.601872793e-04,5.508296358e-04,-2.457755838e-05,5.262520775e-04,9.336557359e-04,-1.442146884e-04,7.894410476e-04,3.145087116e-04,3.285196577e-06,3.177939082e-04,1.050540609e-03,-8.105326520e-05,9.694873439e-04,8.446526162e-04,-3.109619559e-05,8.135564206e-04,3.626936612e-04,-1.291295550e-04,2.335641062e-04,2.743512039e-04,-9.835205112e-05,1.759991528e-04,-5.792517053e-05,-1.527064847e-04,-2.106316552e-04,2.684112897e-04,-1.382556058e-04,1.301556839e-04,4.736192697e-04,-2.208569712e-05,4.515335726e-04,6.078779727e-04,-1.191652961e-04,4.887126765e-04,3.710482810e-04,-1.214756366e-04,2.495726444e-04,5.464770450e-04,-1.695414511e-04,3.769355940e-04,5.157926569e-04,-1.799783313e-04,3.358143255e-04,3.724669480e-04,2.117111726e-06,3.745840597e-04,1.232309677e-03,2.888075414e-04,1.521117218e-03,1.102661066e-03,-3.109895651e-05,1.071562109e-03,1.189923051e-03,-5.406832430e-05,1.135854727e-03,4.091667233e-04,-6.273175057e-05,3.464349728e-04,9.359313808e-04,-2.094677493e-05,9.149846059e-04,7.628660647e-04,6.720880632e-06,7.695869454e-04,6.919978776e-04,9.423432254e-05,7.862322001e-04,5.702991150e-04,-1.753642973e-04,3.949348178e-04,2.994494400e-04,-1.451126399e-05,2.849381760e-04,-1.672461210e-04,-3.627025944e-04,-5.299487154e-04
-3.7,-3.594942679e-05,7.978527793e-05,4.383585115e-05,2.560562185e-04,-6.311441485e-05,1.929418036e-04,3.427310082e-07,8.234346448e-05,8.268619549e-05,6.974412341e-04,1.062830609e-05,7.080695402e-04,2.105742360e-04,-5.223867857e-06,2.053503682e-04,4.660740380e-04,-6.984275082e-05,3.962312871e-04,5.045634794e-04,4.475964110e-05,5.493231205e-04,2.966442058e-04,-2.136640638e-05,2.752777995e-04,3.513992383e-04,-1.251826888e-05,3.388809694e-04,2.250214628e-04,-6.697830944e-05,1.580431534e-04,4.057391134e-04,-8.277970000e-05,3.229594134e-04,4.931780039e-04,-3.107983252e-05,4.620981714e-04,8.919766475e-04,-1.498563652e-04,7.421202823e-04,2.650596016e-04,-3.997755176e-06,2.610618464e-04,9.945733000e-04,-9.125070319e-05,9.033225968e-04,8.110450706e-04,-3.832233097e-05,7.727227396e-04,2.985154687e-04,-1.236541096e-04,1.748613591e-04,2.313736752e-04,-9.612216187e-05,1.352515134e-04,-1.037614550e-04,-1.566047511e-04,-2.603662061e-04,1.961373136e-04,-1.354204132e-04,6.071690040e-05,4.500469658e-04,-2.430416575e-05,4.257428001e-04,5.754851463e-04,-1.289485936e-04,4.465365527e-04,3.512629223e-04,-1.259119386e-04,2.253509836e-04,5.104473984e-04,-1.713974519e-04,3.390499464e-04,4.856152229e-04,-1.738375575e-04,3.117776654e-04,3.091446983e-04,2.889452581e-06,3.120341509e-04,1.251061554e-03,2.763039129e-04,1.527365467e-03,1.046232995e-03,-5.305611227e-05,9.931768824e-04,1.153347178e-03,-7.942867991e-05,1.073918498e-03,3.648051542e-04,-6.099956104e-05,3.038055931e-04,8.557554650e-04,-3.232141794e-05,8.234340470e-04,6.805910318e-04,1.991594007e-06,6.825826259e-04,5.660944192e-04,1.157512989e-04,6.818457181e-04,4.934463941e-04,-1.331713818e-04,3.602750123e-04,2.364767138e-04,-2.671654153e-05,2.097601723e-04,-2.247654406e-04,-3.302039908e-04,-5.549694314e-04
-3.6,-6.602975753e-05,8.446009542e-05,1.843033789e-05,2.135630906e-04,-6.955689518e-05,1.440061955e-04,-3.941267399e-05,9.020266325e-05,5.078998926e-05,6.146130653e-04,1.310097591e-05,6.277140412e-04,1.611262841e-04,6.823479381e-06,1.679497635e-04,4.241917469e-04,-7.230181986e-05,3.518899271e-04,4.673509766e-04,4.537499324e-05,5.127259698e-04,2.344645809e-04,-2.552529419e-05,2.089392867e-04,3.314403594e-04,-1.031699028e-05,3.211233692e-04,1.569722578e-04,-6.487534620e-05,9.209691160e-05,3.668939562e-04,-8.330564785e-05,2.835883083e-04,4.330303027e-04,-3.786508718e-05,3.951652155e-04,8.478838947e-04,-1.546342191e-04,6.932496756e-04,2.126651155e-04,-1.076902132e-05,2.018960941e-04,9.327062876e-04,-1.005574818e-04,8.321488059e-04,7.731140571e-04,-4.509968894e-05,7.280143682e-04,2.331626749e-04,-1.178038397e-04,1.153588352e-04,1.858161264e-04,-9.303219832e-05,9.278392812e-05,-1.516475219e-04,-1.590147699e-04,-3.106622917e-04,1.213912570e-04,-1.321435918e-04,-1.075233477e-05,4.242210030e-04,-2.645746905e-05,3.977635340e-04,5.395557733e-04,-1.383975750e-04,4.011581983e-04,3.292566781e-04,-1.299004545e-04,1.993562236e-04,4.710213033e-04,-1.726346540e-04,2.983866493e-04,4.519651590e-04,-1.662526373e-04,2.857125218e-04,2.426923331e-04,4.232858711e-06,2.469251918e-04,1.269831128e-03,2.578715803e-04,1.527702708e-03,9.843013966e-04,-7.433566649e-05,9.099657301e-04,1.111027437e-03,-1.045136559e-04,1.006513781e-03,3.170508168e-04,-5.821348231e-05,2.588373345e-04,7.717147738e-04,-4.395554123e-05,7.277592326e-04,5.942614622e-04,-2.453573328e-06,5.918078889e-04,4.359545829e-04,1.366755025e-04,5.726300854e-04,4.158380596e-04,-9.285526611e-05,3.229827935e-04,1.720134517e-04,-3.802393784e-05,1.339895138e-04,-2.843907039e-04,-2.950055938e-04,-5.793962977e-04
-3.5,-9.723814661e-05,8.902066408e-05,-8.217482527e-06,1.677575984e-04,-7.537478198e-05,9.238281639e-05,-8.010988449e-05,9.787714655e-05,1.776726206e-05,5.269509076e-04,1.532665986e-05,5.422775674e-04,1.098857027e-04,1.906599586e-05,1.289516986e-04,3.790573733e-04,-7.458612746e-05,3.044712458e-04,4.269132758e-04,4.580484130e-05,4.727181171e-04,1.694229971e-04,-2.956348123e-05,1.398595159e-04,3.096559143e-04,-7.924749665e-06,3.017311646e-04,8.651479292e-05,-6.233777138e-05,2.417702154e-05,3.256090461e-04,-8.342148937e-05,2.421875568e-04,3.705288136e-04,-4.485512215e-05,3.256736915e-04,8.012954781e-04,-1.584690672e-04,6.428264109e-04,1.574015115e-04,-1.698681903e-05,1.404146925e-04,8.651747412e-04,-1.089998254e-04,7.561749159e-04,7.308373255e-04,-5.136299852e-05,6.794743270e-04,1.667940404e-04,-1.116654452e-04,5.512859517e-05,1.377178611e-04,-8.910139382e-05,4.861646729e-05,-2.016024386e-04,-1.598815532e-04,-3.614839918e-04,4.436690392e-05,-1.284047865e-04,-8.403788256e-05,3.962239244e-04,-2.853211569e-05,3.676918087e-04,5.001366745e-04,-1.474615273e-04,3.526751472e-04,3.050845393e-04,-1.334283884e-04,1.716561509e-04,4.282783170e-04,-1.732668763e-04,2.550114407e-04,4.147820033e-04,-1.572133978e-04,2.575686056e-04,1.731949577e-04,6.150162692e-06,1.793451204e-04,1.287709690e-03,2.343187691e-04,1.522028459e-03,9.168272539e-04,-9.466817417e-05,8.221590797e-04,1.063026454e-03,-1.292344145e-04,9.337920393e-04,2.660019007e-04,-5.444924252e-05,2.115526582e-04,6.840000348e-04,-5.581559387e-05,6.281844410e-04,5.040654804e-04,-6.515988365e-06,4.975494920e-04,3.022203970e-04,1.568485088e-04,4.590689059e-04,3.377923506e-04,-5.453278194e-05,2.832595687e-04,1.063140576e-04,-4.854336330e-05,5.777069433e-05,-3.457099379e-04,-2.578044041e-04,-6.035143420e-04
-3.4,-1.295093384e-04,9.347102077e-05,-3.603831768e-05,1.187654555e-04,-8.052917831e-05,3.823627721e-05,-1.216016140e-04,1.053636881e-04,-1.623792589e-05,4.345959993e-04,1.728693872e-05,4.518829380e-04,5.696407978e-05,3.148423459e-05,8.844831437e-05,3.307747603e-04,-7.662201259e-05,2.541527477e-04,3.832393257e-04,4.605875032e-05,4.292980760e-04,1.015356401e-04,-3.331508797e-05,6.822055209e-05,2.861497582e-04,-5.328076881e-06,2.808216813e-04,1.385142815e-05,-5.935107042e-05,-4.549964227e-05,2.819906488e-04,-8.311089913e-05,1.988797497e-04,3.058317721e-04,-5.195508885e-05,2.538766832e-04,7.521098479e-04,-1.612853023e-04,5.908245456e-04,9.937152806e-05,-2.261361410e-05,7.675791396e-05,7.922449929e-04,-1.166074876e-04,6.756375053e-04,6.842254610e-04,-5.705344408e-05,6.271720169e-04,9.955402931e-05,-1.053230915e-04,-5.769062197e-06,8.713451782e-05,-8.435582065e-05,2.778697172e-06,-2.536028677e-04,-1.591716850e-04,-4.127745527e-04,-3.472596442e-05,-1.241806370e-04,-1.589066015e-04,3.661494381e-04,-3.051252978e-05,3.356369083e-04,4.572916859e-04,-1.560885996e-04,3.012030863e-04,2.788118613e-04,-1.364824673e-04,1.423293941e-04,3.823169868e-04,-1.733103032e-04,2.090066836e-04,3.740337701e-04,-1.467237967e-04,2.273099734e-04,1.007588945e-04,8.643966246e-06,1.094028608e-04,1.303653946e-03,2.065731907e-04,1.510227137e-03,8.438094736e-04,-1.137854940e-04,7.300239796e-04,1.009431237e-03,-1.534999359e-04,8.559313010e-04,2.117827865e-04,-4.980300151e-05,1.619797850e-04,5.928152295e-04,-6.786501779e-05,5.249502117e-04,4.102184718e-04,-1.010639090e-05,4.001120809e-04,1.655665346e-04,1.761057548e-04,3.416722894e-04,2.595507047e-04,-1.825085988e-05,2.412998449e-04,3.962607969e-05,-5.841187061e-05,-1.878579092e-05,-4.082614980e-04,-2.193403140e-04,-6.276018120e-04
