Time,S1D1HbO,S1D1HbR,S1D1HbT,S2D2HbO,S2D2HbR,S2D2HbT,S3D3HbO,S3D3HbR,S3D3HbT,S4D4HbO,S4D4HbR,S4D4HbT,S5D5HbO,S5D5HbR,S5D5HbT,S6D6HbO,S6D6HbR,S6D6HbT,S7D7HbO,S7D7HbR,S7D7HbT,S8D8HbO,S8D8HbR,S8D8HbT,S9D9HbO,S9D9HbR,S9D9HbT,S10D10HbO,S10D10HbR,S10D10HbT,S11D11HbO,S11D11HbR,S11D11HbT,S12D12HbO,S12D12HbR,S12D12HbT,S13D13HbO,S13D13HbR,S13D13HbT,S14D14HbO,S14D14HbR,S14D14HbT,S15D15HbO,S15D15HbR,S15D15HbT,S16D16HbO,S16D16HbR,S16D16HbT,S17D17HbO,S17D17HbR,S17D17HbT,S18D18HbO,S18D18HbR,S18D18HbT,S19D19HbO,S19D19HbR,S19D19HbT,S20D20HbO,S20D20HbR,S20D20HbT,S21D21HbO,S21D21HbR,S21D21HbT,S22D22HbO,S22D22HbR,S22D22HbT,S23D23HbO,S23D23HbR,S23D23HbT,S24D24HbO,S24D24HbR,S24D24HbT,S25D25HbO,S25D25HbR,S25D25HbT,S26D26HbO,S26D26HbR,S26D26HbT,S27D27HbO,S27D27HbR,S27D27HbT,S28D28HbO,S28D28HbR,S28D28HbT,S29D29HbO,S29D29HbR,S29D29HbT,S30D30HbO,S30D30HbR,S30D30HbT,S31D31HbO,S31D31HbR,S31D31HbT,S32D32HbO,S32D32HbR,S32D32HbT,S33D33HbO,S33D33HbR,S33D33HbT,S34D34HbO,S34D34HbR,S34D34HbT,S35D35HbO,S35D35HbR,S35D35HbT,S36D36HbO,S36D36HbR,S36D36HbT,
-10,-1.306716464e-04,-5.376045251e-04,-6.682761714e-04,1.569373356e-03,5.849293402e-05,1.627866290e-03,5.751810138e-04,-2.461183396e-04,3.290626742e-04,1.327775588e-03,9.143264827e-05,1.419208237e-03,9.450422398e-04,1.278740985e-04,1.072916338e-03,2.289574667e-03,-5.732003574e-05,2.232254631e-03,1.241971947e-03,2.613286911e-05,1.268104816e-03,2.227052076e-03,-6.305281075e-06,2.220746795e-03,7.830866337e-04,6.129917617e-06,7.892165513e-04,1.243571876e-03,-1.679875471e-04,1.075584329e-03,1.098662786e-03,-7.928598244e-05,1.019376803e-03,2.138206196e-03,3.863678319e-04,2.524574028e-03,6.047429059e-03,-3.462446981e-04,5.701184361e-03,1.059147391e-03,2.696422675e-04,1.328789659e-03,3.155391644e-03,1.996670728e-04,3.355058716e-03,1.989432807e-03,3.982758551e-05,2.029260393e-03,1.722418900e-03,2.902488939e-04,2.012667794e-03,5.847237642e-03,-4.091760339e-04,5.438061608e-03,5.896024690e-03,1.543901177e-04,6.050414807e-03,1.697953516e-03,-2.827199648e-04,1.415233552e-03,1.058614849e-03,-5.171180279e-05,1.006903046e-03,1.176477824e-03,-1.554468925e-05,1.160933135e-03,2.251648722e-04,-2.767175117e-05,1.974931210e-04,1.103671195e-04,-3.911507260e-04,-2.807836065e-04,1.509450126e-03,5.191382361e-04,2.028588362e-03,2.230690934e-04,2.445503820e-04,4.676194754e-04,4.535046379e-03,7.620447260e-04,5.297091105e-03,2.699889398e-03,3.776863678e-04,3.077575766e-03,3.435347430e-03,6.564241895e-05,3.500989848e-03,2.749839277e-03,4.804055262e-04,3.230244804e-03,7.828963323e-03,1.143053708e-04,7.943268693e-03,4.804851675e-03,2.435508609e-05,4.829206761e-03,6.996650614e-03,-1.037839125e-04,6.892866702e-03,5.797020903e-03,-2.563283893e-04,5.540692514e-03,4.687402319e-03,-8.906160877e-05,4.598340710e-03,2.862235442e-03,1.235738250e-03,4.097973692e-03
-9.9,-1.472158431e-04,-5.207865675e-04,-6.680024106e-04,1.487895534e-03,4.965188995e-05,1.537547424e-03,5.683890084e-04,-2.451718542e-04,3.232171543e-04,1.262378877e-03,8.704247031e-05,1.349421347e-03,9.329837962e-04,1.210934006e-04,1.054077197e-03,2.174226488e-03,-5.908966859e-05,2.115136820e-03,1.188091529e-03,2.183994415e-05,1.209931473e-03,2.081227886e-03,-9.336010752e-06,2.071891875e-03,7.884547740e-04,1.992251240e-06,7.904470252e-04,1.169910746e-03,-1.621951358e-04,1.007715610e-03,1.081473214e-03,-7.506750751e-05,1.006405707e-03,2.076690629e-03,3.866306553e-04,2.463321284e-03,5.994848690e-03,-3.711935244e-04,5.623655165e-03,1.029532238e-03,2.663923501e-04,1.295924588e-03,3.143660708e-03,2.011233029e-04,3.344784011e-03,1.899978203e-03,4.436640219e-05,1.944344605e-03,1.626096691e-03,2.741372484e-04,1.900233939e-03,5.779096208e-03,-4.171928457e-04,5.361903362e-03,5.812994091e-03,1.368024713e-04,5.949796562e-03,1.572546329e-03,-2.797176471e-04,1.292828682e-03,9.969728807e-04,-5.138310697e-05,9.455897737e-04,1.141419061e-03,-1.857198823e-05,1.122847073e-03,2.137104005e-04,-2.735452305e-05,1.863558775e-04,1.350664281e-04,-3.779291130e-04,-2.428626849e-04,1.485709919e-03,5.074571839e-04,1.993167103e-03,1.756250162e-04,2.668304647e-04,4.424554809e-04,4.439381084e-03,7.571196740e-04,5.196500758e-03,2.605072040e-03,3.791453844e-04,2.984217424e-03,3.331719800e-03,6.751912589e-05,3.399238926e-03,2.640383673e-03,4.720547679e-04,3.112438441e-03,7.659728320e-03,1.229426985e-04,7.782671019e-03,4.704638946e-03,1.155048465e-05,4.716189431e-03,6.981412135e-03,-1.112787275e-04,6.870133408e-03,5.592744657e-03,-2.192091814e-04,5.373535476e-03,4.612926964e-03,-8.790303784e-05,4.525023926e-03,2.651213577e-03,1.282438440e-03,3.933652017e-03
-9.8,-1.640658370e-04,-5.037147928e-04,-6.677806298e-04,1.402533128e-03,4.117980010e-05,1.443712928e-03,5.610621208e-04,-2.440898386e-04,3.169722823e-04,1.196759083e-03,8.250599860e-05,1.279265082e-03,9.202069838e-04,1.142130948e-04,1.034420079e-03,2.056612784e-03,-6.083699944e-05,1.995775784e-03,1.134158441e-03,1.738811251e-05,1.151546554e-03,1.935320522e-03,-1.226305626e-05,1.923057466e-03,7.933157646e-04,-2.052893289e-06,7.912628713e-04,1.098029699e-03,-1.569213898e-04,9.411083089e-04,1.062993219e-03,-7.125471419e-05,9.917385048e-04,2.019124820e-03,3.844431490e-04,2.403567969e-03,5.935523800e-03,-3.912941450e-04,5.544229655e-03,1.002729218e-03,2.621829154e-04,1.264912133e-03,3.131602396e-03,2.026189431e-04,3.334221339e-03,1.813870222e-03,4.960465710e-05,1.863474879e-03,1.535746503e-03,2.573740367e-04,1.793120539e-03,5.703903832e-03,-4.200208293e-04,5.283883003e-03,5.729733026e-03,1.176972143e-04,5.847430240e-03,1.449445768e-03,-2.767353999e-04,1.172710368e-03,9.359790164e-04,-5.106254475e-05,8.849164717e-04,1.106175502e-03,-2.150783816e-05,1.084667664e-03,2.015257800e-04,-2.689084529e-05,1.746349347e-04,1.574861701e-04,-3.647401717e-04,-2.072540017e-04,1.464069068e-03,4.951956286e-04,1.959264697e-03,1.323684909e-04,2.878544259e-04,4.202229168e-04,4.344201940e-03,7.499465056e-04,5.094148446e-03,2.513148431e-03,3.784172913e-04,2.891565722e-03,3.226696908e-03,7.001292688e-05,3.296709835e-03,2.533289193e-03,4.648154373e-04,2.998104630e-03,7.486297678e-03,1.308574296e-04,7.617155107e-03,4.603387065e-03,-8.289635656e-07,4.602558101e-03,6.958189498e-03,-1.179582974e-04,6.840231200e-03,5.388067004e-03,-1.827379698e-04,5.205329035e-03,4.537714830e-03,-8.692125324e-05,4.450793577e-03,2.435213086e-03,1.330795233e-03,3.766008319e-03
-9.7,-1.810036096e-04,-4.863782509e-04,-6.673818605e-04,1.313639257e-03,3.307596243e-05,1.346715220e-03,5.532653134e-04,-2.428666433e-04,3.103986701e-04,1.131180012e-03,7.783389712e-05,1.209013909e-03,9.067386555e-04,1.072419419e-04,1.013980597e-03,1.937195821e-03,-6.258310508e-05,1.874612716e-03,1.080382895e-03,1.277217445e-05,1.093155069e-03,1.789765961e-03,-1.507318599e-05,1.774692775e-03,7.976131758e-04,-6.013739042e-06,7.915994367e-04,1.028045439e-03,-1.521767868e-04,8.758686518e-04,1.043141827e-03,-6.785333782e-05,9.752884888e-04,1.965565929e-03,3.798649137e-04,2.345430842e-03,5.869794386e-03,-4.066028979e-04,5.463191488e-03,9.786551652e-04,2.570312411e-04,1.235686406e-03,3.119156102e-03,2.041542203e-04,3.323310323e-03,1.731281306e-03,5.545121818e-05,1.786732524e-03,1.451211758e-03,2.400987795e-04,1.691310538e-03,5.621922762e-03,-4.178189960e-04,5.204103766e-03,5.645801441e-03,9.741843162e-05,5.743219873e-03,1.328963374e-03,-2.737688439e-04,1.055194530e-03,8.757459433e-04,-5.075923850e-05,8.249867048e-04,1.070887995e-03,-2.435046535e-05,1.046537529e-03,1.886413510e-04,-2.629418887e-05,1.623471622e-04,1.775784196e-04,-3.515972915e-04,-1.740188719e-04,1.444450726e-03,4.823793116e-04,1.926830037e-03,9.355730084e-05,3.074614486e-04,4.010187494e-04,4.249322034e-03,7.406268223e-04,4.989948857e-03,2.424271047e-03,3.756270562e-04,2.799898104e-03,3.120652093e-03,7.297565387e-05,3.193627747e-03,2.428535516e-03,4.586907921e-04,2.887226308e-03,7.309029147e-03,1.380791421e-04,7.447108289e-03,4.501201205e-03,-1.273666329e-05,4.488464542e-03,6.926587761e-03,-1.237446422e-04,6.802843118e-03,5.183532751e-03,-1.470803030e-04,5.036452448e-03,4.461989913e-03,-8.622745463e-05,4.375762458e-03,2.216018873e-03,1.380171221e-03,3.596190093e-03
-9.6,-1.978171232e-04,-4.687687708e-04,-6.665858940e-04,1.221587533e-03,2.532985628e-05,1.246917390e-03,5.450558645e-04,-2.414979488e-04,3.035579157e-04,1.065893357e-03,7.303916292e-05,1.138932520e-03,8.926012951e-04,1.001893416e-04,9.927906367e-04,1.816452693e-03,-6.434371632e-05,1.752108976e-03,1.026976609e-03,7.988852609e-06,1.034965462e-03,1.644993325e-03,-1.774897050e-05,1.627244354e-03,8.012860809e-04,-9.897801162e-06,7.913882798e-04,9.600557694e-04,-1.479671613e-04,8.120886081e-04,1.021841202e-03,-6.486681065e-05,9.569743913e-04,1.916027058e-03,3.729779843e-04,2.289005043e-03,5.798031567e-03,-4.172885213e-04,5.380743045e-03,9.572030274e-04,2.509634034e-04,1.208166431e-03,3.106254332e-03,2.057037252e-04,3.311958057e-03,1.652379104e-03,6.179808047e-05,1.714177185e-03,1.372318596e-03,2.224542213e-04,1.594772818e-03,5.533521074e-03,-4.108445532e-04,5.122676521e-03,5.560684668e-03,7.636344055e-05,5.637048108e-03,1.211388210e-03,-2.708151265e-04,9.405730834e-04,8.163790522e-04,-5.048401440e-05,7.658950378e-04,1.035695839e-03,-2.709994775e-05,1.008595892e-03,1.750851188e-04,-2.558098773e-05,1.495041311e-04,1.953077616e-04,-3.385148005e-04,-1.432070390e-04,1.426757410e-03,4.690357028e-04,1.895793113e-03,5.940722104e-05,3.255027515e-04,3.849099726e-04,4.154451332e-03,7.293156314e-04,4.883766964e-03,2.338512134e-03,3.709388972e-04,2.709451031e-03,3.013972890e-03,7.624194692e-05,3.090214837e-03,2.326091971e-03,4.536630280e-04,2.779754999e-03,7.128270902e-03,1.446310627e-04,7.272901965e-03,4.398180719e-03,-2.412867031e-05,4.374052048e-03,6.886260572e-03,-1.285814526e-04,6.757679119e-03,4.979624197e-03,-1.123741246e-04,4.867250072e-03,4.385939676e-03,-8.591462818e-05,4.300025048e-03,1.995509942e-03,1.429831002e-03,3.425340944e-03
-9.5,-2.143030865e-04,-4.508820303e-04,-6.651851168e-04,1.126770853e-03,1.792251908e-05,1.144693372e-03,5.364857692e-04,-2.399805499e-04,2.965052193e-04,1.001138783e-03,6.813677469e-05,1.069275557e-03,8.778159992e-04,9.306550191e-05,9.708815012e-04,1.694871869e-03,-6.612765694e-05,1.628744212e-03,9.741525827e-04,3.037058666e-06,9.771896414e-04,1.501424317e-03,-2.027042481e-05,1.481153892e-03,8.042733473e-04,-1.371168650e-05,7.905616608e-04,8.941434956e-04,-1.442935700e-04,7.498499255e-04,9.990214895e-04,-6.229619853e-05,9.367252910e-04,1.870482817e-03,3.638840865e-04,2.234366903e-03,5.720634857e-03,-4.236311862e-04,5.297003671e-03,9.382487691e-04,2.440134990e-04,1.182262268e-03,3.092822803e-03,2.072214196e-04,3.300044222e-03,1.577327514e-03,6.852062396e-05,1.645848138e-03,1.298881229e-03,2.045880470e-04,1.503469276e-03,5.439155820e-03,-3.994441354e-04,5.039711684e-03,5.473819300e-03,5.496882304e-05,5.528788123e-03,1.096988467e-03,-2.678725650e-04,8.291159019e-04,7.579780685e-04,-5.024907631e-05,7.077289922e-04,1.000736414e-03,-2.975774898e-05,9.709786653e-04,1.608854157e-04,-2.477007588e-05,1.361153399e-04,2.106531462e-04,-3.255082764e-04,-1.148551302e-04,1.410875639e-03,4.551928455e-04,1.866068485e-03,3.009341061e-05,3.418436999e-04,3.719371106e-04,4.059220389e-03,7.162045889e-04,4.775424977e-03,2.255876433e-03,3.645454215e-04,2.620421855e-03,2.907058638e-03,7.963373143e-05,2.986692369e-03,2.225925207e-03,4.496921323e-04,2.675617339e-03,6.944365951e-03,1.505257788e-04,7.094891730e-03,4.294421933e-03,-3.496647976e-05,4.259455453e-03,6.836920062e-03,-1.324348049e-04,6.704485257e-03,4.776769740e-03,-7.873582530e-05,4.698033915e-03,4.309714915e-03,-8.605719342e-05,4.223657721e-03,1.775629848e-03,1.478948055e-03,3.254577903e-03
-9.4,-2.302692976e-04,-4.327185798e-04,-6.629878774e-04,1.029601026e-03,1.082810942e-05,1.040429136e-03,5.276050007e-04,-2.383120953e-04,2.892929055e-04,9.371451109e-04,6.314328593e-05,1.000288397e-03,8.624064850e-04,8.588152837e-05,9.482880134e-04,1.572950725e-03,-6.793649338e-05,1.505014232e-03,9.221256282e-04,-2.081686701e-06,9.200439415e-04,1.359474247e-03,-2.261716581e-05,1.336857081e-03,8.065184710e-04,-1.746097867e-05,7.890574924e-04,8.303808599e-04,-1.411522602e-04,6.892285997e-04,9.746259715e-04,-6.014018528e-05,9.144857862e-04,1.828876868e-03,3.527012319e-04,2.181578100e-03,5.638032821e-03,-4.260156927e-04,5.212017128e-03,9.216588477e-04,2.362231659e-04,1.157882014e-03,3.078780663e-03,2.086473356e-04,3.287427998e-03,1.506287949e-03,7.547839134e-05,1.581766341e-03,1.230708267e-03,1.866540749e-04,1.417362342e-03,5.339356339e-03,-3.840422654e-04,4.955314073e-03,5.384623068e-03,3.369485964e-05,5.418317927e-03,9.860136611e-04,-2.649400474e-04,7.210736137e-04,7.006391556e-04,-5.006768410e-05,6.505714715e-04,9.661450341e-04,-3.232633175e-05,9.338187024e-04,1.460735246e-04,-2.388223681e-05,1.221912878e-04,2.236098764e-04,-3.125945908e-04,-8.898471434e-05,1.396682093e-03,4.408777377e-04,1.837559831e-03,5.753018660e-06,3.563654660e-04,3.621184847e-04,3.963207068e-03,7.015060927e-04,4.664713161e-03,2.176316830e-03,3.566555178e-04,2.532972348e-03,2.800316506e-03,8.296557433e-05,2.883282080e-03,2.128005813e-03,4.467153801e-04,2.574721193e-03,6.757656454e-03,1.557610760e-04,6.913417530e-03,4.190020340e-03,-4.522007422e-05,4.144800266e-03,6.778345655e-03,-1.352911159e-04,6.643054539e-03,4.575354587e-03,-4.626610239e-05,4.529088485e-03,4.233432455e-03,-8.671179667e-05,4.146720658e-03,1.558369763e-03,1.526603352e-03,3.084973116e-03
-9.3,-2.455372070e-04,-4.142846859e-04,-6.598218929e-04,9.305081514e-04,4.015639232e-06,9.345237906e-04,5.184643089e-04,-2.364907964e-04,2.819735125e-04,8.741314002e-04,5.807648225e-05,9.322078824e-04,8.464024703e-04,7.864946913e-05,9.250519394e-04,1.451192690e-03,-6.976526453e-05,1.381427425e-03,8.711124309e-04,-7.362707990e-06,8.637497229e-04,1.219553338e-03,-2.477062463e-05,1.194782713e-03,8.079730175e-04,-2.115025923e-05,7.868227583e-04,7.688326635e-04,-1.385347473e-04,6.302979162e-04,9.486146044e-04,-5.839513115e-05,8.902194732e-04,1.791129814e-03,3.395594917e-04,2.130689306e-03,5.550687077e-03,-4.249226336e-04,5.125764443e-03,9.072964262e-04,2.276413111e-04,1.134937737e-03,3.064039194e-03,2.099147300e-04,3.273953924e-03,1.439418346e-03,8.251730489e-05,1.521935651e-03,1.167608216e-03,1.688128464e-04,1.336421062e-03,5.234706391e-03,-3.651260497e-04,4.869580341e-03,5.292527159e-03,1.300767525e-05,5.305534835e-03,8.786961728e-04,-2.620163131e-04,6.166798597e-04,6.444566800e-04,-4.995384888e-05,5.945028311e-04,9.320540427e-04,-3.480891055e-05,8.972451322e-04,1.306855064e-04,-2.293985487e-05,1.077456516e-04,2.341906878e-04,-2.997917010e-04,-6.560101316e-05,1.384049837e-03,4.261144578e-04,1.810164295e-03,-1.351325557e-05,3.689664402e-04,3.554531846e-04,3.865963357e-03,6.854388982e-04,4.551402255e-03,2.099747128e-03,3.474837544e-04,2.447230883e-03,2.694155242e-03,8.605069203e-05,2.780205934e-03,2.032313497e-03,4.446472314e-04,2.476960728e-03,6.568484035e-03,1.603172983e-04,6.728801334e-03,4.085071053e-03,-5.487074520e-05,4.030200308e-03,6.710390698e-03,-1.371534063e-04,6.573237291e-03,4.375728976e-03,-1.505372057e-05,4.360675256e-03,4.157178378e-03,-8.791927801e-05,4.069259100e-03,1.345757612e-03,1.571780864e-03,2.917538476e-03
-9.2,-2.599448063e-04,-3.955927860e-04,-6.555375923e-04,8.299387177e-04,-2.549202465e-06,8.273895153e-04,5.091165739e-04,-2.345151745e-04,2.746013994e-04,8.123070065e-04,5.295510204e-05,8.652621085e-04,8.298412481e-04,7.138235744e-05,9.012236055e-04,1.330102593e-03,-7.160372703e-05,1.258498866e-03,8.213302375e-04,-1.279763255e-05,8.085326050e-04,1.082067099e-03,-2.671586351e-05,1.055351236e-03,8.085976751e-04,-2.478321539e-05,7.838144597e-04,7.095571343e-04,-1.364279180e-04,5.731292163e-04,9.209650260e-04,-5.705517538e-05,8.639098506e-04,1.757145050e-03,3.245966452e-04,2.081741695e-03,5.459094980e-03,-4.209181907e-04,5.038176790e-03,8.950254279e-04,2.183236987e-04,1.113349127e-03,3.048497878e-03,2.109571972e-04,3.259455075e-03,1.376868697e-03,8.947376695e-05,1.466342464e-03,1.109393379e-03,1.512308324e-04,1.260624212e-03,5.125824446e-03,-3.432269158e-04,4.782597530e-03,5.197007364e-03,-6.638603576e-06,5.190368761e-03,7.752512708e-04,-2.590991257e-04,5.161521451e-04,5.895240436e-04,-4.992193662e-05,5.396021070e-04,8.985905802e-04,-3.720923435e-05,8.613813459e-04,1.147629218e-04,-2.196659977e-05,9.279632202e-05,2.424253451e-04,-2.871182773e-04,-4.469293226e-05,1.372853000e-03,4.109224890e-04,1.783775489e-03,-2.764179718e-05,3.795634275e-04,3.519216304e-04,3.767039847e-03,6.682161371e-04,4.435255984e-03,2.026048356e-03,3.372428720e-04,2.363291228e-03,2.588976638e-03,8.870746490e-05,2.677684103e-03,1.938840540e-03,4.433794793e-04,2.382220019e-03,6.377184878e-03,1.641573504e-04,6.541342228e-03,3.979666611e-03,-6.391279182e-05,3.915753819e-03,6.632985585e-03,-1.380369026e-04,6.494948683e-03,4.178212492e-03,1.482329356e-05,4.193035786e-03,4.081010215e-03,-8.970749277e-05,3.991302722e-03,1.139840617e-03,1.613369665e-03,2.753210282e-03
-9.1,-2.733492906e-04,-3.766613638e-04,-6.500106543e-04,7.283518598e-04,-8.902314337e-06,7.194495455e-04,4.996163233e-04,-2.323839422e-04,2.672323812e-04,7.518704547e-04,4.779853334e-05,7.996689881e-04,8.127670693e-04,6.409427368e-05,8.768613430e-04,1.210179713e-03,-7.343745176e-05,1.136742262e-03,7.729939480e-04,-1.837397515e-05,7.546199729e-04,9.474152869e-04,-2.844288562e-05,9.189724013e-04,8.083609112e-04,-2.836272117e-05,7.799981901e-04,6.526045713e-04,-1.348140322e-04,5.177905391e-04,8.916711489e-04,-5.611229669e-05,8.355588522e-04,1.726810836e-03,3.079548740e-04,2.034765710e-03,5.363782183e-03,-4.146386837e-04,4.949143500e-03,8.847124265e-04,2.083319559e-04,1.093044382e-03,3.032037915e-03,2.117155131e-04,3.243753428e-03,1.318773669e-03,9.618020755e-05,1.414953876e-03,1.055881773e-03,1.340777436e-04,1.189959517e-03,5.013342876e-03,-3.189015084e-04,4.694441368e-03,5.097610685e-03,-2.481750785e-05,5.072793177e-03,6.758755371e-04,-2.561844217e-04,4.196911154e-04,5.359334090e-04,-4.998610983e-05,4.859472992e-04,8.658730868e-04,-3.953130821e-05,8.263417786e-04,9.835254911e-05,-2.098708370e-05,7.736546541e-05,2.483587366e-04,-2.745933080e-04,-2.623457142e-05,1.362969089e-03,3.953153993e-04,1.758284488e-03,-3.660888050e-05,3.880923679e-04,3.514834874e-04,3.666006621e-03,6.500366158e-04,4.316043237e-03,1.955069113e-03,3.261394262e-04,2.281208539e-03,2.485165628e-03,9.076585596e-05,2.575931484e-03,1.847593648e-03,4.427815798e-04,2.290375228e-03,6.184081324e-03,1.672296982e-04,6.351311022e-03,3.873891630e-03,-7.235290551e-05,3.801538724e-03,6.546135961e-03,-1.379643412e-04,6.408171619e-03,3.983096916e-03,4.329725228e-05,4.026394168e-03,4.004957321e-03,-9.209387189e-05,3.912863449e-03,9.426541068e-04,1.650177859e-03,2.592831966e-03
-9,-2.856288575e-04,-3.575141977e-04,-6.431430552e-04,6.262138461e-04,-1.507973893e-05,6.111341072e-04,4.900175956e-04,-2.300960531e-04,2.599215425e-04,6.930074149e-04,4.262644700e-05,7.356338619e-04,7.952286635e-04,5.680043929e-05,8.520291028e-04,1.091909224e-03,-7.524840284e-05,1.016660821e-03,7.263119211e-04,-2.407488244e-05,7.022370387e-04,8.159897319e-04,-2.994759855e-05,7.860421333e-04,8.072359187e-04,-3.189082553e-05,7.753450931e-04,5.980144803e-04,-1.336705798e-04,4.643439005e-04,8.607401283e-04,-5.555627160e-05,8.051838567e-04,1.699998428e-03,2.897790661e-04,1.989777494e-03,5.265280188e-03,-4.067661579e-04,4.858514030e-03,8.762267790e-04,1.977317754e-04,1.073958554e-03,3.014514489e-03,2.121432176e-04,3.226657707e-03,1.265243893e-03,1.024710655e-04,1.367714958e-03,1.006896440e-03,1.175225233e-04,1.124418963e-03,4.897887517e-03,-2.927138934e-04,4.605173624e-03,4.993976362e-03,-4.114401097e-05,4.952832351e-03,5.807442337e-04,-2.532655869e-04,3.274786467e-04,4.837745271e-04,-5.015967229e-05,4.336148548e-04,8.340071149e-04,-4.177912650e-05,7.922279884e-04,8.150547758e-05,-2.002645321e-05,6.147902438e-05,2.520478606e-04,-2.622358194e-04,-1.018795880e-05,1.354279000e-03,3.792999476e-04,1.733578948e-03,-4.043494744e-05,3.945084986e-04,3.540735512e-04,3.562471211e-03,6.310787356e-04,4.193549947e-03,1.886622846e-03,3.143722126e-04,2.200995059e-03,2.383080194e-03,9.207279339e-05,2.475152987e-03,1.758594657e-03,4.427012651e-04,2.201295922e-03,5.989471613e-03,1.694749584e-04,6.158946572e-03,3.767815626e-03,-8.020732566e-05,3.687608301e-03,6.449915647e-03,-1.369606935e-04,6.312954953e-03,3.790649919e-03,7.030912687e-05,3.860959046e-03,3.929019028e-03,-9.508640838e-05,3.833932620e-03,7.561768813e-04,1.680958486e-03,2.437135367e-03
-8.9,-2.966833637e-04,-3.381791010e-04,-6.348624647e-04,5.239914491e-04,-2.111657324e-05,5.028748759e-04,4.803708178e-04,-2.276508500e-04,2.527199678e-04,6.358882922e-04,3.745841159e-05,6.733467038e-04,7.772757666e-04,4.951735269e-05,8.267931193e-04,9.757533720e-04,-7.701520101e-05,8.987381710e-04,6.814811525e-04,-2.987903047e-05,6.516021220e-04,6.881715501e-04,-3.123256978e-05,6.569389803e-04,8.051970204e-04,-3.536867353e-05,7.698283469e-04,5.458123688e-04,-1.329700982e-04,4.128422706e-04,8.281888971e-04,-5.537455497e-05,7.728143421e-04,1.676557864e-03,2.702164184e-04,1.946774282e-03,5.164094972e-03,-3.979974166e-04,4.766097555e-03,8.694394871e-04,1.865906344e-04,1.056030121e-03,2.995749520e-03,2.122098164e-04,3.207959337e-03,1.216357490e-03,1.081884529e-04,1.324545943e-03,9.622620721e-04,1.017292232e-04,1.063991295e-03,4.780058512e-03,-2.652200999e-04,4.514838412e-03,4.885851597e-03,-5.528772022e-05,4.830563877e-03,4.900083930e-04,-2.503329066e-04,2.396754864e-04,4.331330945e-04,-5.045441250e-05,3.826786820e-04,8.030812811e-04,-4.395654640e-05,7.591247347e-04,6.427612304e-05,-1.910988451e-05,4.516623853e-05,2.535583636e-04,-2.500647756e-04,3.493588059e-06,1.346665385e-03,3.628758655e-04,1.709541250e-03,-3.918913218e-05,3.987862416e-04,3.595971094e-04,3.456094960e-03,6.114951205e-04,4.067590080e-03,1.820485133e-03,3.021329759e-04,2.122618109e-03,2.283041666e-03,9.249609279e-05,2.375537759e-03,1.671880519e-03,4.429657201e-04,2.114846239e-03,5.793619062e-03,1.708361876e-04,5.964455249e-03,3.661486808e-03,-8.749853780e-05,3.573988270e-03,6.344456033e-03,-1.350475232e-04,6.209408510e-03,3.601119415e-03,9.580520550e-05,3.696924620e-03,3.853161126e-03,-9.868278186e-05,3.754478344e-03,5.822758685e-04,1.704446666e-03,2.286722535e-03
-8.8,-3.064338076e-04,-3.186863753e-04,-6.251201829e-04,4.221451841e-04,-2.704611462e-05,3.950990694e-04,4.707196896e-04,-2.250482164e-04,2.456714732e-04,5.806660892e-04,3.231353021e-05,6.129796194e-04,7.589558395e-04,4.226294942e-05,8.012187890e-04,8.621439267e-04,-7.871378004e-05,7.834301466e-04,6.386827218e-04,-3.576072007e-05,6.029220018e-04,5.643281472e-04,-3.230762490e-05,5.320205223e-04,8.022169516e-04,-3.879641657e-05,7.634205351e-04,4.960075563e-04,-1.326800992e-04,3.633274571e-04,7.940416514e-04,-5.555215168e-05,7.384894997e-04,1.656313691e-03,2.494165975e-04,1.905730288e-03,5.060678169e-03,-3.890134197e-04,4.671664749e-03,8.642215376e-04,1.749756701e-04,1.039197208e-03,2.975526640e-03,2.119015840e-04,3.187428224e-03,1.172152748e-03,1.131871691e-04,1.285339917e-03,9.217997374e-04,8.685392727e-05,1.008653665e-03,4.660412105e-03,-2.369542771e-04,4.423457828e-03,4.773100916e-03,-6.698526026e-05,4.706115656e-03,4.037924787e-04,-2.473731180e-04,1.564193607e-04,3.840891627e-04,-5.087995325e-05,3.332092094e-04,7.731641874e-04,-4.606729386e-05,7.270968935e-04,4.672174213e-05,-1.826195483e-05,2.845978730e-05,2.529614205e-04,-2.380991494e-04,1.486227118e-05,1.340010374e-03,3.460364568e-04,1.686046831e-03,-3.299247981e-05,4.009191163e-04,3.679266365e-04,3.346607031e-03,5.914073099e-04,3.938014341e-03,1.756393794e-03,2.896080838e-04,2.046001878e-03,2.185325965e-03,9.192718352e-05,2.277253149e-03,1.587503018e-03,4.433834612e-04,2.030886479e-03,5.596743164e-03,1.712708293e-04,5.768013993e-03,3.554928647e-03,-9.425327384e-05,3.460675373e-03,6.229935575e-03,-1.322384971e-04,6.097697078e-03,3.414737995e-03,1.197330595e-04,3.534471055e-03,3.777312320e-03,-1.028682281e-04,3.674444091e-03,4.226443038e-04,1.719406002e-03,2.142050306e-03
-8.7,-3.148206034e-04,-2.990672192e-04,-6.138878226e-04,3.211234475e-04,-3.289909562e-05,2.882243518e-04,4.610991034e-04,-2.222886929e-04,2.388104105e-04,5.274752609e-04,2.721009022e-05,5.546853511e-04,7.403121524e-04,3.505672695e-05,7.753688793e-04,7.514773906e-04,-8.031901645e-05,6.711583742e-04,5.980784420e-04,-4.169022996e-05,5.563882121e-04,4.448103360e-04,-3.319030254e-05,4.116200334e-04,7.982662964e-04,-4.217312796e-05,7.560931685e-04,4.485931713e-04,-1.327631809e-04,3.158299904e-04,7.583294973e-04,-5.607152329e-05,7.022579740e-04,1.639062752e-03,2.275316053e-04,1.866594357e-03,4.955406971e-03,-3.804532756e-04,4.574953695e-03,8.604428902e-04,1.629520655e-04,1.023394956e-03,2.953590031e-03,2.112207030e-04,3.164810734e-03,1.132622455e-03,1.173389240e-04,1.249961379e-03,8.853208005e-04,7.304353769e-05,9.583643382e-04,4.539443142e-03,-2.084147969e-04,4.331028345e-03,4.655706920e-03,-7.605007862e-05,4.579656841e-03,3.221934111e-04,-2.443689978e-04,7.782441334e-05,3.367161603e-04,-5.144309918e-05,2.852730612e-04,7.443029644e-04,-4.811496599e-05,6.961879984e-04,2.890282795e-05,-1.750590680e-05,1.139692115e-05,2.503317001e-04,-2.263580818e-04,2.397361834e-05,1.334193908e-03,3.287697742e-04,1.662963682e-03,-2.201835263e-05,4.009196295e-04,3.789012768e-04,3.233813757e-03,5.709021016e-04,3.804715859e-03,1.694054114e-03,2.769794157e-04,1.971033529e-03,2.090157148e-03,9.028299879e-05,2.180440147e-03,1.505529020e-03,4.437466576e-04,1.949275678e-03,5.399015232e-03,1.707612063e-04,5.569776439e-03,3.448139548e-03,-1.005024275e-04,3.347637120e-03,6.106573003e-03,-1.285376392e-04,5.978035363e-03,3.231728544e-03,1.420373178e-04,3.373765862e-03,3.701362714e-03,-1.076126486e-04,3.593750066e-03,2.787385939e-04,1.724682227e-03,2.003420821e-03
-8.6,-3.218006433e-04,-2.793522941e-04,-6.011529373e-04,2.213583101e-04,-3.870299364e-05,1.826553165e-04,4.515346983e-04,-2.193735658e-04,2.321611325e-04,4.764320242e-04,2.216522979e-05,4.985972540e-04,7.213838422e-04,2.791976141e-05,7.493036036e-04,6.441135572e-04,-8.180718427e-05,5.623063729e-04,5.598092305e-04,-4.763437501e-05,5.121748555e-04,3.299497362e-04,-3.390603162e-05,2.960437046e-04,7.933154585e-04,-4.549672521e-05,7.478187333e-04,4.035486249e-04,-1.331773156e-04,2.703713092e-04,7.210925763e-04,-5.691254805e-05,6.641800283e-04,1.624575177e-03,2.047148713e-04,1.829290048e-03,4.848572175e-03,-3.728918667e-04,4.475680308e-03,8.579728957e-04,1.505818822e-04,1.008554778e-03,2.929647918e-03,2.101834747e-04,3.139831393e-03,1.097710284e-03,1.205359719e-04,1.218246256e-03,8.526209063e-04,6.043644494e-05,9.130573513e-04,4.417569737e-03,-1.800495499e-04,4.237520187e-03,4.533762235e-03,-8.237792102e-05,4.451384314e-03,2.452812858e-04,-2.412990223e-04,3.982263489e-06,2.910809045e-04,-5.214729590e-05,2.389336086e-04,7.165236781e-04,-5.010294226e-05,6.664207359e-04,1.088431856e-05,-1.686290915e-05,-5.978590587e-06,2.457468021e-04,-2.148609636e-04,3.088583850e-05,1.329093577e-03,3.110599267e-04,1.640153504e-03,-6.489234884e-06,3.988188688e-04,3.923296340e-04,3.117602843e-03,5.500313652e-04,3.667634208e-03,1.633149419e-03,2.644237342e-04,1.897573153e-03,1.997704834e-03,8.750722926e-05,2.085212064e-03,1.426041657e-03,4.438338690e-04,1.869875526e-03,5.200559343e-03,1.693214065e-04,5.369880749e-03,3.341095361e-03,-1.062825360e-04,3.234812825e-03,5.974625532e-03,-1.239404562e-04,5.850685076e-03,3.052312445e-03,1.626547756e-04,3.214967221e-03,3.625165750e-03,-1.128673309e-04,3.512298419e-03,1.517173245e-04,1.719263839e-03,1.870981164e-03
-8.5,-3.273434985e-04,-2.595705791e-04,-5.869140776e-04,1.232630567e-04,-4.448149832e-05,7.878155837e-05,4.420437744e-04,-2.163049503e-04,2.257388241e-04,4.276359135e-04,1.719468532e-05,4.448305988e-04,7.022074793e-04,2.087457883e-05,7.230820581e-04,5.403763881e-04,-8.315846766e-05,4.572179205e-04,5.239948991e-04,-5.355711568e-05,4.704377835e-04,2.200565186e-04,-3.448778415e-05,1.855687344e-04,7.873380976e-04,-4.876393831e-05,7.385741593e-04,3.608435326e-04,-1.338762986e-04,2.269672340e-04,6.823835886e-04,-5.805257522e-05,6.243310134e-04,1.612597941e-03,1.811200506e-04,1.793717992e-03,4.740372182e-03,-3.668191718e-04,4.373553010e-03,8.566816090e-04,1.379232517e-04,9.946048607e-04,2.903380025e-03,2.088182059e-04,3.112198231e-03,1.067309446e-03,1.226944620e-04,1.190003908e-03,8.234746913e-04,4.916403577e-05,8.726387271e-04,4.295122237e-03,-1.522418307e-04,4.142880406e-03,4.407455639e-03,-8.594695562e-05,4.321508684e-03,1.731013387e-04,-2.381372720e-04,-6.503593323e-05,2.472444284e-04,-5.299237906e-05,1.942520493e-04,6.898331618e-04,-5.203424398e-05,6.377989178e-04,-7.262958467e-06,-1.635145572e-05,-2.361441419e-05,2.392878440e-04,-2.036272727e-04,3.566057129e-05,1.324585760e-03,2.928882425e-04,1.617474003e-03,1.332922135e-05,3.946656793e-04,4.079949007e-04,2.997944852e-03,5.288150063e-04,3.526759858e-03,1.573354921e-03,2.521108682e-04,1.825465789e-03,1.908085561e-03,8.357111302e-05,1.991656674e-03,1.349141132e-03,4.434140347e-04,1.792555166e-03,5.001458150e-03,1.669993150e-04,5.168457465e-03,3.233753765e-03,-1.116376379e-04,3.122116127e-03,5.834390850e-03,-1.184370809e-04,5.715953769e-03,2.876719550e-03,1.815088542e-04,3.058228405e-03,3.548543292e-03,-1.185619929e-04,3.429981300e-03,4.238625192e-05,1.702346173e-03,1.744732425e-03
-8.4,-3.314275678e-04,-2.397485334e-04,-5.711761012e-04,2.723080867e-05,-5.025416056e-05,-2.302335190e-05,4.326365857e-04,-2.130858640e-04,2.195507217e-04,3.811716876e-04,1.231269309e-05,3.934843807e-04,6.828188332e-04,1.394490035e-05,6.967637335e-04,4.405551903e-04,-8.435875036e-05,3.561964399e-04,4.907344310e-04,-5.942014300e-05,4.313142880e-04,1.154175036e-04,-3.497514573e-05,8.044235791e-05,7.803141865e-04,-5.197037627e-05,7.283438102e-04,3.204413614e-04,-1.348103614e-04,1.856309999e-04,6.422708768e-04,-5.946662333e-05,5.828042534e-04,1.602858772e-03,1.569004898e-04,1.759759262e-03,4.630910759e-03,-3.626216478e-04,4.268289111e-03,8.564406170e-04,1.250299541e-04,9.814705711e-04,2.874447846e-03,2.071624585e-04,3.081610305e-03,1.041263515e-03,1.237571930e-04,1.165020708e-03,7.976321640e-04,3.935125110e-05,8.369834151e-04,4.172337168e-03,-1.252995749e-04,4.047037593e-03,4.277055358e-03,-8.681193213e-05,4.190243426e-03,1.056762258e-04,-2.348537717e-04,-1.291775459e-04,2.052629365e-04,-5.397465119e-05,1.512882853e-04,6.642213267e-04,-5.391139839e-05,6.103099283e-04,-2.546135043e-05,-1.598697687e-05,-4.144832730e-05,2.310403389e-04,-1.926761057e-04,3.836423326e-05,1.320546823e-03,2.742344022e-04,1.594781226e-03,3.713475407e-05,3.885254132e-04,4.256601672e-04,2.874894969e-03,5.072445446e-04,3.382139513e-03,1.514352257e-03,2.402010036e-04,1.754553261e-03,1.821366422e-03,7.847399466e-05,1.899840416e-03,1.274942777e-03,4.422525198e-04,1.717195296e-03,4.801763069e-03,1.638731927e-04,4.965636262e-03,3.126059014e-03,-1.166201265e-04,3.009438888e-03,5.686210370e-03,-1.120169161e-04,5.574193454e-03,2.705196596e-03,1.985052660e-04,2.903701862e-03,3.471292014e-03,-1.246028718e-04,3.346689142e-03,-4.884246367e-05,1.673388246e-03,1.624545782e-03
-8.3,-3.340370568e-04,-2.199095018e-04,-5.539465587e-04,-6.636670044e-05,-5.603615076e-05,-1.224028512e-04,4.233170421e-04,-2.097202832e-04,2.135967589e-04,3.371105617e-04,7.532046642e-06,3.446426083e-04,6.632535924e-04,7.155310708e-06,6.704089031e-04,3.449045391e-04,-8.540044934e-05,2.595040897e-04,4.601058246e-04,-6.518351092e-05,3.949223137e-04,1.629434886e-05,-3.541296431e-05,-1.911861545e-05,7.722313444e-04,-5.511069098e-05,7.171206534e-04,2.823015271e-04,-1.359269221e-04,1.463746051e-04,6.008397140e-04,-6.112771055e-05,5.397120035e-04,1.595068679e-03,1.322095411e-04,1.727278220e-03,4.520195262e-03,-3.605671902e-04,4.159628072e-03,8.571224898e-04,1.119513077e-04,9.690737975e-04,2.842506731e-03,2.052585431e-04,3.047765274e-03,1.019368984e-03,1.236949663e-04,1.143063950e-03,7.748178026e-04,3.111469613e-05,8.059324987e-04,4.049355310e-03,-9.944992535e-05,3.949905385e-03,4.142889718e-03,-8.509247428e-05,4.057797243e-03,4.300772017e-05,-2.314153101e-04,-1.884075899e-04,1.651881447e-04,-5.508711320e-05,1.101010315e-04,6.396630771e-04,-5.573627159e-05,5.839268055e-04,-4.362641369e-05,-1.578164170e-05,-5.940805539e-05,2.210946117e-04,-1.820254577e-04,3.906915395e-05,1.316853185e-03,2.550778326e-04,1.571931017e-03,6.459401295e-05,3.804780329e-04,4.450720459e-04,2.748595874e-03,4.852850835e-04,3.233880957e-03,1.455842584e-03,2.288413542e-04,1.684683938e-03,1.737568874e-03,7.224392116e-05,1.809812795e-03,1.203571071e-03,4.401188715e-04,1.643689942e-03,4.601507193e-03,1.600443759e-04,4.761551569e-03,3.017946334e-03,-1.212901566e-04,2.896656177e-03,5.530471506e-03,-1.046748838e-04,5.425796622e-03,2.538010433e-03,2.135316704e-04,2.751542103e-03,3.393189134e-03,-1.308721490e-04,3.262316985e-03,-1.219672697e-04,1.632150963e-03,1.510183693e-03
-8.2,-3.351602705e-04,-2.000733377e-04,-5.352336081e-04,-1.571807866e-04,-6.183807376e-05,-2.190188603e-04,4.140823784e-04,-2.062131880e-04,2.078691904e-04,2.955101859e-04,2.864230367e-06,2.983744163e-04,6.435464906e-04,5.308900343e-07,6.440773806e-04,2.536426169e-04,-8.628275098e-05,1.673598659e-04,4.321649990e-04,-7.080637667e-05,3.613586223e-04,-7.707883455e-05,-3.584966483e-05,-1.129284994e-04,7.630841126e-04,-5.817876872e-05,7.049053439e-04,2.463795977e-04,-1.371713912e-04,1.092082065e-04,5.581914494e-04,-6.300722794e-05,4.951842215e-04,1.588923322e-03,1.072007717e-04,1.696124094e-03,4.408132811e-03,-3.607949396e-04,4.047337872e-03,8.585988474e-04,9.873218860e-05,9.573310360e-04,2.807218028e-03,2.031474357e-04,3.010365463e-03,1.001378903e-03,1.225061898e-04,1.123885093e-03,7.547325893e-04,2.455833211e-05,7.792909214e-04,3.926222870e-03,-7.483940988e-05,3.851383460e-03,4.005324449e-03,-8.095710856e-05,3.924367340e-03,-1.492270895e-05,-2.277866060e-04,-2.427093150e-04,1.270666499e-04,-5.631964941e-05,7.074700049e-05,6.161194403e-04,-5.750980517e-05,5.586096352e-04,-6.166793752e-05,-1.574429982e-05,-7.741223734e-05,2.095454904e-04,-1.716914081e-04,3.785408225e-05,1.313379991e-03,2.353992887e-04,1.548779279e-03,9.534676030e-05,3.706154140e-04,4.659621743e-04,2.619279687e-03,4.628759091e-04,3.082155596e-03,1.397556426e-03,2.181627305e-04,1.615719156e-03,1.656671407e-03,6.493824640e-05,1.721609654e-03,1.135150095e-03,4.367952328e-04,1.571945328e-03,4.400717197e-03,1.556301451e-04,4.556347342e-03,2.909345944e-03,-1.257139345e-04,2.783632010e-03,5.367607313e-03,-9.641910630e-05,5.271188207e-03,2.375444155e-03,2.264624594e-04,2.601906614e-03,3.313996659e-03,-1.372288346e-04,3.176767825e-03,-1.773867328e-04,1.578711337e-03,1.401324604e-03
-8.1,-3.347891960e-04,-1.802562875e-04,-5.150454836e-04,-2.448879681e-04,-6.766586408e-05,-3.125538322e-04,4.049219307e-04,-2.025705912e-04,2.023513394e-04,2.564133995e-04,-1.680457662e-06,2.547329418e-04,6.237290412e-04,-5.903164930e-06,6.178258763e-04,1.669486681e-04,-8.701166858e-05,7.993699950e-05,4.069437295e-04,-7.624778170e-05,3.306959478e-04,-1.644988916e-04,-3.633524119e-05,-2.008341328e-04,7.528716300e-04,-6.116786728e-05,6.917037628e-04,2.126260162e-04,-1.384879457e-04,7.413807051e-05,5.144409949e-04,-6.507526122e-05,4.493657337e-04,1.584104328e-03,8.202709569e-05,1.666131424e-03,4.294525571e-03,-3.633108442e-04,3.931214727e-03,8.607374305e-04,8.541316992e-05,9.461506004e-04,2.768259193e-03,2.008630607e-04,2.969122253e-03,9.870068575e-04,1.202153295e-04,1.107222187e-03,7.370584996e-04,1.976799926e-05,7.568264989e-04,3.802895944e-03,-5.153942649e-05,3.751356518e-03,3.864737952e-03,-7.460568886e-05,3.790132263e-03,-6.815438568e-05,-2.239316316e-04,-2.920860173e-04,9.093850577e-05,-5.765915948e-05,3.327934629e-05,5.935380884e-04,-5.923169283e-05,5.343063956e-04,-7.949163972e-05,-1.588051788e-05,-9.537215760e-05,1.964914190e-04,-1.616874107e-04,3.480400825e-05,1.309998907e-03,2.151821017e-04,1.525181008e-03,1.290089203e-04,3.590382887e-04,4.880472090e-04,2.487265696e-03,4.399317088e-04,2.927197405e-03,1.339259645e-03,2.082760482e-04,1.547535693e-03,1.578610933e-03,5.664366740e-05,1.635254600e-03,1.069791923e-03,4.320845858e-04,1.501876509e-03,4.199421161e-03,1.507598440e-04,4.350181005e-03,2.800186451e-03,-1.299610912e-04,2.670225360e-03,5.198092331e-03,-8.727877707e-05,5.110813554e-03,2.217786294e-03,2.371673477e-04,2.454953641e-03,3.233464486e-03,-1.435113121e-04,3.089953174e-03,-2.158643465e-04,1.513453069e-03,1.297588722e-03
-8,-3.329200246e-04,-1.604711552e-04,-4.933911797e-04,-3.291922765e-04,-7.352077354e-05,-4.027130501e-04,3.958156025e-04,-1.987995055e-04,1.970160971e-04,2.198462463e-04,-6.092812606e-06,2.137534337e-04,6.038266405e-04,-1.212190054e-05,5.917047400e-04,8.496086720e-05,-8.760006880e-05,-2.639201601e-06,3.844470526e-04,-8.146738359e-05,3.029796690e-04,-2.457976732e-04,-3.691910880e-05,-2.827167820e-04,7.415947326e-04,-6.407066791e-05,6.775240647e-04,1.809843185e-04,-1.398202417e-04,4.116407679e-05,4.697137161e-04,-6.730083818e-05,4.024128780e-04,1.580281037e-03,5.683898895e-05,1.637120026e-03,4.179068191e-03,-3.679893348e-04,3.811078856e-03,8.633988396e-04,7.203096709e-05,9.354298066e-04,2.725331172e-03,1.984286731e-04,2.923759845e-03,9.759304778e-04,1.168713511e-04,1.092801829e-03,7.214653206e-04,1.680574445e-05,7.382710650e-04,3.679249283e-03,-2.955661314e-05,3.649692670e-03,3.721497438e-03,-6.625224463e-05,3.655245193e-03,-1.167482936e-04,-2.198149330e-04,-3.365632266e-04,5.683554645e-05,-5.908978298e-05,-2.254236532e-06,5.718538561e-04,-6.090011889e-05,5.109537372e-04,-9.700101015e-05,-1.619264052e-05,-1.131936507e-04,1.820334182e-04,-1.520238397e-04,3.000957845e-05,1.306575777e-03,1.944127604e-04,1.500988538e-03,1.651747359e-04,3.458535893e-04,5.110283252e-04,2.352951873e-03,4.163463006e-04,2.769298174e-03,1.280756304e-03,1.992686354e-04,1.480024940e-03,1.503283653e-03,4.747491168e-05,1.550758565e-03,1.007584897e-03,4.258181916e-04,1.433403089e-03,3.997652747e-03,1.455733997e-04,4.143226146e-03,2.690396878e-03,-1.341011286e-04,2.556295750e-03,5.022434359e-03,-7.731027419e-05,4.945124084e-03,2.065314803e-03,2.455216364e-04,2.310836439e-03,3.151333766e-03,-1.495417156e-04,3.001792051e-03,-2.384739887e-04,1.437038118e-03,1.198564129e-03
-7.9,-3.295540669e-04,-1.407276545e-04,-4.702817214e-04,-4.098271508e-04,-7.939939178e-05,-4.892265426e-04,3.867328720e-04,-1.949077779e-04,1.918250941e-04,1.858160297e-04,-1.036462947e-05,1.754514002e-04,5.838561415e-04,-1.810091944e-05,5.657552221e-04,7.775930364e-06,-8.806770827e-05,-8.029177790e-05,3.646509877e-04,-8.642615922e-05,2.782248284e-04,-3.208457367e-04,-3.764808349e-05,-3.584938202e-04,7.292538646e-04,-6.687927016e-05,6.623745944e-04,1.513901399e-04,-1.411121150e-04,1.027802490e-05,4.241430985e-04,-6.965215625e-05,3.544909422e-04,1.577112486e-03,3.178281307e-05,1.608895299e-03,4.061350131e-03,-3.745814329e-04,3.686768698e-03,8.664340582e-04,5.861926427e-05,9.250533224e-04,2.678163546e-03,1.958560840e-04,2.874019630e-03,9.677945272e-04,1.125468349e-04,1.080341362e-03,7.076197728e-04,1.570461482e-05,7.233243877e-04,3.555089474e-03,-8.846724791e-06,3.546242750e-03,3.575938737e-03,-5.610869103e-05,3.519830046e-03,-1.607872687e-04,-2.154028810e-04,-3.761901497e-04,2.478007476e-05,-6.059326876e-05,-3.581319400e-05,5.509899993e-04,-6.251162615e-05,4.884783732e-04,-1.140986702e-04,-1.667977876e-05,-1.307784490e-04,1.662744838e-04,-1.427078287e-04,2.356665517e-05,1.302968867e-03,1.730811726e-04,1.476050040e-03,2.034190656e-04,3.311725091e-04,5.345915747e-04,2.216801072e-03,3.919994980e-04,2.608800570e-03,1.221889316e-03,1.912012179e-04,1.413090534e-03,1.430546722e-03,3.757156669e-05,1.468118289e-03,9.485840125e-04,4.178615828e-04,1.366445595e-03,3.795454287e-03,1.402190716e-04,3.935673358e-03,2.579906908e-03,-1.381989790e-04,2.441707929e-03,4.841163602e-03,-6.660005250e-05,4.774563550e-03,1.918278973e-03,2.514164711e-04,2.169695444e-03,3.067342397e-03,-1.551322523e-04,2.912210145e-03,-2.465324524e-04,1.350367598e-03,1.103835146e-03
-7.8,-3.246983939e-04,-1.210328402e-04,-4.457312341e-04,-4.865562219e-04,-8.529364997e-05,-5.718498719e-04,3.776332270e-04,-1.909037789e-04,1.867294481e-04,1.543103228e-04,-1.448861278e-05,1.398217100e-04,5.638250370e-04,-2.381664933e-05,5.400083876e-04,-6.454889029e-05,-8.844120722e-05,-1.529900975e-04,3.475015823e-04,-9.108716600e-05,2.564144163e-04,-3.895548552e-04,-3.856454526e-05,-4.281194005e-04,7.158490805e-04,-6.958517028e-05,6.462639102e-04,1.237721530e-04,-1.423083217e-04,-1.853616876e-05,3.778703682e-04,-7.209685018e-05,3.057735181e-04,1.574249878e-03,6.999827177e-06,1.581249705e-03,3.940866716e-03,-3.827302905e-04,3.558136425e-03,8.696839089e-04,4.520979764e-05,9.148937065e-04,2.626517956e-03,1.931480372e-04,2.819665993e-03,9.622150517e-04,1.073372352e-04,1.069552287e-03,6.951962048e-04,1.646496832e-05,7.116611731e-04,3.430171791e-03,1.066985566e-05,3.440841647e-03,3.428352348e-03,-4.436974352e-05,3.383982605e-03,-2.003745475e-04,-2.106648997e-04,-4.110394472e-04,-5.215594375e-06,-6.214937429e-05,-6.736496867e-05,5.308607364e-04,-6.406107507e-05,4.667996614e-04,-1.306867100e-04,-1.733768623e-05,-1.480243963e-04,1.493199361e-04,-1.337433399e-04,1.557659617e-05,1.299028257e-03,1.511813401e-04,1.450209597e-03,2.433015765e-04,3.151090049e-04,5.584105814e-04,2.079325057e-03,3.667662600e-04,2.446091317e-03,1.162539840e-03,1.841068892e-04,1.346646730e-03,1.360222143e-03,2.709308074e-05,1.387315224e-03,8.928052189e-04,4.081186822e-04,1.300923901e-03,3.592880434e-03,1.348482623e-04,3.727728696e-03,2.468646280e-03,-1.423099356e-04,2.326336344e-03,4.654821880e-03,-5.526421720e-05,4.599557663e-03,1.776883181e-03,2.547681001e-04,2.031651281e-03,2.981234026e-03,-1.600933752e-04,2.821140651e-03,-2.415267342e-04,1.254539698e-03,1.013012963e-03
-7.7,-3.183656159e-04,-1.013916039e-04,-4.197572198e-04,-5.591724656e-04,-9.119085602e-05,-6.503633216e-04,3.684685475e-04,-1.867960130e-04,1.816725345e-04,1.252976514e-04,-1.845832776e-05,1.068393236e-04,5.437329009e-04,-2.924661491e-05,5.144862860e-04,-1.319918383e-04,-8.875354390e-05,-2.207453822e-04,3.329159429e-04,-9.541635940e-05,2.374995835e-04,-4.518789961e-04,-3.970468539e-05,-4.915836815e-04,7.013825041e-04,-7.217924681e-05,6.292032573e-04,9.805518921e-05,-1.433553154e-04,-4.530012615e-05,3.310462976e-04,-7.460229739e-05,2.564440002e-04,1.571340125e-03,-1.737443013e-05,1.553965695e-03,3.817043181e-03,-3.919943261e-04,3.425048854e-03,8.729806730e-04,3.183361361e-05,9.048142867e-04,2.570190335e-03,1.903033086e-04,2.760493644e-03,9.587863917e-04,1.013590155e-04,1.060145407e-03,6.838878798e-04,1.905278740e-05,7.029406672e-04,3.304220995e-03,2.909171009e-05,3.333312705e-03,3.278977805e-03,-3.120107112e-05,3.247776734e-03,-2.356303584e-04,-2.055747566e-04,-4.412051150e-04,-3.314851380e-05,-6.373620490e-05,-9.688471870e-05,5.113751034e-04,-6.554164295e-05,4.458334604e-04,-1.466659267e-04,-1.815862156e-05,-1.648245483e-04,1.312788324e-04,-1.251313298e-04,6.147502566e-06,1.294596709e-03,1.287130147e-04,1.423309723e-03,2.843740732e-04,2.977783057e-04,5.821523789e-04,1.941069270e-03,3.405268667e-04,2.281596137e-03,1.102626851e-03,1.779922475e-04,1.280619099e-03,1.292103757e-03,1.621255373e-05,1.308316311e-03,8.402237923e-04,3.965340591e-04,1.236757851e-03,3.390002712e-03,1.296075320e-04,3.519610244e-03,2.356545381e-03,-1.464746302e-04,2.210070751e-03,4.463954509e-03,-4.344601746e-05,4.420508492e-03,1.641275394e-03,2.555260194e-04,1.896801414e-03,2.892770353e-03,-1.642429654e-04,2.728527388e-03,-2.250445255e-04,1.150808698e-03,9.257641722e-04
-7.6,-3.105727382e-04,-8.180731920e-05,-3.923800574e-04,-6.274958368e-04,-9.707384639e-05,-7.245696832e-04,3.591870855e-04,-1.825927493e-04,1.765943361e-04,9.872982433e-05,-2.226818785e-05,7.646163648e-05,5.235746773e-04,-3.436977592e-05,4.892049014e-04,-1.945619295e-04,-8.904249666e-05,-2.836044262e-04,3.207850319e-04,-9.938333077e-05,2.214017011e-04,-5.078137987e-04,-4.109689543e-05,-5.489106941e-04,6.858622023e-04,-7.465177119e-05,6.112104312e-04,7.416450125e-05,-1.442020207e-04,-7.003751947e-05,2.838340662e-04,-7.713592370e-05,2.066981425e-04,1.568030468e-03,-4.121092505e-05,1.526819543e-03,3.689270915e-03,-4.018750674e-04,3.287395848e-03,8.761508538e-04,1.852249075e-05,8.946733445e-04,2.509012644e-03,1.873228512e-04,2.696335496e-03,9.570911960e-04,9.474585251e-05,1.051837048e-03,6.734182675e-04,2.339905560e-05,6.968173232e-04,3.176956885e-03,4.651863569e-05,3.223475520e-03,3.128006325e-03,-1.673307546e-05,3.111273250e-03,-2.666872799e-04,-2.001119358e-04,-4.667992157e-04,-5.902361678e-05,-6.533057486e-05,-1.243541916e-04,4.924415163e-04,-6.694488242e-05,4.254966339e-04,-1.619345345e-04,-1.913137152e-05,-1.810659060e-04,1.122659851e-04,-1.168698739e-04,-4.603888809e-06,1.289511697e-03,1.056844297e-04,1.395196127e-03,3.261904569e-04,2.792952711e-04,6.054857281e-04,1.802599681e-03,3.131772404e-04,2.115776922e-03,1.042107523e-03,1.728399587e-04,1.214947482e-03,1.225966791e-03,5.110229417e-06,1.231077020e-03,7.907749270e-04,3.830937074e-04,1.173868634e-03,3.186914685e-03,1.246292942e-04,3.311543979e-03,2.243537800e-03,-1.507146824e-04,2.092823117e-03,4.269106219e-03,-3.131285661e-05,4.237793362e-03,1.511541398e-03,2.536802732e-04,1.765221672e-03,2.801744671e-03,-1.674149063e-04,2.634329765e-03,-1.987161222e-04,1.040547023e-03,8.418309004e-04
-7.5,-3.013397578e-04,-6.228267492e-05,-3.636224327e-04,-6.913702474e-04,-1.029212561e-04,-7.942915035e-04,3.497378554e-04,-1.783017231e-04,1.714361323e-04,7.454497551e-05,-2.591342081e-05,4.863155470e-05,5.033443973e-04,-3.916694318e-05,4.641774541e-04,-2.522947579e-04,-8.934795096e-05,-3.416427089e-04,3.109771714e-04,-1.029618395e-04,2.080153319e-04,-5.573947756e-04,-4.276062826e-05,-6.001554038e-04,6.693056081e-04,-7.699246679e-05,5.923131413e-04,5.202940661e-05,-1.448005742e-04,-9.277116761e-05,2.364113506e-04,-7.966551000e-05,1.567458406e-04,1.563973327e-03,-6.438847936e-05,1.499584847e-03,3.556948274e-03,-4.118445508e-04,3.145103723e-03,8.790177064e-04,5.310318211e-06,8.843280246e-04,2.442854115e-03,1.842149116e-04,2.627069027e-03,9.567117055e-04,8.764306185e-05,1.044354767e-03,6.635516936e-04,2.939917854e-05,6.929508721e-04,3.048122844e-03,6.303304023e-05,3.111155884e-03,2.975589726e-03,-1.061063869e-06,2.974528662e-03,-2.936857222e-04,-1.942630575e-04,-4.879487797e-04,-8.285195902e-05,-6.690853937e-05,-1.497604984e-04,4.739720490e-04,-6.826088420e-05,4.057111648e-04,-1.763872226e-04,-2.024152011e-05,-1.966287427e-04,9.240376525e-05,-1.089541946e-04,-1.655042932e-05,1.283607659e-03,8.211566689e-05,1.365723326e-03,3.683170281e-04,2.597728802e-04,6.280899083e-04,1.664492406e-03,2.846380969e-04,1.949130503e-03,9.809776623e-04,1.686119180e-04,1.149589580e-03,1.161578517e-03,-6.032599615e-06,1.155545917e-03,7.443543879e-04,3.678247942e-04,1.112179182e-03,2.983736766e-03,1.200225382e-04,3.103759304e-03,2.129563104e-03,-1.550289660e-04,1.974534138e-03,4.070820165e-03,-1.905335484e-05,4.051766810e-03,1.387703957e-03,2.492676673e-04,1.636971625e-03,2.707993606e-03,-1.694657115e-04,2.538527895e-03,-1.641731340e-04,9.252110437e-04,7.610379097e-04
-7.4,-2.906889454e-04,-4.282066101e-05,-3.335096064e-04,-7.506609664e-04,-1.087078214e-04,-8.593687878e-04,3.400741329e-04,-1.739299015e-04,1.661442315e-04,5.267008792e-05,-2.938998012e-05,2.328010779e-05,4.830377894e-04,-4.362121410e-05,4.394165753e-04,-3.052494002e-04,-8.970875090e-05,-3.949581511e-04,3.033410707e-04,-1.061301644e-04,1.972109063e-04,-6.006947249e-04,-4.470598586e-05,-6.454007108e-04,6.517409951e-04,-7.919062442e-05,5.725503707e-04,3.158495325e-05,-1.451070164e-04,-1.135220632e-04,1.889702856e-04,-8.215952874e-05,1.068107569e-04,1.558830466e-03,-8.679590431e-05,1.472034562e-03,3.419516829e-03,-4.213679597e-04,2.998148869e-03,8.814027721e-04,-7.765951161e-06,8.736368210e-04,2.371621252e-03,1.809978812e-04,2.552619134e-03,9.572401539e-04,8.020096412e-05,1.037441118e-03,6.541018896e-04,3.691268348e-05,6.910145731e-04,2.917512215e-03,7.868363839e-05,2.996195854e-03,2.821853804e-03,1.574860937e-05,2.837602414e-03,-3.167707788e-04,-1.880231611e-04,-5.047939399e-04,-1.046493832e-04,-6.844609991e-05,-1.730954831e-04,4.558855516e-04,-6.947850276e-05,3.864070489e-04,-1.899152057e-04,-2.147189443e-05,-2.113871001e-04,7.182296627e-05,-1.013765930e-04,-2.955362674e-05,1.276717336e-03,5.804198811e-05,1.334759324e-03,4.103403495e-04,2.393214218e-04,6.496617713e-04,1.527325837e-03,2.548612978e-04,1.782187135e-03,9.192713729e-04,1.652519867e-04,1.084523360e-03,1.098708600e-03,-1.703914445e-05,1.081669456e-03,7.008184576e-04,3.507946645e-04,1.051613122e-03,2.780619138e-03,1.158645452e-04,2.896483684e-03,2.014567913e-03,-1.593903967e-04,1.855177516e-03,3.869636920e-03,-6.873390144e-06,3.862763530e-03,1.269725180e-03,2.423759949e-04,1.512101175e-03,2.611404698e-03,-1.702790651e-04,2.441125633e-03,-1.230229444e-04,8.063095105e-04,6.832865660e-04
-7.3,-2.786454134e-04,-2.342567528e-05,-3.020710887e-04,-8.052531238e-04,-1.144046462e-04,-9.196577700e-04,3.301553268e-04,-1.694833038e-04,1.606720229e-04,3.302223455e-05,-3.269444192e-05,3.277926281e-07,4.626529461e-04,-4.771835766e-05,4.149345885e-04,-3.535063606e-04,-9.015990667e-05,-4.436662673e-04,2.977077019e-04,-1.088713826e-04,1.888363193e-04,-6.378211751e-04,-4.693382205e-05,-6.847549971e-04,6.332065059e-04,-8.123523991e-05,5.519712660e-04,1.277119755e-05,-1.450818952e-04,-1.323106976e-04,1.417149312e-04,-8.458748460e-05,5.712744658e-05,1.552276054e-03,-1.083345183e-04,1.443941536e-03,3.276488566e-03,-4.299208353e-04,2.846567731e-03,8.831262722e-04,-2.066599522e-05,8.624602770e-04,2.295256045e-03,1.777006753e-04,2.472956721e-03,9.582866714e-04,7.256813484e-05,1.030854806e-03,6.449364729e-04,4.576411039e-05,6.907005833e-04,2.784987251e-03,9.347547949e-05,2.878462731e-03,2.666914659e-03,3.364748201e-05,2.700562141e-03,-3.360911947e-04,-1.813964715e-04,-5.174876662e-04,-1.244360955e-04,-6.991990710e-05,-1.943560026e-04,4.381092215e-04,-7.058552456e-05,3.675236969e-04,-2.024074457e-04,-2.280306894e-05,-2.252105146e-04,5.066240077e-05,-9.412630357e-05,-4.346390280e-05,1.268671600e-03,3.351660394e-05,1.302188204e-03,4.518709908e-04,2.180487928e-04,6.699197836e-04,1.391673057e-03,2.238333204e-04,1.615506377e-03,8.570598153e-04,1.626871823e-04,1.019746998e-03,1.037137997e-03,-2.774237594e-05,1.009395621e-03,6.599834964e-04,3.321092103e-04,9.920927067e-04,2.577741680e-03,1.121947664e-04,2.689936447e-03,1.898505055e-03,-1.637435542e-04,1.734761501e-03,3.666090301e-03,5.010266665e-06,3.671100567e-03,1.157509989e-03,2.331452190e-04,1.390655208e-03,2.511918960e-03,-1.697689519e-04,2.342150008e-03,-7.683132350e-05,6.853717130e-04,6.085403895e-04
-7.2,-2.652390160e-04,-4.104805151e-06,-2.693438211e-04,-8.550514408e-04,-1.199794407e-04,-9.750308815e-04,3.199471724e-04,-1.649668797e-04,1.549802927e-04,1.550842834e-05,-3.582395876e-05,-2.031553042e-05,4.421890483e-04,-5.144711605e-05,3.907419323e-04,-3.971665210e-04,-9.073042366e-05,-4.878969447e-04,2.938909305e-04,-1.111736061e-04,1.827173244e-04,-6.689145392e-04,-4.943588911e-05,-7.183504283e-04,6.137471083e-04,-8.311511124e-05,5.306319971e-04,-4.469475742e-06,-1.446907100e-04,-1.491601857e-04,9.485671230e-05,-8.692017126e-05,7.936541049e-06,1.543998722e-03,-1.289203183e-04,1.415078404e-03,3.127467060e-03,-4.370050806e-04,2.690461979e-03,8.840065153e-04,-3.334640459e-05,8.506601107e-04,2.213732480e-03,1.743613036e-04,2.388093784e-03,9.594836524e-04,6.488569437e-05,1.024369347e-03,6.359761182e-04,5.574579455e-05,6.917219128e-04,2.650488321e-03,1.073678644e-04,2.757856185e-03,2.510895700e-03,5.259091962e-05,2.563486619e-03,-3.518004985e-04,-1.743963436e-04,-5.261968421e-04,-1.422372264e-04,-7.130781644e-05,-2.135450429e-04,4.205787947e-04,-7.156873589e-05,3.490100588e-04,-2.137528145e-04,-2.421386300e-05,-2.379666775e-04,2.906737050e-05,-8.718934552e-05,-5.812197501e-05,1.259297839e-03,8.612549090e-06,1.267910389e-03,4.925433538e-04,1.960616792e-04,6.886050331e-04,1.258091631e-03,1.915774026e-04,1.449669034e-03,7.944489865e-04,1.608268822e-04,9.552758687e-04,9.766652912e-04,-3.798979289e-05,9.386754983e-04,6.216256920e-04,3.119103939e-04,9.335360859e-04,2.375311042e-03,1.090121194e-04,2.484323162e-03,1.781331366e-03,-1.680029192e-04,1.613328446e-03,3.460699467e-03,1.637861341e-05,3.477078080e-03,1.050908714e-03,2.217653479e-04,1.272674062e-03,2.409529020e-03,-1.678821026e-04,2.241646917e-03,-2.710424050e-05,5.639121854e-04,5.368079449e-04
-7.1,-2.505072403e-04,1.513065532e-05,-2.353765850e-04,-8.999808998e-04,-1.253967688e-04,-1.025377669e-03,3.094206942e-04,-1.603844217e-04,1.490362725e-04,2.446037953e-08,-3.877628290e-05,-3.875182252e-05,4.216437868e-04,-5.479940896e-05,3.668443778e-04,-4.363511239e-04,-9.144154406e-05,-5.277926679e-04,2.916872585e-04,-1.130301108e-04,1.786571477e-04,-6.941469196e-04,-5.219482866e-05,-7.463417483e-04,5.934104542e-04,-8.481886015e-05,5.085915940e-04,-2.019600636e-05,-1.439041574e-04,-1.641001638e-04,4.860886127e-05,-8.912978974e-05,-4.052092847e-05,1.533703319e-03,-1.484857234e-04,1.385217596e-03,2.972170002e-03,-4.421692815e-04,2.530000721e-03,8.838588047e-04,-4.576130670e-05,8.380974980e-04,2.127051758e-03,1.710251433e-04,2.298076902e-03,9.604863700e-04,5.728364205e-05,1.017770012e-03,6.271886489e-04,6.662288832e-05,6.938115372e-04,2.514033690e-03,1.202790747e-04,2.634312765e-03,2.353942738e-03,7.252335652e-05,2.426466094e-03,-3.640595307e-04,-1.670444726e-04,-5.311040034e-04,-1.580839813e-04,-7.258933047e-05,-2.306733118e-04,4.032379591e-04,-7.241400153e-05,3.308239576e-04,-2.238427030e-04,-2.568180928e-05,-2.495245123e-04,7.187523219e-06,-8.054850035e-05,-7.336097713e-05,1.248417596e-03,-1.657657252e-05,1.231841023e-03,5.320130405e-04,1.734670130e-04,7.054800535e-04,1.127110008e-03,1.581553529e-04,1.285265361e-03,7.315762856e-04,1.595608556e-04,8.911371412e-04,9.171097876e-04,-4.764685444e-05,8.694629332e-04,5.854819792e-04,2.903724503e-04,8.758544295e-04,2.173556127e-03,1.062762407e-04,2.279832367e-03,1.663004789e-03,-1.720513953e-04,1.490953393e-03,3.253959633e-03,2.701970357e-05,3.280979337e-03,9.497179606e-04,2.084719652e-04,1.158189926e-03,2.304274599e-03,-1.646002621e-04,2.139674337e-03,2.473670125e-05,4.433911058e-04,4.681278070e-04
-7,-2.344985374e-04,3.426350933e-05,-2.002350281e-04,-9.399878032e-04,-1.306182915e-04,-1.070606095e-03,2.985506749e-04,-1.557384464e-04,1.428122285e-04,-1.354656223e-05,-4.154979734e-05,-5.509635957e-05,4.010105417e-04,-5.777042732e-05,3.432401144e-04,-4.712024189e-04,-9.230508655e-05,-5.635075055e-04,2.908754361e-04,-1.144393187e-04,1.764361174e-04,-7.137209226e-04,-5.518416033e-05,-7.689050829e-04,5.722429762e-04,-8.633490323e-05,4.859080730e-04,-3.447197839e-05,-1.426982052e-04,-1.771701836e-04,3.181226943e-06,-9.118996601e-05,-8.800873907e-05,1.521112673e-03,-1.669809793e-04,1.354131693e-03,2.810456288e-03,-4.450331992e-04,2.365423089e-03,8.824947247e-04,-5.786295943e-05,8.246317653e-04,2.035237194e-03,1.677443807e-04,2.202981575e-03,9.609709182e-04,4.987938153e-05,1.010850300e-03,6.185795040e-04,7.814037514e-05,6.967198791e-04,2.375711946e-03,1.320959099e-04,2.507807856e-03,2.196235299e-03,9.336461316e-05,2.289599913e-03,-3.730390932e-04,-1.593697132e-04,-5.324088063e-04,-1.720147263e-04,-7.374601929e-05,-2.457607455e-04,3.860377490e-04,-7.310648809e-05,3.129312609e-04,-2.325734495e-04,-2.718355388e-05,-2.597570034e-04,-1.482518883e-05,-7.418353577e-05,-8.900872460e-05,1.235844662e-03,-4.193721512e-05,1.193907446e-03,5.699531698e-04,1.503734804e-04,7.203266502e-04,9.992122385e-04,1.236687566e-04,1.122880995e-03,6.686058441e-04,1.587578107e-04,8.273636548e-04,8.583117939e-04,-5.659853666e-05,8.017132572e-04,5.512536858e-04,2.676964816e-04,8.189501674e-04,1.972723417e-03,1.039122452e-04,2.076635663e-03,1.543482847e-03,-1.757404039e-04,1.367742444e-03,3.046334401e-03,3.673694759e-05,3.083071349e-03,8.536815573e-04,1.935400895e-04,1.047221647e-03,2.196237525e-03,-1.599423283e-04,2.036295197e-03,7.738709473e-05,3.251721993e-04,4.025592940e-04
-6.9,-2.172754249e-04,5.326895361e-05,-1.640064712e-04,-9.750405012e-04,-1.356029528e-04,-1.110643454e-03,2.873144987e-04,-1.510299898e-04,1.362845090e-04,-2.533501688e-05,-4.414351772e-05,-6.947853460e-05,3.802765723e-04,-6.035862468e-05,3.199179477e-04,-5.018841017e-04,-9.332170778e-05,-5.952058095e-04,2.912169806e-04,-1.154046992e-04,1.758122814e-04,-7.278677805e-04,-5.836850201e-05,-7.862362825e-04,5.502876568e-04,-8.765142437e-05,4.626362324e-04,-4.736722151e-05,-1.410540663e-04,-1.884212878e-04,-4.122313900e-05,-9.307575445e-05,-1.342988934e-04,1.505968831e-03,-1.843742924e-04,1.321594539e-03,2.642352744e-03,-4.453092764e-04,2.197043468e-03,8.797229168e-04,-6.960197029e-05,8.101209465e-04,1.938330640e-03,1.645789528e-04,2.102909593e-03,9.606316739e-04,4.277761808e-05,1.003409292e-03,6.101811545e-04,9.003079640e-05,7.002119509e-04,2.235670817e-03,1.426854871e-04,2.378356304e-03,2.037993663e-03,1.149984012e-04,2.152992064e-03,-3.789215376e-04,-1.514066954e-04,-5.303282329e-04,-1.840753906e-04,-7.476187727e-05,-2.588372679e-04,3.689365889e-04,-7.363102839e-05,2.953055606e-04,-2.398479628e-04,-2.869513628e-05,-2.685430990e-04,-3.681776474e-05,-6.807172640e-05,-1.048894911e-04,1.221385127e-03,-6.733803968e-05,1.154047087e-03,6.060507846e-04,1.268932568e-04,7.329440414e-04,8.748236706e-04,8.825916244e-05,9.630828331e-04,6.057231560e-04,1.582659095e-04,7.639890655e-04,8.001316718e-04,-6.474949051e-05,7.353821813e-04,5.186144768e-04,2.441035847e-04,7.627180615e-04,1.773072932e-03,1.018176745e-04,1.874890607e-03,1.422724824e-03,-1.788934036e-04,1.243831420e-03,2.838251313e-03,4.535611697e-05,2.883607430e-03,7.624950774e-04,1.772757679e-04,9.397708453e-04,2.085537873e-03,-1.539656556e-04,1.931572217e-03,1.296994929e-04,2.104798867e-04,3.401793796e-04
-6.8,-1.989166428e-04,7.211301812e-05,-1.268036247e-04,-1.005129053e-03,-1.403070897e-04,-1.145436142e-03,2.756921776e-04,-1.462583483e-04,1.294338293e-04,-3.548388957e-05,-4.655711441e-05,-8.204100398e-05,3.594232937e-04,-6.256564764e-05,2.968576461e-04,-5.285804881e-04,-9.447918796e-05,-6.230596760e-04,2.924585849e-04,-1.159346803e-04,1.765239046e-04,-7.368441397e-04,-6.170424263e-05,-7.985483823e-04,5.275844575e-04,-8.875637840e-05,4.388280791e-04,-5.895673850e-05,-1.389581386e-04,-1.979148771e-04,-8.440871117e-05,-9.476368662e-05,-1.791723978e-04,1.488033947e-03,-2.006497038e-04,1.287384244e-03,2.468072510e-03,-4.428137619e-04,2.025258748e-03,8.753522175e-04,-8.092710459e-05,7.944251129e-04,1.836392146e-03,1.615982940e-04,1.997990440e-03,9.591804279e-04,3.607064751e-05,9.952510754e-04,6.020446426e-04,1.020209086e-04,7.040655512e-04,2.094106772e-03,1.519066028e-04,2.246013375e-03,1.879482902e-03,1.372639316e-04,2.016746833e-03,-3.819005824e-04,-1.431942593e-04,-5.250948417e-04,-1.943188099e-04,-7.562346479e-05,-2.699422747e-04,3.519013426e-04,-7.397251146e-05,2.779288311e-04,-2.455761840e-04,-3.019216835e-05,-2.757683523e-04,-5.863624148e-05,-6.218859654e-05,-1.208248380e-04,1.204840467e-03,-9.263328641e-05,1.112207181e-03,6.400049282e-04,1.031438063e-04,7.431487344e-04,7.543008264e-04,5.210646311e-05,8.064072895e-04,5.431301854e-04,1.579155645e-04,7.010457499e-04,7.424492640e-04,-7.202370495e-05,6.704255590e-04,4.872230495e-04,2.198270120e-04,7.070500615e-04,1.574875367e-03,9.986965486e-05,1.674745022e-03,1.300697848e-03,-1.813125966e-04,1.119385252e-03,2.630100759e-03,5.273169186e-05,2.682832451e-03,6.758156433e-04,1.600052547e-04,8.358208980e-04,1.972331566e-03,-1.467653964e-04,1.825566169e-03,1.807252298e-04,1.003569721e-04,2.810822019e-04
-6.7,-1.795179048e-04,9.075119621e-05,-8.876670859e-05,-1.030263437e-03,-1.446845614e-04,-1.174947998e-03,2.636678772e-04,-1.414208757e-04,1.222470015e-04,-4.414569205e-05,-4.879099778e-05,-9.293668983e-05,3.384289477e-04,-6.439625242e-05,2.740326953e-04,-5.514937466e-04,-9.575109030e-05,-6.472448369e-04,2.943367527e-04,-1.160425448e-04,1.782942080e-04,-7.409271629e-04,-6.514081787e-05,-8.060679807e-04,5.041731981e-04,-8.963754248e-05,4.145356556e-04,-6.931717736e-05,-1.364019449e-04,-2.057191222e-04,-1.261858571e-04,-9.623187443e-05,-2.224177315e-04,1.467092134e-03,-2.158034507e-04,1.251288683e-03,2.288019811e-03,-4.374656832e-04,1.850554128e-03,8.691970827e-04,-9.178500315e-05,7.774120795e-04,1.729503164e-03,1.588826898e-04,1.888385854e-03,9.563479220e-04,2.983864160e-05,9.861865636e-04,5.942349865e-04,1.138365408e-04,7.080715273e-04,1.951258180e-03,1.596189893e-04,2.110877170e-03,1.721016065e-03,1.599510528e-04,1.880967118e-03,-3.821792648e-04,-1.347738456e-04,-5.169531105e-04,-2.028030126e-04,-7.631978542e-05,-2.791227980e-04,3.349091416e-04,-7.411621973e-05,2.607929219e-04,-2.496746328e-04,-3.165004397e-05,-2.813246767e-04,-8.012479913e-05,-5.650869040e-05,-1.366334895e-04,1.186013647e-03,-1.176668033e-04,1.068346843e-03,6.715278671e-04,7.924906743e-05,7.507769346e-04,6.379285618e-04,1.542391091e-05,6.533524727e-04,4.810422358e-04,1.575237656e-04,6.385660013e-04,6.851644786e-04,-7.836425562e-05,6.068002230e-04,4.567390084e-04,1.951041028e-04,6.518431112e-04,1.378411247e-03,9.793058101e-05,1.476341828e-03,1.177385250e-03,-1.827869970e-04,9.945982528e-04,2.422237515e-03,5.875306780e-05,2.480990583e-03,5.932752442e-04,1.420633204e-04,7.353385646e-04,1.856808775e-03,-1.384711731e-04,1.718337602e-03,2.297504705e-04,-4.373243858e-06,2.253772266e-04
-6.6,-1.591914398e-04,1.091272765e-04,-5.006416340e-05,-1.050470676e-03,-1.486870557e-04,-1.199157732e-03,2.512323476e-04,-1.365129288e-04,1.147194188e-04,-5.147771271e-05,-5.084639736e-05,-1.023241101e-04,3.172727781e-04,-6.585822392e-05,2.514145542e-04,-5.708392822e-04,-9.709622557e-05,-6.679355078e-04,2.965839725e-04,-1.157461905e-04,1.808377820e-04,-7.404084700e-04,-6.862241513e-05,-8.090308851e-04,4.800973385e-04,-9.028264439e-05,3.898146941e-04,-7.852236488e-05,-1.333820929e-04,-2.119044578e-04,-1.663684686e-04,-9.746015925e-05,-2.638286279e-04,1.442953015e-03,-2.298406636e-04,1.213112351e-03,2.102779422e-03,-4.292766848e-04,1.673502737e-03,8.610840532e-04,-1.021202275e-04,7.589638257e-04,1.617772244e-03,1.565227391e-04,1.774294983e-03,9.518868435e-04,2.414998444e-05,9.760368279e-04,5.868293339e-04,1.252065426e-04,7.120358765e-04,1.807402061e-03,1.656902578e-04,1.973092318e-03,1.562957591e-03,1.827984154e-04,1.745756007e-03,-3.799666253e-04,-1.261881215e-04,-5.061547468e-04,-2.095888962e-04,-7.684205133e-05,-2.864309475e-04,3.179491337e-04,-7.404813219e-05,2.439010015e-04,-2.520658534e-04,-3.304431781e-05,-2.851101712e-04,-1.011246595e-04,-5.100617412e-05,-1.521308336e-04,1.164717009e-03,-1.422765617e-04,1.022440447e-03,7.003491824e-04,5.533948317e-05,7.556886656e-04,5.259251874e-04,-2.155082322e-05,5.043743641e-04,4.196867076e-04,1.568991394e-04,5.765858470e-04,6.281987363e-04,-8.373327749e-05,5.444654589e-04,4.268388607e-04,1.701686910e-04,5.970075517e-04,1.183972514e-03,9.585160271e-05,1.279824116e-03,1.052795825e-03,-1.831009759e-04,8.696948491e-04,2.214983696e-03,6.335031049e-05,2.278334006e-03,5.144940803e-04,1.237828469e-04,6.382769271e-04,1.739192101e-03,-1.292413924e-04,1.609950708e-03,2.763178182e-04,-1.031328859e-04,1.731849323e-04
-6.5,-1.380651256e-04,1.271724430e-04,-1.089268265e-05,-1.065791845e-03,-1.522646648e-04,-1.218056509e-03,2.383850109e-04,-1.315279748e-04,1.068570361e-04,-5.763703411e-05,-5.272530452e-05,-1.103623386e-04,2.959390711e-04,-6.696226935e-05,2.289768018e-04,-5.868399794e-04,-9.845936291e-05,-6.852993423e-04,2.989350553e-04,-1.150677015e-04,1.838673538e-04,-7.355882324e-04,-7.208965527e-05,-8.076778876e-04,4.554067521e-04,-9.067959195e-05,3.647271602e-04,-8.663980041e-05,-1.299002553e-04,-2.165400558e-04,-2.047727806e-04,-9.843030156e-05,-3.032030822e-04,1.415455857e-03,-2.427733493e-04,1.172682508e-03,1.913092346e-03,-4.183361911e-04,1.494756155e-03,8.508575187e-04,-1.118758580e-04,7.389816607e-04,1.501341525e-03,1.546157538e-04,1.655957278e-03,9.455746081e-04,1.906169433e-05,9.646363025e-04,5.799152137e-04,1.358669527e-04,7.157821664e-04,1.662852518e-03,1.700012050e-04,1.832853723e-03,1.405725540e-03,2.054944436e-04,1.611219984e-03,-3.754742405e-04,-1.174799680e-04,-4.929542085e-04,-2.147380214e-04,-7.718351671e-05,-2.919215381e-04,3.010230901e-04,-7.375524099e-05,2.272678491e-04,-2.526786418e-04,-3.435126926e-05,-2.870299111e-04,-1.214737151e-04,-4.565518839e-05,-1.671289035e-04,1.140780122e-03,-1.662996788e-04,9.744804428e-04,7.262204727e-04,3.155097965e-05,7.577714524e-04,4.184528216e-04,-5.856707828e-05,3.598857433e-04,3.593019911e-04,1.558477779e-04,5.151497690e-04,5.714960686e-04,-8.811178677e-05,4.833842818e-04,3.972291999e-04,1.452444300e-04,5.424736299e-04,9.918657840e-04,9.347379896e-05,1.085339583e-03,9.269733877e-04,-1.820435960e-04,7.449297917e-04,2.008631977e-03,6.649824296e-05,2.075130220e-03,4.390911443e-04,1.054872986e-04,5.445784429e-04,1.619733605e-03,-1.192563405e-04,1.500477265e-03,3.202276191e-04,-1.955962647e-04,1.246313544e-04
-6.4,-1.162820429e-04,1.448047473e-04,2.852270435e-05,-1.076279991e-03,-1.553666606e-04,-1.231646651e-03,2.251346257e-04,-1.264578355e-04,9.867679013e-05,-6.277668260e-05,-5.443023196e-05,-1.172069146e-04,2.744196649e-04,-6.772184045e-05,2.066978245e-04,-5.997201085e-04,-9.977366893e-05,-6.994937774e-04,3.011323693e-04,-1.140327949e-04,1.870995744e-04,-7.267705614e-04,-7.548103346e-05,-8.022515949e-04,4.301583090e-04,-9.081678023e-05,3.393415287e-04,-9.372936566e-05,-1.259631185e-04,-2.196924841e-04,-2.412185022e-04,-9.912617623e-05,-3.403446784e-04,1.384472674e-03,-2.546193140e-04,1.129853360e-03,1.719822760e-03,-4.047959515e-04,1.315026808e-03,8.383834550e-04,-1.209945588e-04,7.173888963e-04,1.380392509e-03,1.532591602e-04,1.533651670e-03,9.372147313e-04,1.461984512e-05,9.518345764e-04,5.735867070e-04,1.455655384e-04,7.191522455e-04,1.517957862e-03,1.724506289e-04,1.690408491e-03,1.249788917e-03,2.276828111e-04,1.477471728e-03,-3.689137363e-04,-1.086916799e-04,-4.776054162e-04,-2.183112436e-04,-7.733935360e-05,-2.956505972e-04,2.841442091e-04,-7.322587301e-05,2.109183361e-04,-2.514495347e-04,-3.554856439e-05,-2.869980991e-04,-1.410074804e-04,-4.042999117e-05,-1.814374716e-04,1.114055756e-03,-1.895773210e-04,9.244784354e-04,7.489182230e-04,8.023363045e-06,7.569415861e-04,3.156288027e-04,-9.537292155e-05,2.202558812e-04,3.001340014e-04,1.541803023e-04,4.543143037e-04,5.150224018e-04,-9.149858274e-05,4.235238191e-04,3.676555160e-04,1.205391418e-04,4.881946578e-04,8.024147003e-04,9.062802078e-05,8.930427211e-04,8.000053393e-04,-1.794185061e-04,6.205868332e-04,1.803448236e-03,6.821758766e-05,1.871665824e-03,3.666911120e-04,8.748645517e-05,4.541775671e-04,1.498710105e-03,-1.087111475e-04,1.389998958e-03,3.615184724e-04,-2.816762465e-04,7.984222593e-05
-6.3,-9.400085965e-05,1.619290046e-04,6.792814496e-05,-1.081999580e-03,-1.579423318e-04,-1.239941911e-03,2.114981100e-04,-1.212930561e-04,9.020505391e-05,-6.704351867e-05,-5.596388882e-05,-1.230074075e-04,2.527143232e-04,-6.815285789e-05,1.845614653e-04,-6.096995951e-04,-1.009650332e-04,-7.106646283e-04,3.029292946e-04,-1.126702084e-04,1.902590862e-04,-7.142605468e-04,-7.873436875e-05,-7.929949155e-04,4.044140934e-04,-9.068339798e-05,3.137306954e-04,-9.984453545e-05,-1.215821929e-04,-2.214267284e-04,-2.755323376e-04,-9.953388988e-05,-3.750662275e-04,1.349909762e-03,-2.654013341e-04,1.084508428e-03,1.523922604e-03,-3.888562522e-04,1.135066352e-03,8.235508104e-04,-1.294198653e-04,6.941309451e-04,1.255150016e-03,1.525424668e-04,1.407692483e-03,9.266366223e-04,1.085978684e-05,9.374964092e-04,5.679374806e-04,1.540663590e-04,7.220038396e-04,1.373093276e-03,1.729611311e-04,1.546054407e-03,1.095655795e-03,2.489749187e-04,1.344630713e-03,-3.604959046e-04,-9.986414021e-05,-4.603600448e-04,-2.203685882e-04,-7.730639863e-05,-2.976749868e-04,2.673340798e-04,-7.244996145e-05,1.948841183e-04,-2.483255489e-04,-3.661593647e-05,-2.849414854e-04,-1.595614401e-04,-3.530501291e-05,-1.948664531e-04,1.084422964e-03,-2.119584439e-04,8.724645197e-04,7.682438280e-04,-1.510156112e-05,7.531422669e-04,2.175347724e-04,-1.317252466e-04,8.580952584e-05,2.424292719e-04,1.517199497e-04,3.941492217e-04,4.587622949e-04,-9.390780093e-05,3.648544940e-04,3.379066560e-04,9.624002186e-05,4.341466779e-04,6.159578709e-04,8.713589220e-05,7.030937631e-04,6.720279374e-04,-1.750528839e-04,4.969750535e-04,1.599672839e-03,6.857304703e-05,1.668245886e-03,2.969281842e-04,7.007417255e-05,3.670023567e-04,1.376416376e-03,-9.780900740e-05,1.278607369e-03,4.004308715e-04,-3.614963428e-04,3.893452870e-05
-6.2,-7.139698145e-05,1.784371069e-04,1.070401255e-04,-1.083027522e-03,-1.599417952e-04,-1.242969317e-03,1.974977361e-04,-1.160233859e-04,8.147435021e-05,-7.057777333e-05,-5.732892791e-05,-1.279067012e-04,2.308291243e-04,-6.827333285e-05,1.625557915e-04,-6.169894662e-04,-1.019574438e-04,-7.189469100e-04,3.040918598e-04,-1.110110157e-04,1.930808441e-04,-6.983627075e-04,-8.178854373e-05,-7.801512512e-04,3.782378428e-04,-9.026964700e-05,2.879681958e-04,-1.050355413e-04,-1.167733992e-04,-2.218089405e-04,-3.075531987e-04,-9.964174359e-05,-4.071949423e-04,1.311707536e-03,-2.751460231e-04,1.036561513e-03,1.326397316e-03,-3.707531357e-04,9.556441799e-04,8.062711256e-04,-1.370975460e-04,6.691735796e-04,1.125883785e-03,1.525398166e-04,1.278423602e-03,9.136943841e-04,7.805806650e-06,9.215001908e-04,5.630508493e-04,1.611543578e-04,7.242052072e-04,1.228647761e-03,1.714868567e-04,1.400134617e-03,9.438507192e-04,2.689691206e-04,1.212819840e-03,-3.504312498e-04,-9.103590892e-05,-4.414671587e-04,-2.209702643e-04,-7.708272827e-05,-2.980529926e-04,2.506183302e-04,-7.141926814e-05,1.791990620e-04,-2.432677866e-04,-3.753585233e-05,-2.808036389e-04,-1.769744551e-04,-3.025497647e-05,-2.072294316e-04,1.051787420e-03,-2.333019803e-04,8.184854401e-04,7.840212130e-04,-3.768193674e-05,7.463392762e-04,1.242217213e-04,-1.673964454e-04,-4.317472413e-05,1.864261545e-04,1.483101803e-04,3.347363348e-04,4.027136099e-04,-9.536554961e-05,3.073480603e-04,3.078159713e-04,7.250955408e-05,3.803255253e-04,4.328405811e-04,8.281438249e-05,5.156549636e-04,5.432263806e-04,-1.688039449e-04,3.744224357e-04,1.397520070e-03,6.766928916e-05,1.465189359e-03,2.294477559e-04,5.352622956e-05,2.829739854e-04,1.253156382e-03,-8.675456533e-05,1.166401817e-03,4.373599685e-04,-4.353575053e-04,2.002463118e-06
-6.1,-4.866404782e-05,1.942087508e-04,1.455447029e-04,-1.079455348e-03,-1.613167868e-04,-1.240772135e-03,1.831573616e-04,-1.106383086e-04,7.251905298e-05,-7.351373710e-05,-5.852783412e-05,-1.320415712e-04,2.087736202e-04,-6.810288376e-05,1.406707364e-04,-6.217892793e-04,-1.026778056e-04,-7.244670849e-04,3.043990842e-04,-1.090878447e-04,1.953112396e-04,-6.793803302e-04,-8.458543823e-05,-7.639657684e-04,3.516907118e-04,-8.956684621e-05,2.621238656e-04,-1.093533454e-04,-1.115564467e-04,-2.209097921e-04,-3.371379058e-04,-9.944005120e-05,-4.365779570e-04,1.269837687e-03,-2.838817347e-04,9.859559522e-04,1.128272412e-03,-3.507442272e-04,7.775281848e-04,7.864772482e-04,-1.439769502e-04,6.425002980e-04,9.929084631e-04,1.533039578e-04,1.146212421e-03,8.982652253e-04,5.469978847e-06,9.037352042e-04,5.589881562e-04,1.666402896e-04,7.256284458e-04,1.085006580e-03,1.680223844e-04,1.253028964e-03,7.948849824e-04,2.872723770e-04,1.082157359e-03,-3.389310730e-04,-8.224240185e-05,-4.211734748e-04,-2.201782835e-04,-7.666722454e-05,-2.968455081e-04,2.340218665e-04,-7.012766026e-05,1.638942062e-04,-2.362552863e-04,-3.829412366e-05,-2.745494100e-04,-1.930925943e-04,-2.525519216e-05,-2.183477865e-04,1.016080272e-03,-2.534781165e-04,7.626021552e-04,7.960932386e-04,-5.957758847e-05,7.365156501e-04,3.571057033e-05,-2.021764580e-04,-1.664658877e-04,1.323472554e-04,1.438196225e-04,2.761668780e-04,3.468813048e-04,-9.590645820e-05,2.509748466e-04,2.772602642e-04,4.948236881e-05,3.267426331e-04,2.534012222e-04,7.748450983e-05,3.308857320e-04,4.138307402e-04,-1.605635527e-04,2.532671875e-04,1.197176228e-03,6.564552594e-05,1.262821754e-03,1.639063571e-04,3.809700414e-05,2.020033612e-04,1.129233346e-03,-7.574745690e-05,1.053485889e-03,4.728040217e-04,-5.037054374e-04,-3.090141567e-05
-6,-2.601508851e-05,2.091126346e-04,1.830975461e-04,-1.071391805e-03,-1.620214458e-04,-1.233413250e-03,1.684986359e-04,-1.051275151e-04,6.337112073e-05,-7.598084969e-05,-5.956291199e-05,-1.355437617e-04,1.865579202e-04,-6.766216139e-05,1.188957588e-04,-6.242865834e-04,-1.030590613e-04,-7.273456447e-04,3.036429581e-04,-1.069340185e-04,1.967089397e-04,-6.576148834e-04,-8.707183377e-05,-7.446867172e-04,3.248277723e-04,-8.856746140e-05,2.362603109e-04,-1.128529670e-04,-1.059541296e-04,-2.188070966e-04,-3.641659112e-04,-9.892090854e-05,-4.630868197e-04,1.224296536e-03,-2.916349214e-04,9.326616143e-04,9.305612622e-04,-3.290927878e-04,6.014684744e-04,7.641219686e-04,-1.500121921e-04,6.141097766e-04,8.565838435e-04,1.548609702e-04,1.011444814e-03,8.802477818e-04,3.850499066e-06,8.840982809e-04,5.557772193e-04,1.703659513e-04,7.261431706e-04,9.425316014e-04,1.626103981e-04,1.105141999e-03,6.492266031e-04,3.035190961e-04,9.527456992e-04,-3.262079241e-04,-7.351534096e-05,-3.997232650e-04,-2.180579959e-04,-7.605927528e-05,-2.941172711e-04,2.175646906e-04,-6.857151566e-05,1.489931749e-04,-2.272883802e-04,-3.888036440e-05,-2.661687446e-04,-2.077726430e-04,-2.028206830e-05,-2.280547113e-04,9.772569417e-04,-2.723696577e-04,7.048872841e-04,8.043185366e-04,-8.065153485e-05,7.236670018e-04,-4.801150258e-05,-2.358705905e-04,-2.838820931e-04,8.039499759e-05,1.381433049e-04,2.185383025e-04,2.912715566e-04,-9.557071497e-05,1.957008416e-04,2.461572760e-04,2.726358556e-05,2.734208615e-04,7.795536442e-05,7.098254150e-05,1.489379059e-04,2.841116352e-04,-1.502632170e-04,1.338484182e-04,9.987981603e-04,6.266839781e-05,1.061466558e-03,9.997065604e-05,2.401460114e-05,1.239852572e-04,1.004939939e-03,-6.497598830e-05,9.399639507e-04,5.073149582e-04,-5.670988268e-04,-5.978386862e-05
-5.9,-3.682473087e-06,2.230082001e-04,2.193257270e-04,-1.058965073e-03,-1.620130606e-04,-1.220978134e-03,1.535382158e-04,-9.948126792e-05,5.405694790e-05,-7.810423013e-05,-6.043632413e-05,-1.385405543e-04,1.641909539e-04,-6.697223662e-05,9.721871730e-05,-6.246572916e-04,-1.030417049e-04,-7.276989966e-04,3.016291532e-04,-1.045826806e-04,1.970464727e-04,-6.333645317e-04,-8.920132726e-05,-7.225658590e-04,2.976965977e-04,-8.726511435e-05,2.104314833e-04,-1.155947620e-04,-9.999167750e-05,-2.155864395e-04,-3.885416890e-04,-9.807800204e-05,-4.866196910e-04,1.175095520e-03,-2.984253119e-04,8.766702078e-04,7.342373184e-04,-3.060528555e-04,4.281844629e-04,7.391775823e-04,-1.551631101e-04,5.840144722e-04,7.173171544e-04,1.572048511e-04,8.745220056e-04,8.595605987e-04,2.930332269e-06,8.624909310e-04,5.534024290e-04,1.722090680e-04,7.256114970e-04,8.015429178e-04,1.553453893e-04,9.568883071e-04,5.072762547e-04,3.173845706e-04,8.246608253e-04,-3.124745407e-04,-6.488239216e-05,-3.773569328e-04,-2.146789614e-04,-7.525856230e-05,-2.899375237e-04,2.012590334e-04,-6.675015729e-05,1.345088761e-04,-2.163908535e-04,-3.928818363e-05,-2.556790371e-04,-2.208846530e-04,-1.531381391e-05,-2.361984669e-04,9.352968989e-04,-2.898738384e-04,6.454230606e-04,8.085706081e-04,-1.007715963e-04,7.077990118e-04,-1.269975598e-04,-2.682950644e-04,-3.952926242e-04,3.074969146e-05,1.312012153e-04,1.619509068e-04,2.358874300e-04,-9.440198573e-05,1.414854443e-04,2.144625196e-04,5.928827959e-06,2.203913476e-04,-9.321866239e-05,6.317078590e-05,-3.004787649e-05,1.543786912e-04,-1.378805318e-04,1.649815950e-05,8.025147870e-04,5.892257922e-05,8.614373662e-04,3.731719201e-05,1.147461728e-05,4.879180929e-05,8.805497735e-04,-5.461080630e-05,8.259389672e-04,5.414564492e-04,-6.261764484e-04,-8.471999925e-05
-5.8,1.808416445e-05,2.357479476e-04,2.538321120e-04,-1.042323933e-03,-1.612527609e-04,-1.203576693e-03,1.382867652e-04,-9.369069009e-05,4.459607507e-05,-8.000378410e-05,-6.115016819e-05,-1.411539523e-04,1.416807782e-04,-6.605404277e-05,7.562673543e-05,-6.230654588e-04,-1.025745505e-04,-7.256400093e-04,2.981793243e-04,-1.020659620e-04,1.961133623e-04,-6.069212213e-04,-9.093630770e-05,-6.978575290e-04,2.703385407e-04,-8.565459693e-05,1.846839438e-04,-1.176429764e-04,-9.369623920e-05,-2.113392156e-04,-4.101941981e-04,-9.690647276e-05,-5.071006709e-04,1.122251993e-03,-3.042613425e-04,8.179906508e-04,5.402127342e-04,-2.818577988e-04,2.583549355e-04,7.116371382e-04,-1.593961148e-04,5.522410234e-04,5.755673748e-04,1.602920849e-04,7.358594597e-04,8.361412832e-04,2.676961687e-06,8.388182449e-04,5.517976367e-04,1.720870671e-04,7.238847038e-04,6.623061058e-04,1.463716107e-04,8.086777165e-04,3.693523912e-04,3.285934672e-04,6.979458584e-04,-2.979410676e-04,-5.636675114e-05,-3.543078187e-04,-2.101148585e-04,-7.426480341e-05,-2.843796619e-04,1.851080412e-04,-6.466611899e-05,1.204419222e-04,-2.036105626e-04,-3.951510553e-05,-2.431256681e-04,-2.323132866e-04,-1.033121864e-05,-2.426445052e-04,8.902044883e-04,-3.059038936e-04,5.843005948e-04,8.087403732e-04,-1.198122423e-04,6.889281309e-04,-2.013474372e-04,-2.992725934e-04,-5.006200306e-04,-1.643120109e-05,1.229359742e-04,1.065047732e-04,1.807271930e-04,-9.244653058e-05,8.828066244e-05,1.821663797e-04,-1.447466024e-05,1.676917195e-04,-2.598891701e-04,5.394543237e-05,-2.059437377e-04,2.498118656e-05,-1.234453761e-04,-9.846418956e-05,6.084333853e-04,5.459902183e-05,6.630324072e-04,-2.436517777e-05,6.332391373e-07,-2.373193863e-05,7.563111424e-04,-4.479874224e-05,7.115124002e-04,5.757728332e-04,-6.816233088e-04,-1.058504756e-04
-5.7,3.902233864e-05,2.471803078e-04,2.862026464e-04,-1.021637556e-03,-1.597062413e-04,-1.181343797e-03,1.227497368e-04,-8.774805438e-05,3.500168242e-05,-8.179176043e-05,-6.170654369e-05,-1.434983041e-04,1.190367896e-04,-6.492795535e-05,5.410883430e-05,-6.196618597e-04,-1.016155527e-04,-7.212774123e-04,2.931350569e-04,-9.941419560e-05,1.937208613e-04,-5.785668464e-04,-9.224964593e-05,-6.708164923e-04,2.427919560e-04,-8.373191029e-05,1.590600457e-04,-1.190622448e-04,-8.709650899e-05,-2.061587538e-04,-4.290741878e-04,-9.540281182e-05,-5.244769996e-04,1.065783440e-03,-3.091371217e-04,7.566463183e-04,3.493206563e-04,-2.567115940e-04,9.260906221e-05,6.815168749e-04,-1.626849435e-04,5.188319313e-04,4.318494366e-04,1.640374645e-04,5.958869010e-04,8.099467576e-04,3.043435585e-06,8.129901932e-04,5.508424958e-04,1.699593466e-04,7.208018424e-04,5.250276666e-04,1.358753991e-04,6.609030657e-04,2.356852136e-04,3.369253092e-04,5.726105228e-04,-2.828111157e-04,-4.798666819e-05,-3.307977839e-04,-2.044425925e-04,-7.307743715e-05,-2.775200296e-04,1.691056750e-04,-6.232516632e-05,1.067805087e-04,-1.890187843e-04,-3.956233075e-05,-2.285811150e-04,-2.419582487e-04,-5.318321027e-06,-2.472765697e-04,8.420102216e-04,-3.203894748e-04,5.216207468e-04,8.047419906e-04,-1.376567922e-04,6.670851984e-04,-2.712124922e-04,-3.286288824e-04,-5.998413746e-04,-6.101303773e-05,1.133104548e-04,5.229741708e-05,1.257853571e-04,-8.975332225e-05,3.603203481e-05,1.492915037e-04,-3.392637875e-05,1.153651250e-04,-4.218740331e-04,4.324053323e-05,-3.786334998e-04,-1.036917061e-04,-1.070436928e-04,-2.107353989e-04,4.166499942e-04,4.988164410e-05,4.665316383e-04,-8.536892496e-05,-8.399445419e-06,-9.376837038e-05,6.324434292e-04,-3.565752587e-05,5.967859033e-04,6.107702356e-04,-7.341398262e-04,-1.233695906e-04
-5.6,5.886298915e-05,2.571530685e-04,3.160160576e-04,-9.970942776e-04,-1.573446427e-04,-1.154438920e-03,1.069290302e-04,-8.164709739e-05,2.528193278e-05,-8.356966645e-05,-6.210750942e-05,-1.456771759e-04,9.627258529e-05,-6.361352979e-05,3.265905550e-05,-6.145822112e-04,-1.001328747e-04,-7.147150859e-04,2.863624909e-04,-9.665512551e-05,1.897073654e-04,-5.485697757e-04,-9.312552145e-05,-6.416952971e-04,2.150955839e-04,-8.149436816e-05,1.336012157e-04,-1.199137817e-04,-8.022247360e-05,-2.001362553e-04,-4.451511464e-04,-9.356478783e-05,-5.387159342e-04,1.005705802e-03,-3.130310515e-04,6.926747508e-04,1.622978664e-04,-2.307817271e-04,-6.848386077e-05,6.488581743e-04,-1.650111681e-04,4.838470062e-04,2.867354410e-04,1.683124926e-04,4.550479336e-04,7.809542258e-04,3.970296132e-06,7.849245219e-04,5.503624497e-04,1.658278562e-04,7.161903059e-04,3.898569649e-04,1.240737481e-04,5.139307131e-04,1.064166866e-04,3.422183567e-04,4.486350433e-04,-2.672777645e-04,-3.975515821e-05,-3.070329227e-04,-1.977411939e-04,-7.169538493e-05,-2.694365788e-04,1.532371083e-04,-5.973616597e-05,9.350094233e-05,-1.727089912e-04,-3.943445300e-05,-2.121434442e-04,-2.497345232e-04,-2.628189601e-07,-2.499973421e-04,7.907716513e-04,-3.332758394e-04,4.574958119e-04,7.965204388e-04,-1.542003586e-04,6.423200803e-04,-3.367990615e-04,-3.561893059e-04,-6.929883674e-04,-1.028832707e-04,1.023052855e-04,-5.779851949e-07,7.105503372e-05,-8.637424360e-05,-1.531920988e-05,1.158893401e-04,-5.243014880e-05,6.345919125e-05,-5.790386582e-04,3.102906408e-05,-5.480095941e-04,-2.312131386e-04,-8.881814629e-05,-3.200312849e-04,2.272606486e-04,4.493444909e-05,2.721950977e-04,-1.459583651e-04,-1.556512289e-05,-1.615234879e-04,5.091357084e-04,-2.727208658e-05,4.818636218e-04,6.469086771e-04,-7.844184500e-04,-1.375097729e-04
-5.5,7.733771653e-05,2.655174244e-04,3.428551409e-04,-9.689000890e-04,-1.541456166e-04,-1.123045706e-03,9.082436974e-05,-7.538332941e-05,1.544104033e-05,-8.542588879e-05,-6.235487364e-05,-1.477807624e-04,7.340791178e-05,-6.212935316e-05,1.127855863e-05,-6.079466496e-04,-9.810570525e-05,-7.060523548e-04,2.777561994e-04,-9.381308105e-05,1.839431184e-04,-5.171829106e-04,-9.355903001e-05,-6.107419406e-04,1.872904470e-04,-7.894079474e-05,1.083496523e-04,-1.202529756e-04,-7.310523145e-05,-1.933582071e-04,-4.584115500e-04,-9.139143192e-05,-5.498029819e-04,9.420344831e-04,-3.159055980e-04,6.261288851e-04,-2.023139543e-05,-2.041949817e-04,-2.244263772e-04,6.137274797e-04,-1.663643406e-04,4.473631391e-04,1.408511719e-04,1.729467758e-04,3.137979477e-04,7.491616630e-04,5.387783002e-06,7.545494460e-04,5.501317264e-04,1.597359559e-04,7.098676823e-04,2.568897145e-04,1.112022828e-04,3.680919974e-04,-1.839581789e-05,3.443713305e-04,3.259755126e-04,-2.515207145e-04,-3.168001677e-05,-2.832007313e-04,-1.900911978e-04,-7.011697970e-05,-2.602081775e-04,1.374789127e-04,-5.691089007e-05,8.056802265e-05,-1.547956597e-04,-3.913914384e-05,-1.939348036e-04,-2.555731271e-04,4.843819993e-06,-2.507293071e-04,7.365729713e-04,-3.445224174e-04,3.920505540e-04,7.840585798e-04,-1.693535574e-04,6.147050224e-04,-3.983713558e-04,-3.817754037e-04,-7.801467595e-04,-1.419508592e-04,8.991641283e-05,-5.203444634e-05,1.652960494e-05,-8.236329136e-05,-6.583368641e-05,8.203472164e-05,-7.001030501e-05,1.202441663e-05,-7.312920290e-04,1.732268973e-05,-7.139693393e-04,-3.571246448e-04,-6.896579987e-05,-4.260904447e-04,4.036950629e-05,3.989151575e-05,8.026102204e-05,-2.063603087e-04,-2.086063084e-05,-2.272209396e-04,3.865467605e-04,-1.969296189e-05,3.668537986e-04,6.846000603e-04,-8.331276090e-04,-1.485275487e-04
-5.4,9.418627670e-05,2.721327412e-04,3.663190179e-04,-9.372775416e-04,-1.500944955e-04,-1.087372037e-03,7.443375298e-05,-6.895431272e-05,5.479440261e-06,-8.743493034e-05,-6.244986849e-05,-1.498847988e-04,5.046876673e-05,-6.049295652e-05,-1.002418979e-05,-5.998615592e-04,-9.552419285e-05,-6.953857521e-04,2.672413299e-04,-9.090818073e-05,1.763331492e-04,-4.846437191e-04,-9.355467311e-05,-5.781983922e-04,1.594195576e-04,-7.607179125e-05,8.334776631e-05,-1.201292210e-04,-6.577679250e-05,-1.859060135e-04,-4.688590986e-04,-8.888306913e-05,-5.577421677e-04,8.747864759e-04,-3.177082998e-04,5.570781761e-04,-1.977660773e-04,-1.770387085e-04,-3.748047858e-04,5.762136804e-04,-1.667418499e-04,4.094718305e-04,-5.132177384e-06,1.777322327e-04,1.726000554e-04,7.145868672e-04,7.217877473e-06,7.218047447e-04,5.498777924e-04,1.517657653e-04,7.016435577e-04,1.261679982e-04,9.750636108e-05,2.236743593e-04,-1.387728407e-04,3.433414215e-04,2.045685807e-04,-2.357053817e-04,-2.376400677e-05,-2.594693885e-04,-1.815749449e-04,-6.833997893e-05,-2.499149238e-04,1.217986361e-04,-5.386372422e-05,6.793491191e-05,-1.354133631e-04,-3.868675387e-05,-1.741001170e-04,-2.594227423e-04,1.000651381e-05,-2.494162285e-04,6.795226430e-04,-3.541011297e-04,3.254215133e-04,7.673814139e-04,-1.830461257e-04,5.843352882e-04,-4.562528179e-04,-4.052024369e-04,-8.614552548e-04,-1.781477274e-04,7.615371796e-05,-1.019940095e-04,-3.779742780e-05,-7.777448650e-05,-1.155719143e-04,4.781839336e-05,-8.670655076e-05,-3.888815740e-05,-8.785827345e-04,2.170829911e-06,-8.764119046e-04,-4.809467515e-04,-4.773317876e-05,-5.286799303e-04,-1.439081127e-04,3.485108240e-05,-1.090570303e-04,-2.667590587e-04,-2.433710395e-05,-2.910961627e-04,2.648060966e-04,-1.293710577e-05,2.518689909e-04,7.242051726e-04,-8.808977475e-04,-1.566925749e-04
-5.3,1.091641091e-04,2.768720276e-04,3.860361367e-04,-9.024652950e-04,-1.451855259e-04,-1.047650821e-03,5.775296819e-05,-6.235990352e-05,-4.606935331e-06,-8.965841960e-05,-6.239283076e-05,-1.520512504e-04,2.748557235e-05,-5.872076240e-05,-3.123519006e-05,-5.904236379e-04,-9.238847370e-05,-6.828121116e-04,2.547737708e-04,-8.795568527e-05,1.668180855e-04,-4.511759376e-04,-9.312426521e-05,-5.443002028e-04,1.315256734e-04,-7.288998752e-05,5.863568593e-05,-1.195878706e-04,-5.826975189e-05,-1.778576225e-04,-4.765166871e-04,-8.604132155e-05,-5.625580087e-04,8.039831066e-04,-3.183748539e-04,4.856082526e-04,-3.699289391e-04,-1.493690513e-04,-5.192979904e-04,5.364235686e-04,-1.661487662e-04,3.702748024e-04,-1.505101306e-04,1.824298031e-04,3.191967243e-05,6.772651028e-04,9.375996282e-06,6.866410991e-04,5.492860759e-04,1.420341938e-04,6.913202696e-04,-2.324924916e-06,8.323758845e-05,8.091266354e-05,-2.548031157e-04,3.391384313e-04,8.433531561e-05,-2.199839453e-04,-1.600508602e-05,-2.359890314e-04,-1.722778178e-04,-6.636154583e-05,-2.386393636e-04,1.061538082e-04,-5.061124199e-05,5.554256620e-05,-1.147160492e-04,-3.808979663e-05,-1.528058459e-04,-2.612521454e-04,1.522688382e-05,-2.460252616e-04,6.197488766e-04,-3.619944468e-04,2.577544298e-04,7.465562325e-04,-1.952293424e-04,5.513268901e-04,-5.108242656e-04,-4.262793132e-04,-9.371035787e-04,-2.114338032e-04,6.104159318e-05,-1.503922100e-04,-9.193409843e-05,-7.265936739e-05,-1.645934658e-04,1.333824429e-05,-1.025681454e-04,-8.922990109e-05,-1.020895104e-03,-1.434174820e-05,-1.035236852e-03,-6.021933982e-04,-2.540938479e-05,-6.276027830e-04,-3.254471889e-04,2.987338905e-05,-2.955737998e-04,-3.272975759e-04,-2.609406095e-05,-3.533916368e-04,1.440155655e-04,-6.990868473e-06,1.370246970e-04,7.660253134e-04,-9.283040562e-04,-1.622787428e-04
-5.2,1.220499838e-04,2.796279107e-04,4.016778945e-04,-8.647180835e-04,-1.394232181e-04,-1.004141302e-03,4.077463012e-05,-5.560242820e-05,-1.482779808e-05,-9.214744647e-05,-6.218298897e-05,-1.543304354e-04,4.490015530e-06,-5.682804732e-05,-5.233803179e-05,-5.797252989e-04,-8.870723567e-05,-6.684325345e-04,2.403386881e-04,-8.496554412e-05,1.553731440e-04,-4.169922623e-04,-9.228485857e-05,-5.092771209e-04,1.036479889e-04,-6.940020116e-05,3.424778771e-05,-1.186734697e-04,-5.061680236e-05,-1.692902721e-04,-4.814292310e-04,-8.286901067e-05,-5.642982416e-04,7.296533414e-04,-3.178346981e-04,4.118186433e-04,-5.364557356e-04,-1.212249662e-04,-6.576807018e-04,4.944766279e-04,-1.645980777e-04,3.298785502e-04,-2.945595313e-04,1.867781276e-04,-1.077814037e-04,6.372459715e-04,1.177246480e-05,6.490184363e-04,5.480052058e-04,1.306876740e-04,6.786928797e-04,-1.286728342e-04,6.865506802e-05,-6.001776618e-05,-3.666318461e-04,3.318166756e-04,-3.481517047e-05,-2.044976043e-04,-8.396730349e-06,-2.128943347e-04,-1.622899931e-04,-6.417823201e-05,-2.264682251e-04,9.049081849e-05,-4.717170763e-05,4.331911086e-05,-9.287612853e-05,-3.736231102e-05,-1.302384396e-04,-2.610529999e-04,2.050358095e-05,-2.405494189e-04,5.573937492e-04,-3.681933247e-04,1.892004244e-04,7.216890623e-04,-2.058767293e-04,5.158123330e-04,-5.625184881e-04,-4.448105928e-04,-1.007329081e-03,-2.418047377e-04,4.462108546e-05,-1.971836522e-04,-1.458920561e-04,-6.706535033e-05,-2.129574065e-04,-2.130948968e-05,-1.176482033e-04,-1.389576930e-04,-1.158244808e-03,-3.209945289e-05,-1.190344261e-03,-7.203885468e-04,-2.317542013e-06,-7.227060888e-04,-5.041174081e-04,2.498167704e-05,-4.791357310e-04,-3.880830195e-04,-2.627021091e-05,-4.143532305e-04,2.425109866e-05,-1.814505837e-06,2.243659282e-05,8.102881613e-04,-9.758461180e-04,-1.655579567e-04
-5.1,1.326538585e-04,2.803187201e-04,4.129725785e-04,-8.243065661e-04,-1.328237870e-04,-9.571303531e-04,2.348744320e-05,-4.868672151e-05,-2.519927832e-05,-9.494541042e-05,-6.181838431e-05,-1.567637947e-04,-1.848837628e-05,-5.482888827e-05,-7.331726456e-05,-5.678602723e-04,-8.449608144e-05,-6.523563538e-04,2.239481491e-04,-8.194208981e-05,1.420060593e-04,-3.822971988e-04,-9.105700324e-05,-4.733542020e-04,7.581906003e-05,-6.560948995e-05,1.020957008e-05,-1.174329427e-04,-4.285017027e-05,-1.602831130e-04,-4.836660534e-04,-7.936997477e-05,-5.630360282e-04,6.518374958e-04,-3.160182071e-04,3.358192887e-04,-6.971770337e-04,-9.264359447e-05,-7.898206282e-04,4.505005457e-04,-1.621116101e-04,2.883889356e-04,-4.365539809e-04,1.905036163e-04,-2.460503646e-04,5.945901264e-04,1.431418255e-05,6.089043090e-04,5.456539739e-04,1.178954730e-04,6.635494470e-04,-2.530339118e-04,5.402885969e-05,-1.990050521e-04,-4.744493765e-04,3.214665391e-04,-1.529828374e-04,-1.893788872e-04,-9.284746529e-07,-1.903073618e-04,-1.517080354e-04,-6.178609110e-05,-2.134941265e-04,7.474436530e-05,-4.356460151e-05,3.117976379e-05,-7.008283880e-05,-3.651909255e-05,-1.066019313e-04,-2.588423307e-04,2.583249845e-05,-2.330098322e-04,4.926075216e-04,-3.726955040e-04,1.199120176e-04,6.929192426e-04,-2.149832350e-04,4.779360076e-04,-6.118123248e-04,-4.605994715e-04,-1.072411796e-03,-2.692989837e-04,2.695211444e-05,-2.423468692e-04,-1.996881108e-04,-6.103545740e-05,-2.607235682e-04,-5.603749753e-05,-1.319988577e-04,-1.880363553e-04,-1.290673734e-03,-5.096134449e-05,-1.341635078e-03,-8.350833387e-04,2.119537296e-05,-8.138879657e-04,-6.797891717e-04,2.016599019e-05,-6.596231815e-04,-4.491934891e-04,-2.503402367e-05,-4.742275128e-04,-9.443496387e-05,2.652292076e-06,-9.178267180e-05,8.571307974e-04,-1.023930423e-03,-1.667996259e-04
-5,1.408248799e-04,2.788942059e-04,4.197190858e-04,-7.815164408e-04,-1.254164388e-04,-9.069328796e-04,5.876495491e-06,-4.161996474e-05,-3.574346925e-05,-9.809042397e-05,-6.129592264e-05,-1.593863466e-04,-4.142465678e-05,-5.273608322e-05,-9.416074001e-05,-5.549280254e-04,-7.977578958e-05,-6.347038150e-04,2.056388013e-04,-7.888387121e-05,1.267549301e-04,-3.472891029e-04,-8.946349829e-05,-4.367526012e-04,4.806338199e-05,-6.152713480e-05,-1.346375281e-05,-1.159172729e-04,-3.500111796e-05,-1.509183908e-04,-4.833214299e-04,-7.554889644e-05,-5.588703263e-04,5.705910535e-04,-3.128638532e-04,2.577272002e-04,-8.520009770e-04,-6.367090809e-05,-9.156718851e-04,4.046285789e-04,-1.587215643e-04,2.459070146e-04,-5.757781618e-04,1.933311962e-04,-3.824469656e-04,5.493665711e-04,1.690668924e-05,5.662732603e-04,5.418309729e-04,1.038414969e-04,6.456724698e-04,-3.756433545e-04,3.964307712e-05,-3.360002774e-04,-5.784830682e-04,3.082073310e-04,-2.702757372e-04,-1.747529093e-04,6.413345999e-06,-1.683395633e-04,-1.406356652e-04,-5.918094398e-05,-1.998166092e-04,5.883820945e-05,-3.981018920e-05,1.902802025e-05,-4.653941432e-05,-3.557478715e-05,-8.211420147e-05,-2.546638882e-04,3.120687343e-05,-2.234570147e-04,4.255446474e-04,-3.755045823e-04,5.004006512e-05,6.604145579e-04,-2.225635391e-04,4.378510188e-04,-6.592166332e-04,-4.734518443e-04,-1.132668477e-03,-2.940005610e-04,8.114333271e-06,-2.858862277e-04,-2.533444866e-04,-5.460896716e-05,-3.079534538e-04,-9.077193716e-05,-1.456677586e-04,-2.364396957e-04,-1.418245201e-03,-7.076497112e-05,-1.489010172e-03,-9.458714591e-04,4.476921053e-05,-9.011022486e-04,-8.523398544e-04,1.538926252e-05,-8.369505919e-04,-5.106831526e-04,-2.257612978e-05,-5.332592824e-04,-2.120097669e-04,6.484268486e-06,-2.055254984e-04,9.065830939e-04,-1.072859843e-03,-1.662767491e-04
-4.9,1.464593056e-04,2.753404157e-04,4.217997213e-04,-7.366463052e-04,-1.172441805e-04,-8.538904857e-04,-1.207483370e-05,-3.441133184e-05,-4.648616554e-05,-1.016164786e-04,-6.061156858e-05,-1.622280471e-04,-6.429893336e-05,-5.056108826e-05,-1.148600216e-04,-5.410356949e-04,-7.457080729e-05,-6.156065022e-04,1.854704834e-04,-7.578370612e-05,1.096867773e-04,-3.121606385e-04,-8.752877465e-05,-3.996894131e-04,2.039849725e-05,-5.716459070e-05,-3.676609345e-05,-1.141807869e-04,-2.709959858e-05,-1.412803855e-04,-4.805124299e-04,-7.141122898e-05,-5.519236589e-04,4.859884276e-04,-3.083240632e-04,1.776643644e-04,-1.000903849e-03,-3.436378743e-05,-1.035267636e-03,3.569991549e-04,-1.544722311e-04,2.025269238e-04,-7.115390674e-04,1.949943615e-04,-5.165447059e-04,5.016513585e-04,1.945634169e-05,5.211077002e-04,5.361265246e-04,8.871536329e-05,6.248418879e-04,-4.968078396e-04,2.579658701e-05,-4.710112526e-04,-6.789931701e-04,2.921826964e-04,-3.868104736e-04,-1.607369666e-04,1.364483390e-05,-1.470921327e-04,-1.291833282e-04,-5.635865612e-05,-1.855419844e-04,4.268765267e-05,-3.592908639e-05,6.758566275e-06,-2.245895381e-05,-3.454291918e-05,-5.700187300e-05,-2.485877827e-04,3.661742980e-05,-2.119703529e-04,3.563620541e-04,-3.766297669e-04,-2.026771283e-05,6.243689590e-04,-2.286501582e-04,3.957188008e-04,-7.052632377e-04,-4.831829462e-04,-1.188446184e-03,-3.160359968e-04,-1.179384106e-05,-3.278298378e-04,-3.068872104e-04,-4.782231945e-05,-3.547095298e-04,-1.254542657e-04,-1.586957958e-04,-2.841500616e-04,-1.541041069e-03,-9.132708388e-05,-1.632368153e-03,-1.052400045e-03,6.804032228e-05,-9.843597228e-04,-1.021658441e-03,1.059491484e-05,-1.011063526e-03,-5.725835922e-04,-1.910402373e-05,-5.916876159e-04,-3.284536195e-04,9.764579879e-06,-3.186890397e-04,9.585502966e-04,-1.122825983e-03,-1.642756867e-04
-4.8,1.495078399e-04,2.696832736e-04,4.191911135e-04,-6.900041004e-04,-1.083639840e-04,-7.983680844e-04,-3.038145506e-05,-2.707152113e-05,-5.745297619e-05,-1.055531884e-04,-5.976066180e-05,-1.653138502e-04,-8.709490440e-05,-4.831404189e-05,-1.354089463e-04,-5.262972548e-04,-6.890838666e-05,-5.952056415e-04,1.635259115e-04,-7.262901355e-05,9.089689799e-05,-2.770977246e-04,-8.527876305e-05,-3.623764876e-04,-7.161837356e-06,-5.253541823e-05,-5.969725559e-05,-1.122785014e-04,-1.917404372e-05,-1.314525451e-04,-4.753745520e-04,-6.696324255e-05,-5.423377945e-04,3.981267455e-04,-3.023693955e-04,9.575734997e-05,-1.143928452e-03,-4.785034185e-06,-1.148713486e-03,3.077567782e-04,-1.494212098e-04,1.583355684e-04,-8.431733463e-04,1.952429410e-04,-6.479304053e-04,4.515277810e-04,2.187222808e-05,4.734000091e-04,5.281351302e-04,7.270455430e-05,6.008396845e-04,-6.168902646e-04,1.279969232e-05,-6.040905723e-04,-7.762700289e-04,2.735582136e-04,-5.027118153e-04,-1.474386724e-04,2.078387898e-05,-1.266547934e-04,-1.174667023e-04,-5.331531607e-05,-1.707820184e-04,2.620343214e-05,-3.194179686e-05,-5.738364724e-06,1.940529570e-06,-3.343502598e-05,-3.149449641e-05,-2.407083680e-04,4.205275191e-05,-1.986556160e-04,2.852193253e-04,-3.760859266e-04,-9.086660128e-05,5.850034848e-04,-2.332919106e-04,3.517115741e-04,-7.504879206e-04,-4.896276357e-04,-1.240115556e-03,-3.355671540e-04,-3.265745653e-05,-3.682246105e-04,-3.603427967e-04,-4.070982608e-05,-4.010526228e-04,-1.600415538e-04,-1.711156623e-04,-3.311572162e-04,-1.659160940e-03,-1.124422553e-04,-1.771603195e-03,-1.154375264e-03,9.065003833e-05,-1.063725225e-03,-1.187646798e-03,5.714668211e-06,-1.181932130e-03,-6.349012757e-04,-1.483828446e-05,-6.497395602e-04,-4.437525616e-04,1.257955343e-05,-4.311730082e-04,1.012789437e-03,-1.173896905e-03,-1.611074676e-04
-4.7,1.499814319e-04,2.619904784e-04,4.119719103e-04,-6.419025585e-04,-9.884633515e-05,-7.407488936e-04,-4.905256504e-05,-1.961225583e-05,-6.866482087e-05,-1.099247711e-04,-5.873826699e-05,-1.686630381e-04,-1.097975388e-04,-4.600391306e-05,-1.558014519e-04,-5.108309304e-04,-6.281834554e-05,-5.736492759e-04,1.399105763e-04,-6.940237999e-05,7.050819631e-05,-2.422781156e-04,-8.274067932e-05,-3.250187949e-04,-3.460416289e-05,-4.765519791e-05,-8.225936080e-05,-1.102632193e-04,-1.125121745e-05,-1.215144367e-04,-4.680569075e-04,-6.221215814e-05,-5.302690656e-04,3.071297598e-04,-2.949913580e-04,1.213840177e-05,-1.281183903e-03,2.500245979e-05,-1.256181444e-03,2.570523502e-04,-1.436395558e-04,1.134127945e-04,-9.700523158e-04,1.938483019e-04,-7.762040139e-04,3.990871431e-04,2.406772378e-05,4.231548668e-04,5.174664373e-04,5.598922139e-05,5.734556587e-04,-7.362855201e-04,9.653367715e-07,-7.353201833e-04,-8.706291447e-04,2.525191705e-04,-6.181099742e-04,-1.349535815e-04,2.784954927e-05,-1.071040322e-04,-1.056047192e-04,-5.004740173e-05,-1.556521209e-04,9.296036853e-06,-2.786827602e-05,-1.857223917e-05,2.644098789e-05,-3.226006685e-05,-5.819078953e-06,-2.311410607e-04,4.749994183e-05,-1.836411189e-04,2.122799435e-04,-3.738938155e-04,-1.616138720e-04,5.425690921e-04,-2.365530990e-04,3.060159930e-04,-7.954097297e-04,-4.926539281e-04,-1.288063658e-03,-3.527830009e-04,-5.434785176e-05,-4.071308526e-04,-4.137341058e-04,-3.330415621e-05,-4.470382620e-04,-1.945066889e-04,-1.829509669e-04,-3.774576558e-04,-1.772722254e-03,-1.338815716e-04,-1.906603825e-03,-1.251563940e-03,1.122527767e-04,-1.139311163e-03,-1.350217301e-03,6.747201483e-07,-1.349542581e-03,-6.976138917e-04,-1.000888919e-05,-7.076227809e-04,-5.578916227e-04,1.501428008e-05,-5.428773426e-04,1.068876174e-03,-1.225996731e-03,-1.571205574e-04
-4.6,1.479543333e-04,2.523715063e-04,4.003258397e-04,-5.926545097e-04,-8.877426125e-05,-6.814287709e-04,-6.808826490e-05,-1.204579013e-05,-8.013405503e-05,-1.147493931e-04,-5.753947465e-05,-1.722888678e-04,-1.323912899e-04,-4.363874128e-05,-1.760300312e-04,-4.947563600e-04,-5.633299753e-05,-5.510893575e-04,1.147515310e-04,-6.608227405e-05,4.866925694e-05,-2.078710622e-04,-7.994221304e-05,-2.878132752e-04,-6.191327130e-05,-4.254144027e-05,-1.044547116e-04,-1.081840995e-04,-3.356105029e-06,-1.115402045e-04,-4.587187553e-04,-5.716633787e-05,-5.158850932e-04,2.131517412e-04,-2.862044659e-04,-7.305272469e-05,-1.412840547e-03,5.493667382e-05,-1.357903873e-03,2.050414870e-04,-1.372107461e-04,6.783074088e-05,-1.091587841e-03,1.906072249e-04,-9.009806161e-04,3.444289482e-04,2.596173737e-05,3.703906856e-04,5.037535939e-04,3.873992712e-05,5.424935210e-04,-8.553899467e-04,-9.405570614e-06,-8.647955174e-04,-9.624035482e-04,2.292674529e-04,-7.331360953e-04,-1.233634844e-04,3.486136736e-05,-8.850211702e-05,-9.371778320e-05,-4.655210578e-05,-1.402698890e-04,-8.120604063e-06,-2.372758149e-05,-3.184818555e-05,5.082834080e-05,-3.102415036e-05,1.980419043e-05,-2.200190331e-04,5.294547606e-05,-1.670735570e-04,1.377126610e-04,-3.700805517e-04,-2.323678908e-04,4.973489276e-04,-2.385132976e-04,2.588356299e-04,-8.405089645e-04,-4.921778931e-04,-1.332686858e-03,-3.678922322e-04,-7.672612995e-05,-4.446183621e-04,-4.670759614e-04,-2.563717577e-05,-4.927131371e-04,-2.288392808e-04,-1.942156625e-04,-4.230549432e-04,-1.881860268e-03,-1.553929025e-04,-2.037253170e-03,-1.343793153e-03,1.325242794e-04,-1.211268874e-03,-1.509288518e-03,-4.600696734e-06,-1.513889215e-03,-7.606687873e-04,-4.850585484e-06,-7.655193728e-04,-6.708502929e-04,1.714892315e-05,-6.537013698e-04,1.126164813e-03,-1.278877787e-03,-1.527129732e-04
-4.5,1.435634731e-04,2.409757242e-04,3.845391973e-04,-5.425688512e-04,-7.824188996e-05,-6.208107412e-04,-8.747760366e-05,-4.384432927e-06,-9.186203659e-05,-1.200397782e-04,-5.615965828e-05,-1.761994365e-04,-1.548597378e-04,-4.122589773e-05,-1.960856355e-04,-4.781927058e-04,-4.948689112e-05,-5.276795969e-04,8.819412928e-05,-6.264388175e-05,2.555024753e-05,-1.740386903e-04,-7.691014390e-05,-2.509488342e-04,-8.907239400e-05,-3.721350684e-05,-1.262859008e-04,-1.060875169e-04,4.488166259e-06,-1.015993507e-04,-4.475282516e-04,-5.183550839e-05,-4.993637600e-04,1.163809400e-04,-2.760478660e-04,-1.596669261e-04,-1.539119913e-03,8.495241559e-05,-1.454167498e-03,1.518808056e-04,-1.302288513e-04,2.165195427e-05,-1.207241421e-03,1.853455179e-04,-1.021895903e-03,2.876596772e-04,2.747974703e-05,3.151394243e-04,4.866590420e-04,2.111748082e-05,5.077765229e-04,-9.745692611e-04,-1.804249837e-05,-9.926117595e-04,-1.051936285e-03,2.040190650e-04,-8.479172203e-04,-1.127362835e-04,4.183849469e-05,-7.089778885e-05,-8.192670074e-05,-4.282782760e-05,-1.247545283e-04,-2.612661206e-05,-1.953760781e-05,-4.566421987e-05,7.489518495e-05,-2.973049515e-05,4.516468980e-05,-2.074904187e-04,5.837615342e-05,-1.491142652e-04,6.169229257e-05,-3.646802626e-04,-3.029879700e-04,4.496578562e-04,-2.392671175e-04,2.103907387e-04,-8.862076207e-04,-4.881768802e-04,-1.374384501e-03,-3.811175752e-04,-9.964741941e-05,-4.807649946e-04,-5.203707315e-04,-1.774190455e-05,-5.381126360e-04,-2.630473144e-04,-2.049136855e-04,-4.679609999e-04,-1.986727864e-03,-1.767027761e-04,-2.163430640e-03,-1.430948823e-03,1.511696822e-04,-1.279779141e-03,-1.664781966e-03,-1.018706952e-05,-1.674969035e-03,-8.239850010e-04,4.028548050e-07,-8.235821462e-04,-7.826011054e-04,1.905607419e-05,-7.635450312e-04,1.183749597e-03,-1.332089611e-03,-1.483400141e-04
-4.4,1.370038744e-04,2.279887421e-04,3.649926165e-04,-4.919475474e-04,-6.735254676e-05,-5.593000941e-04,-1.071981984e-04,3.359885552e-06,-1.038383129e-04,-1.258053260e-04,-5.459476821e-05,-1.804000942e-04,-1.771868301e-04,-3.877230914e-05,-2.159591392e-04,-4.612583361e-04,-4.231638120e-05,-5.035747173e-04,6.039655614e-05,-5.906008462e-05,1.336471522e-06,-1.409387048e-04,-7.366878146e-05,-2.146074863e-04,-1.160654469e-04,-3.169252651e-05,-1.477579734e-04,-1.040200653e-04,1.226041941e-05,-9.175964585e-05,-4.346633084e-04,-4.623095705e-05,-4.808942654e-04,1.704198187e-05,-2.645861608e-04,-2.475441790e-04,-1.660285194e-03,1.149768716e-04,-1.545308323e-03,9.772315712e-05,-1.227964318e-04,-2.507327467e-05,-1.316536309e-03,1.779211959e-04,-1.138615113e-03,2.288899033e-04,2.855477311e-05,2.574446765e-04,4.658786045e-04,3.273567179e-06,4.691521717e-04,-1.094130739e-03,-2.472346390e-05,-1.118854203e-03,-1.139575755e-03,1.770041150e-04,-9.625716400e-04,-1.031277153e-04,4.879901756e-05,-5.432869773e-05,-7.035254782e-05,-3.887464966e-05,-1.092271975e-04,-4.479480662e-05,-1.531486917e-05,-6.010967579e-05,9.844221034e-05,-2.837951192e-05,7.006269842e-05,-1.937162167e-04,6.378001720e-05,-1.299361995e-04,-1.560021688e-05,-3.577346681e-04,-3.733348850e-04,3.998384038e-04,-2.389233099e-04,1.609150939e-04,-9.328543226e-04,-4.806989492e-04,-1.413553272e-03,-3.926926262e-04,-1.229652900e-04,-5.156579162e-04,-5.736045535e-04,-9.655678244e-06,-5.832602317e-04,-2.971589029e-04,-2.150390974e-04,-5.121980003e-04,-2.087495467e-03,-1.975188497e-04,-2.285014316e-03,-1.512973140e-03,1.679305189e-04,-1.345042621e-03,-1.816622710e-03,-1.615626304e-05,-1.832778973e-03,-8.874588517e-04,5.525165893e-06,-8.819336858e-04,-8.931114242e-04,2.079951506e-05,-8.723119092e-04,1.240439129e-03,-1.384955621e-03,-1.445164927e-04
-4.3,1.285205983e-04,2.136271457e-04,3.421477440e-04,-4.410835076e-04,-5.621640060e-05,-4.972999082e-04,-1.272170367e-04,1.117599495e-05,-1.160410418e-04,-1.320552769e-04,-5.284173361e-05,-1.848970105e-04,-1.993592509e-04,-3.628461530e-05,-2.356438662e-04,-4.440719350e-04,-3.485923657e-05,-4.789311716e-04,3.152275837e-05,-5.530256485e-05,-2.377980648e-05,-1.087277254e-04,-7.023848160e-05,-1.789662070e-04,-1.428805039e-04,-2.600125670e-05,-1.688817606e-04,-1.020328191e-04,1.994161999e-05,-8.209119909e-05,-4.203137401e-04,-4.036560687e-05,-4.606793470e-04,-8.460339983e-05,-2.519087006e-04,-3.365121005e-04,-1.776637729e-03,1.449293901e-04,-1.631708339e-03,4.271307742e-05,-1.150224116e-04,-7.230933423e-05,-1.419070754e-03,1.682267306e-04,-1.250844024e-03,1.682302517e-04,2.912832131e-05,1.973585730e-04,4.411447794e-04,-1.464897638e-05,4.264958031e-04,-1.214303211e-03,-2.929024963e-05,-1.243593461e-03,-1.225673729e-03,1.484685956e-04,-1.077205134e-03,-9.458428876e-05,5.575940400e-05,-3.882488476e-05,-5.911729033e-05,-3.469465611e-05,-9.381194644e-05,-6.419006678e-05,-1.107433249e-05,-7.526439927e-05,1.212786902e-04,-2.696895544e-05,9.430973478e-05,-1.788686403e-04,6.914708895e-05,-1.097215513e-04,-9.397816063e-05,-3.492933916e-04,-4.432715522e-04,3.482536877e-04,-2.376029052e-04,1.106507825e-04,-9.807132484e-04,-4.698686983e-04,-1.450581947e-03,-4.028619126e-04,-1.465352422e-04,-5.493971548e-04,-6.267451586e-04,-1.423807792e-06,-6.281689664e-04,-3.312230499e-04,-2.245772838e-04,-5.558003336e-04,-2.184350789e-03,-2.175325518e-04,-2.401883341e-03,-1.589860558e-03,1.825898077e-04,-1.407270750e-03,-1.964744359e-03,-2.257112106e-05,-1.987315480e-03,-9.509720745e-04,1.030419515e-05,-9.406678793e-04,-1.002347506e-03,2.243410619e-05,-9.799133997e-04,1.294757533e-03,-1.436571177e-03,-1.418136443e-04
-4.2,1.183982837e-04,1.981318000e-04,3.165300837e-04,-3.902587804e-04,-4.494767108e-05,-4.352064515e-04,-1.474916917e-04,1.905386498e-05,-1.284378267e-04,-1.388019166e-04,-5.089895508e-05,-1.897008717e-04,-2.213689234e-04,-3.376924116e-05,-2.551381646e-04,-4.267541025e-04,-2.715436592e-05,-4.539084684e-04,1.734949677e-06,-5.134294767e-05,-4.960799800e-05,-7.756467791e-05,-6.663419868e-05,-1.441988766e-04,-1.695132395e-04,-2.016385821e-05,-1.896770977e-04,-1.001854155e-04,2.751517890e-05,-7.267023661e-05,-4.046833265e-04,-3.425393600e-05,-4.389372625e-04,-1.882573877e-04,-2.381269251e-04,-4.263843127e-04,-1.888520203e-03,1.747268445e-04,-1.713793358e-03,-1.301629750e-05,-1.070198545e-04,-1.200361520e-04,-1.514530343e-03,1.561907239e-04,-1.358339619e-03,1.057872718e-04,2.915128111e-05,1.349385529e-04,4.122299007e-04,-3.251678134e-05,3.797131194e-04,-1.335224493e-03,-3.165966276e-05,-1.366884155e-03,-1.310584152e-03,1.186757768e-04,-1.191908375e-03,-8.714614969e-05,6.273397524e-05,-2.441217445e-05,-4.834453867e-05,-3.029214107e-05,-7.863667974e-05,-8.436872361e-05,-6.829347002e-06,-9.119807062e-05,1.432226843e-04,-2.549414485e-05,1.177285395e-04,-1.631293154e-04,7.446974885e-05,-8.865956657e-05,-1.732495438e-04,-3.394138897e-04,-5.126634335e-04,2.952787039e-04,-2.354362417e-04,5.984246215e-05,-1.029957808e-03,-4.558894570e-04,-1.485847265e-03,-4.118838645e-04,-1.702164615e-04,-5.821003260e-04,-6.797416058e-04,6.897207039e-06,-6.728443987e-04,-3.653084133e-04,-2.335074399e-04,-5.988158532e-04,-2.277497322e-03,-2.364230584e-04,-2.513920381e-03,-1.661652700e-03,1.949752006e-04,-1.466677499e-03,-2.109096392e-03,-2.947910204e-05,-2.138575494e-03,-1.014400384e-03,1.454728672e-05,-9.998530969e-04,-1.110279137e-03,2.400626604e-05,-1.086272871e-03,1.344982457e-03,-1.485831586e-03,-1.408491292e-04
-4.1,1.069496476e-04,1.817600994e-04,2.887097470e-04,-3.397422586e-04,-3.366140176e-05,-3.734036604e-04,-1.679710270e-04,2.698505635e-05,-1.409859706e-04,-1.460625556e-04,-4.876678465e-05,-1.948293402e-04,-2.432143598e-04,-3.123237112e-05,-2.744467309e-04,-4.094280586e-04,-1.924151339e-05,-4.286695720e-04,-2.881284457e-05,-4.715389116e-05,-7.596673573e-05,-4.761341714e-05,-6.286407786e-05,-1.104774950e-04,-1.959688754e-04,-1.420561751e-05,-2.101744929e-04,-9.854826770e-05,3.496723151e-05,-6.358103619e-05,-3.879901757e-04,-2.791181950e-05,-4.159019953e-04,-2.935885112e-04,-2.233697163e-04,-5.169582275e-04,-1.996320910e-03,2.042915578e-04,-1.792029352e-03,-6.934372768e-05,-9.890347786e-05,-1.682472055e-04,-1.602697557e-03,1.417798743e-04,-1.460917682e-03,4.166050002e-05,2.858480758e-05,7.024530760e-05,3.789497556e-04,-5.020720673e-05,3.287425488e-04,-1.456933496e-03,-3.183073567e-05,-1.488764232e-03,-1.394662254e-03,8.790636501e-05,-1.306755889e-03,-8.084858228e-05,6.973431092e-05,-1.111427136e-05,-3.815962906e-05,-2.567381534e-05,-6.383344439e-05,-1.053772892e-04,-2.591693159e-06,-1.079689824e-04,1.641016493e-04,-2.394823862e-05,1.401534107e-04,-1.466866542e-04,7.974268694e-05,-6.694396728e-05,-2.532172257e-04,-3.281612299e-04,-5.813784556e-04,2.412915837e-04,-2.325588119e-04,8.732771757e-06,-1.080671914e-03,-4.390396936e-04,-1.519711608e-03,-4.200347269e-04,-1.938716129e-04,-6.139063397e-04,-7.325255292e-04,1.523774775e-05,-7.172877815e-04,-3.994995089e-04,-2.418060391e-04,-6.413055480e-04,-2.367149901e-03,-2.538642413e-04,-2.621014143e-03,-1.728432398e-03,2.049608123e-04,-1.523471586e-03,-2.249650948e-03,-3.690634560e-05,-2.286557294e-03,-1.077619944e-03,1.808392269e-05,-1.059536021e-03,-1.216883120e-03,2.555506076e-05,-1.191328059e-03,1.389221155e-03,-1.531490387e-03,-1.422692316e-04
-4,9.450436375e-05,1.647777356e-04,2.592820993e-04,-2.897860954e-04,-2.246985538e-05,-3.122559508e-04,-1.885946561e-04,3.496323281e-05,-1.536314233e-04,-1.538591482e-04,-4.644788418e-05,-2.003070324e-04,-2.648997345e-04,-2.867984534e-05,-2.935795798e-04,-3.922181976e-04,-1.116077623e-05,-4.033789738e-04,-5.997886055e-05,-4.271010714e-05,-1.026889677e-04,-1.904337588e-05,-5.892841905e-05,-7.797179493e-05,-2.222614770e-04,-8.152679436e-06,-2.304141564e-04,-9.720161883e-05,4.228671988e-05,-5.491489895e-05,-3.704641533e-04,-2.135640244e-05,-3.918205557e-04,-4.002351344e-04,-2.077768560e-04,-6.080119904e-04,-2.100469446e-03,2.335561670e-04,-1.866913279e-03,-1.261572119e-04,-9.078682678e-05,-2.169440387e-04,-1.683456659e-03,1.250015419e-04,-1.558455118e-03,-2.405785282e-05,2.740099443e-05,3.343141603e-06,3.411679644e-04,-6.760937111e-05,2.735585933e-04,-1.579365112e-03,-2.988802281e-05,-1.609253135e-03,-1.478265093e-03,5.645850013e-05,-1.421806593e-03,-7.572144133e-05,7.676878602e-05,1.047344689e-06,-2.868843060e-05,-2.084897966e-05,-4.953741026e-05,-1.272501247e-04,1.628302246e-06,-1.256218224e-04,1.837538600e-04,-2.232255158e-05,1.614313084e-04,-1.297319872e-04,8.496250013e-05,-4.476948710e-05,-3.336779310e-04,-3.156082902e-04,-6.492862211e-04,1.866663553e-04,-2.291062333e-04,-4.243987806e-05,-1.132858650e-03,-4.196626074e-04,-1.552521258e-03,-4.276106596e-04,-2.173650033e-04,-6.449756629e-04,-7.850132974e-04,2.351502567e-05,-7.614982718e-04,-4.338902604e-04,-2.494508814e-04,-6.833411418e-04,-2.453526309e-03,-2.695348303e-04,-2.723061140e-03,-1.790316364e-03,2.124680664e-04,-1.577848298e-03,-2.386406855e-03,-4.485239322e-05,-2.431259248e-03,-1.140510592e-03,2.076530440e-05,-1.119745288e-03,-1.322144351e-03,2.711429642e-05,-1.295030054e-03,1.425515555e-03,-1.572241714e-03,-1.467261590e-04
-3.9,8.139944498e-05,1.474506137e-04,2.288500586e-04,-2.406204880e-04,-1.147873725e-05,-2.520992253e-04,-2.092911072e-04,4.298459962e-05,-1.663065076e-04,-1.622151176e-04,-4.394739706e-05,-2.061625146e-04,-2.864314243e-04,-2.611704242e-05,-3.125484667e-04,-3.752460956e-04,-2.952039243e-06,-3.781981348e-04,-9.163469029e-05,-3.798931760e-05,-1.296240079e-04,7.972530006e-06,-5.481944528e-05,-4.684691527e-05,-2.484106033e-04,-2.031819163e-06,-2.504424225e-04,-9.623144791e-05,4.946522881e-05,-4.676621910e-05,-3.523414029e-04,-1.460603981e-05,-3.669474427e-04,-5.078096277e-04,-1.914912292e-04,-6.993008569e-04,-2.201417689e-03,2.624623602e-04,-1.938955329e-03,-1.833489154e-04,-8.277908740e-05,-2.661280028e-04,-1.756793388e-03,1.059065493e-04,-1.650886839e-03,-9.127968787e-05,2.558301750e-05,-6.569667037e-05,2.988003479e-04,-8.462391291e-05,2.141764350e-04,-1.702348675e-03,-2.600094040e-05,-1.728349615e-03,-1.561753576e-03,2.464861332e-05,-1.537104963e-03,-7.178660094e-05,8.384245227e-05,1.205585133e-05,-2.005482769e-05,-1.582952020e-05,-3.588434788e-05,-1.500062890e-04,5.821673064e-06,-1.441846159e-04,2.020304287e-04,-2.060697462e-05,1.814234540e-04,-1.124546434e-04,9.012713763e-05,-2.232750577e-05,-4.144195759e-04,-3.018366879e-04,-7.162562638e-04,1.317679037e-04,-2.252090669e-04,-9.344116315e-05,-1.186451396e-03,-3.981518075e-04,-1.584603203e-03,-4.349269731e-04,-2.405597231e-04,-6.754866963e-04,-8.371087832e-04,3.163512261e-05,-8.054736605e-04,-4.685754539e-04,-2.564253624e-04,-7.250008164e-04,-2.536836015e-03,-2.831301637e-04,-2.819966179e-03,-1.847446466e-03,2.174652872e-04,-1.629981179e-03,-2.519390233e-03,-5.328522843e-05,-2.572675462e-03,-1.202956886e-03,2.246259971e-05,-1.180494286e-03,-1.426054075e-03,2.871551639e-05,-1.397338559e-03,1.451959235e-03,-1.606814603e-03,-1.548553680e-04
-3.8,6.797155679e-05,1.300374275e-04,1.980089842e-04,-1.924474075e-04,-7.836092593e-07,-1.932310167e-04,-2.299756209e-04,5.104809521e-05,-1.789275257e-04,-1.711501239e-04,-4.127289942e-05,-2.124230233e-04,-3.078130812e-04,-2.354881894e-05,-3.313619001e-04,-3.586248727e-04,5.345555486e-06,-3.532793172e-04,-1.236640018e-04,-3.297307866e-05,-1.566370804e-04,3.326222011e-05,-5.052200661e-05,-1.725978649e-05,-2.744367986e-04,4.129754714e-06,-2.703070439e-04,-9.572385277e-05,5.649667859e-05,-3.922717417e-05,-3.338575618e-04,-7.680266846e-06,-3.415378286e-04,-6.159026864e-04,-1.746515020e-04,-7.905541884e-04,-2.299610284e-03,2.909555258e-04,-2.008654758e-03,-2.408096681e-04,-7.498163261e-05,-3.157913007e-04,-1.822791090e-03,8.459163176e-05,-1.738199458e-03,-1.599150795e-04,2.312484663e-05,-1.367902328e-04,2.518175250e-04,-1.011606240e-04,1.506569010e-04,-1.825612470e-03,-2.041863823e-05,-1.846031108e-03,-1.645494404e-03,-7.187382547e-06,-1.652681787e-03,-6.905425686e-05,9.095715118e-05,2.190289433e-05,-1.237743393e-05,-1.062968656e-05,-2.300712048e-05,-1.736464971e-04,9.980774537e-06,-1.636657225e-04,2.187971592e-04,-1.879060652e-05,2.000065527e-04,-9.503683922e-05,9.523538914e-05,1.985499208e-07,-4.952176710e-04,-2.869380263e-04,-7.821556973e-04,7.694832033e-05,-2.209882324e-04,-1.440399120e-04,-1.241323729e-03,-3.749368838e-04,-1.616260613e-03,-4.423158096e-04,-2.633144552e-04,-7.056302648e-04,-8.887069365e-04,3.949686917e-05,-8.492100673e-04,-5.036415235e-04,-2.627223229e-04,-7.663638464e-04,-2.617269353e-03,-2.943729136e-04,-2.911642266e-03,-1.899981048e-03,2.199655615e-04,-1.680015487e-03,-2.648652756e-03,-6.213701052e-05,-2.710789767e-03,-1.264848899e-03,2.306601013e-05,-1.241782889e-03,-1.528606319e-03,3.039126985e-05,-1.498215049e-03,1.466806056e-03,-1.634062643e-03,-1.672565873e-04
-3.7,5.455089584e-05,1.127832422e-04,1.673341380e-04,-1.454346062e-04,9.533128412e-06,-1.359014778e-04,-2.505489611e-04,5.915527180e-05,-1.913936893e-04,-1.806743921e-04,-3.843412109e-05,-2.191085132e-04,-3.290410501e-04,-2.097952037e-05,-3.500205704e-04,-3.424536125e-04,1.369427508e-05,-3.287593375e-04,-1.559603319e-04,-2.764737169e-05,-1.836077036e-04,5.665953852e-05,-4.601504956e-05,1.064448896e-05,-3.003579411e-04,1.030457535e-05,-2.900533657e-04,-9.576014444e-05,6.337700097e-05,-3.238314347e-05,-3.152418650e-04,-5.997640363e-07,-3.158416290e-04,-7.240874275e-04,-1.573871371e-04,-8.814745646e-04,-2.395455939e-03,3.189786063e-04,-2.076477332e-03,-2.984250626e-04,-6.748464971e-05,-3.659097123e-04,-1.881625765e-03,6.120085214e-05,-1.820424913e-03,-2.298658517e-04,2.003102199e-05,-2.098348297e-04,2.002447954e-04,-1.171340689e-04,8.311072650e-05,-1.948795949e-03,-1.345962859e-05,-1.962255577e-03,-1.729860337e-03,-3.869408640e-05,-1.768554423e-03,-6.751935605e-05,9.811152149e-05,3.059216544e-05,-5.766380898e-06,-5.265798076e-06,-1.103217897e-05,-1.981513052e-04,1.409924400e-05,-1.840520613e-04,2.339354186e-04,-1.686262726e-05,2.170727914e-04,-7.764949915e-05,1.002864934e-04,2.263699425e-05,-5.758326874e-04,-2.710147504e-04,-8.468474378e-04,2.254309864e-05,-2.165515613e-04,-1.940084627e-04,-1.297298692e-03,-3.504701883e-04,-1.647768881e-03,-4.501237893e-04,-2.854805476e-04,-7.356043370e-04,-9.396981604e-04,4.699666316e-05,-8.927014972e-04,-5.391587151e-04,-2.683465584e-04,-8.075052736e-04,-2.694990207e-03,-3.030207879e-04,-2.998010995e-03,-1.948088271e-03,2.200226969e-04,-1.728065574e-03,-2.774269733e-03,-7.130109590e-05,-2.845570829e-03,-1.326083387e-03,2.248510613e-05,-1.303598281e-03,-1.629794623e-03,3.217813866e-05,-1.597616485e-03,1.468553452e-03,-1.653033626e-03,-1.844801732e-04
-3.6,4.145594260e-05,9.591432302e-05,1.373702656e-04,-9.971129528e-05,1.940447460e-05,-8.030682069e-05,-2.708981613e-04,6.730995284e-05,-2.035882085e-04,-1.907841900e-04,-3.544246755e-05,-2.262266576e-04,-3.501015698e-04,-1.841301284e-05,-3.685145827e-04,-3.268132605e-04,2.205880357e-05,-3.047544569e-04,-1.884253218e-04,-2.200293997e-05,-2.104282617e-04,7.800886214e-05,-4.127365609e-05,3.673520606e-05,-3.261877044e-04,1.646507875e-05,-3.097226257e-04,-9.641414992e-05,7.010384530e-05,-2.631030462e-05,-2.967135662e-04,6.613684646e-06,-2.900998816e-04,-8.319236266e-04,-1.398160910e-04,-9.717397175e-04,-2.489308629e-03,3.464669597e-04,-2.142841669e-03,-3.560742208e-04,-6.036438535e-05,-4.164386061e-04,-1.933561787e-03,3.592551910e-05,-1.897636268e-03,-3.010209856e-04,1.631685831e-05,-2.847041273e-04,1.441602146e-04,-1.324588864e-04,1.170132824e-05,-2.071469654e-03,-5.495669371e-06,-2.076965324e-03,-1.815227024e-03,-6.949959600e-05,-1.884726620e-03,-6.715936926e-05,1.053007654e-04,3.814139617e-05,-3.209042548e-07,2.439840259e-07,-7.692022891e-08,-2.234812193e-04,1.817190185e-05,-2.053093175e-04,2.473416374e-04,-1.481329055e-05,2.325283468e-04,-6.044980649e-05,1.052798583e-04,4.483005184e-05,-6.560099606e-04,-2.541802040e-04,-9.101901646e-04,-3.113370453e-05,-2.119918010e-04,-2.431255055e-04,-1.354157953e-03,-3.252150051e-04,-1.679372958e-03,-4.587100921e-04,-3.068995322e-04,-7.656096242e-04,-9.899728585e-04,5.403301003e-05,-9.359398484e-04,-5.751764569e-04,-2.733153513e-04,-8.484918082e-04,-2.770132297e-03,-3.088714127e-04,-3.079003709e-03,-1.991942761e-03,2.177259030e-04,-1.774216858e-03,-2.896339937e-03,-8.063009151e-05,-2.976970029e-03,-1.386564475e-03,2.064948071e-05,-1.365914994e-03,-1.729610857e-03,3.411909157e-05,-1.695491765e-03,1.455991812e-03,-1.663010721e-03,-2.070189090e-04
-3.5,2.898860806e-05,7.963434624e-05,1.086229543e-04,-5.536637003e-05,2.878025689e-05,-2.658611314e-05,-2.908993450e-04,7.551778376e-05,-2.153815612e-04,-2.014593965e-04,-3.231042354e-05,-2.337698200e-04,-3.709703266e-04,-1.585268115e-05,-3.868230077e-04,-3.117643779e-04,3.040724132e-05,-2.813571366e-04,-2.209681209e-04,-1.603542459e-05,-2.370035455e-04,9.716872657e-05,-3.627147332e-05,6.089725325e-05,-3.519363017e-04,2.258378539e-05,-3.293525163e-04,-9.775208113e-05,7.667632965e-05,-2.107575148e-05,-2.784809143e-04,1.393725201e-05,-2.645436623e-04,-9.389630973e-04,-1.220441515e-04,-1.061007249e-03,-2.581461587e-03,3.733461065e-04,-2.208115480e-03,-4.136313161e-04,-5.368138250e-05,-4.673126986e-04,-1.978948768e-03,9.002372852e-06,-1.969946396e-03,-3.732553397e-04,1.200896455e-05,-3.612463751e-04,8.369191574e-05,-1.470468498e-04,-6.335493406e-05,-2.193160771e-03,3.069220550e-06,-2.190091551e-03,-1.901964279e-03,-9.922359853e-05,-2.001187878e-03,-6.793414023e-05,1.125164064e-04,4.458226621e-05,3.871880556e-06,5.879886676e-06,9.751767232e-06,-2.495788361e-04,2.219462332e-05,-2.273842128e-04,2.589256032e-04,-1.263482655e-05,2.462907766e-04,-4.358071529e-05,1.102148613e-04,6.663414602e-05,-7.354826012e-04,-2.365577165e-04,-9.720403177e-04,-8.379530825e-05,-2.073860755e-04,-2.911813837e-04,-1.411649505e-03,-2.996355821e-04,-1.711285087e-03,-4.684451379e-04,-3.274008989e-04,-7.958460368e-04,-1.039425534e-03,6.051016588e-05,-9.789153679e-04,-6.117223529e-04,-2.776573184e-04,-8.893796713e-04,-2.842796783e-03,-3.117662578e-04,-3.154563041e-03,-2.031726088e-03,2.131948997e-04,-1.818531188e-03,-3.014987242e-03,-8.993480293e-05,-3.104922045e-03,-1.446203204e-03,1.750900174e-05,-1.428694203e-03,-1.828046282e-03,3.626434992e-05,-1.791781932e-03,1.428220688e-03,-1.663524590e-03,-2.353039029e-04
