Time,S1D1HbO,S1D1HbR,S1D1HbT,S2D2HbO,S2D2HbR,S2D2HbT,S3D3HbO,S3D3HbR,S3D3HbT,S4D4HbO,S4D4HbR,S4D4HbT,S5D5HbO,S5D5HbR,S5D5HbT,S6D6HbO,S6D6HbR,S6D6HbT,S7D7HbO,S7D7HbR,S7D7HbT,S8D8HbO,S8D8HbR,S8D8HbT,S9D9HbO,S9D9HbR,S9D9HbT,S10D10HbO,S10D10HbR,S10D10HbT,S11D11HbO,S11D11HbR,S11D11HbT,S12D12HbO,S12D12HbR,S12D12HbT,S13D13HbO,S13D13HbR,S13D13HbT,S14D14HbO,S14D14HbR,S14D14HbT,S15D15HbO,S15D15HbR,S15D15HbT,S16D16HbO,S16D16HbR,S16D16HbT,S17D17HbO,S17D17HbR,S17D17HbT,S18D18HbO,S18D18HbR,S18D18HbT,S19D19HbO,S19D19HbR,S19D19HbT,S20D20HbO,S20D20HbR,S20D20HbT,S21D21HbO,S21D21HbR,S21D21HbT,S22D22HbO,S22D22HbR,S22D22HbT,S23D23HbO,S23D23HbR,S23D23HbT,S24D24HbO,S24D24HbR,S24D24HbT,S25D25HbO,S25D25HbR,S25D25HbT,S26D26HbO,S26D26HbR,S26D26HbT,S27D27HbO,S27D27HbR,S27D27HbT,S28D28HbO,S28D28HbR,S28D28HbT,S29D29HbO,S29D29HbR,S29D29HbT,S30D30HbO,S30D30HbR,S30D30HbT,S31D31HbO,S31D31HbR,S31D31HbT,S32D32HbO,S32D32HbR,S32D32HbT,S33D33HbO,S33D33HbR,S33D33HbT,S34D34HbO,S34D34HbR,S34D34HbT,S35D35HbO,S35D35HbR,S35D35HbT,S36D36HbO,S36D36HbR,S36D36HbT,
-10,-1.100077687e-03,1.171645659e-04,-9.829131209e-04,-1.242389705e-03,-9.383301842e-05,-1.336222724e-03,4.801115831e-05,-3.416384634e-05,1.384731197e-05,-6.275064229e-04,1.998501599e-05,-6.075214069e-04,3.960565788e-04,-2.076152013e-05,3.752950587e-04,-9.876068605e-04,-1.232992248e-04,-1.110906085e-03,-1.278246455e-04,-1.142123244e-04,-2.420369699e-04,-3.941165976e-05,6.262075552e-05,2.320909576e-05,3.157511076e-04,-2.746943746e-05,2.882816702e-04,1.474842271e-03,-1.022577859e-04,1.372584485e-03,5.826583050e-04,3.893571656e-05,6.215940216e-04,1.316364324e-03,-2.973918770e-04,1.018972447e-03,-4.679588134e-04,-2.278552876e-04,-6.958141010e-04,9.711922632e-04,-1.237403525e-04,8.474519107e-04,-3.024619445e-04,1.460465840e-04,-1.564153605e-04,3.536057033e-04,-7.653918250e-05,2.770665208e-04,-3.772453825e-04,1.962997082e-05,-3.576154117e-04,-1.697416360e-03,5.086233484e-04,-1.188793012e-03,-2.144844228e-03,4.721069192e-04,-1.672737308e-03,1.262523475e-03,4.264343921e-05,1.305166914e-03,6.003544487e-04,9.885783202e-05,6.992122807e-04,4.437234724e-04,-1.556650515e-04,2.880584209e-04,2.204138747e-05,-9.301593905e-05,-7.097455158e-05,-3.252646605e-04,-1.523675379e-04,-4.776321984e-04,-2.304053648e-04,2.718365192e-04,4.143115439e-05,-2.841385245e-04,-1.482706049e-04,-4.324091294e-04,-2.046679241e-03,8.138659539e-04,-1.232813287e-03,3.400247719e-04,-3.841817737e-05,3.016065945e-04,-4.634172376e-05,-1.757959246e-04,-2.221376483e-04,6.234610882e-04,-1.721304606e-04,4.513306276e-04,-1.395067014e-04,-1.583696076e-04,-2.978763090e-04,-1.104259902e-04,5.270323049e-05,-5.772275966e-05,-1.704726791e-03,4.155998042e-04,-1.289126987e-03,-1.120922486e-03,4.256468981e-04,-6.952755880e-04,-1.304470510e-03,3.695910034e-04,-9.348795068e-04,4.070411947e-04,1.715149412e-04,5.785561358e-04
-9.9,-1.118682775e-03,1.203662145e-04,-9.983165603e-04,-1.280394318e-03,-9.447410398e-05,-1.374868422e-03,8.432759850e-05,-3.609503389e-05,4.823256461e-05,-5.982926974e-04,1.890322162e-05,-5.793894758e-04,4.078398098e-04,-1.623119135e-05,3.916086185e-04,-9.712231465e-04,-1.139533430e-04,-1.085176490e-03,-1.232780837e-04,-1.050635737e-04,-2.283416574e-04,1.346215559e-05,5.910983847e-05,7.257199406e-05,3.294198927e-04,-2.730804352e-05,3.021118492e-04,1.478519025e-03,-1.031782692e-04,1.375340756e-03,5.931510301e-04,3.987172719e-05,6.330227573e-04,1.339284721e-03,-2.969020400e-04,1.042382681e-03,-3.837943703e-04,-2.187507619e-04,-6.025451322e-04,9.978483101e-04,-1.265718742e-04,8.712764359e-04,-2.722971085e-04,1.391477842e-04,-1.331493242e-04,4.186194950e-04,-8.021642841e-05,3.384030666e-04,-2.588213920e-04,-1.583581606e-06,-2.604049736e-04,-1.610615814e-03,5.065207469e-04,-1.104095067e-03,-2.075954211e-03,4.588666383e-04,-1.617087573e-03,1.264292585e-03,4.338991246e-05,1.307682498e-03,6.265023029e-04,9.474938209e-05,7.212516850e-04,4.770177966e-04,-1.605651216e-04,3.164526750e-04,4.862244302e-05,-9.200533298e-05,-4.338288997e-05,-2.968380711e-04,-1.520830958e-04,-4.489211669e-04,-1.810174695e-04,2.662024826e-04,8.518501311e-05,-2.497257496e-04,-1.581637317e-04,-4.078894812e-04,-1.983716905e-03,8.071145041e-04,-1.176602401e-03,3.815692269e-04,-5.524755426e-05,3.263216727e-04,-1.743443318e-05,-1.738509559e-04,-1.912853891e-04,6.924618748e-04,-1.740919120e-04,5.183699629e-04,-1.178426606e-04,-1.230505881e-04,-2.408932487e-04,-2.309314424e-05,3.984012271e-05,1.674697847e-05,-1.627802408e-03,3.955067189e-04,-1.232295689e-03,-1.070171318e-03,4.104974214e-04,-6.596738961e-04,-1.239491308e-03,3.573330194e-04,-8.821582891e-04,3.674814210e-04,2.794599613e-04,6.469413823e-04
-9.8,-1.132959678e-03,1.234414613e-04,-1.009518217e-03,-1.313001425e-03,-9.472764019e-05,-1.407729065e-03,1.201791776e-04,-3.782693225e-05,8.235224539e-05,-5.669395185e-04,1.780436007e-05,-5.491351584e-04,4.197287921e-04,-1.203391636e-05,4.076948758e-04,-9.524469770e-04,-1.048078337e-04,-1.057254811e-03,-1.182355201e-04,-9.598135182e-05,-2.142168719e-04,6.495930249e-05,5.548906080e-05,1.204483633e-04,3.433302244e-04,-2.723409171e-05,3.160961327e-04,1.480279902e-03,-1.041775511e-04,1.376102351e-03,6.037352742e-04,4.063350246e-05,6.443687767e-04,1.359213876e-03,-2.951582941e-04,1.064055582e-03,-2.990973682e-04,-2.105066658e-04,-5.096040340e-04,1.023962181e-03,-1.293982653e-04,8.945639159e-04,-2.409087471e-04,1.318797767e-04,-1.090289705e-04,4.827643207e-04,-8.415138573e-05,3.986129350e-04,-1.415303438e-04,-2.339223537e-05,-1.649225791e-04,-1.520321415e-03,5.008218670e-04,-1.019499548e-03,-2.005625705e-03,4.432332440e-04,-1.562392461e-03,1.264731888e-03,4.372937863e-05,1.308461267e-03,6.519616036e-04,9.061435086e-05,7.425759544e-04,5.094639994e-04,-1.652281745e-04,3.442358249e-04,7.471982367e-05,-9.096584928e-05,-1.624602561e-05,-2.681563412e-04,-1.513345058e-04,-4.194908470e-04,-1.319511817e-04,2.601555095e-04,1.282043278e-04,-2.167564913e-04,-1.661845418e-04,-3.829410331e-04,-1.917680830e-03,7.958000732e-04,-1.121880757e-03,4.189348379e-04,-6.967599990e-05,3.492588380e-04,1.084008958e-05,-1.708503056e-04,-1.600102160e-04,7.589763926e-04,-1.749391859e-04,5.840372067e-04,-9.688370577e-05,-8.782258460e-05,-1.847062904e-04,6.433572684e-05,2.715010398e-05,9.148583082e-05,-1.550943500e-03,3.749919608e-04,-1.175951540e-03,-1.018047161e-03,3.931454073e-04,-6.249017537e-04,-1.171469158e-03,3.431391163e-04,-8.283300416e-04,3.275674735e-04,3.860700470e-04,7.136375204e-04
-9.7,-1.142752800e-03,1.264032567e-04,-1.016349543e-03,-1.340147184e-03,-9.460225738e-05,-1.434749442e-03,1.554917742e-04,-3.935944589e-05,1.161323283e-04,-5.335190992e-04,1.669666538e-05,-5.168224338e-04,4.317067347e-04,-8.173154339e-06,4.235335803e-04,-9.314472444e-04,-9.585176093e-05,-1.027299005e-03,-1.126792758e-04,-8.700249542e-05,-1.996817713e-04,1.149241442e-04,5.173728747e-05,1.666614316e-04,3.574501836e-04,-2.724599273e-05,3.302041908e-04,1.480087551e-03,-1.052752512e-04,1.374812300e-03,6.144055301e-04,4.119963873e-05,6.556051689e-04,1.376082894e-03,-2.921839658e-04,1.083898928e-03,-2.141648470e-04,-2.032795252e-04,-4.174443722e-04,1.049474817e-03,-1.322191369e-04,9.172556803e-04,-2.082443488e-04,1.241872383e-04,-8.405711050e-05,5.459445842e-04,-8.835218216e-05,4.575924021e-04,-2.585583495e-05,-4.553448812e-05,-7.139032307e-05,-1.426874328e-03,4.915933155e-04,-9.352810126e-04,-1.933985774e-03,4.254290923e-04,-1.508556682e-03,1.263812939e-03,4.364788044e-05,1.307460819e-03,6.766977671e-04,8.645972958e-05,7.631574966e-04,5.409693208e-04,-1.696396149e-04,3.713297059e-04,1.002630560e-04,-8.988895703e-05,1.037409897e-05,-2.393834701e-04,-1.501399064e-04,-3.895233765e-04,-8.318288708e-05,2.536734171e-04,1.704905300e-04,-1.852524951e-04,-1.722784036e-04,-3.575308986e-04,-1.848518130e-03,7.798981596e-04,-1.068619970e-03,4.520474437e-04,-8.159329552e-05,3.704541481e-04,3.851529170e-05,-1.668775224e-04,-1.283622307e-04,8.229171699e-04,-1.746904045e-04,6.482267654e-04,-7.621098378e-05,-5.332145053e-05,-1.295324343e-04,1.515499620e-04,1.472162281e-05,1.662715848e-04,-1.474366059e-03,3.541908589e-04,-1.120175200e-03,-9.644643104e-04,3.737189954e-04,-5.907453150e-04,-1.100732464e-03,3.271151923e-04,-7.736172720e-04,2.883319998e-04,4.903765334e-04,7.787085332e-04
-9.6,-1.147943887e-03,1.292649940e-04,-1.018678893e-03,-1.361808498e-03,-9.410847822e-05,-1.455916976e-03,1.901850496e-04,-4.069202226e-05,1.494930274e-04,-4.981271429e-04,1.558899662e-05,-4.825381463e-04,4.437418697e-04,-4.648877152e-06,4.390929925e-04,-9.084109612e-04,-8.706923110e-05,-9.954801923e-04,-1.066050925e-04,-7.816287495e-05,-1.847679674e-04,1.632004040e-04,4.783317490e-05,2.110335789e-04,3.717359784e-04,-2.734071705e-05,3.443952613e-04,1.477896555e-03,-1.064882907e-04,1.371408264e-03,6.251401431e-04,4.155164258e-05,6.666917857e-04,1.389842464e-03,-2.880219654e-04,1.101820498e-03,-1.294275307e-04,-1.971357222e-04,-3.265632529e-04,1.074301583e-03,-1.350241778e-04,9.392774051e-04,-1.743110228e-04,1.160320248e-04,-5.827899802e-05,6.080612508e-04,-9.282175430e-05,5.152394965e-04,8.772875778e-05,-6.776137419e-05,1.996738359e-05,-1.330693226e-03,4.789876867e-04,-8.517055391e-04,-1.861246273e-03,4.057181056e-04,-1.455528167e-03,1.261490491e-03,4.313773727e-05,1.304628228e-03,7.006660263e-04,8.229136751e-05,7.829573938e-04,5.714379703e-04,-1.737848464e-04,3.976531239e-04,1.251826653e-04,-8.876789157e-05,3.641477378e-05,-2.106867624e-04,-1.485173971e-04,-3.592041595e-04,-3.470189389e-05,2.467361336e-04,2.120342397e-04,-1.552214081e-04,-1.764133694e-04,-3.316347776e-04,-1.776232027e-03,7.594440529e-04,-1.016787974e-03,4.808875967e-04,-9.094232408e-05,3.899452726e-04,6.561893596e-05,-1.620325402e-04,-9.641360423e-05,8.841953888e-04,-1.733780674e-04,7.108173214e-04,-5.542964865e-05,-2.015926670e-05,-7.558891535e-05,2.382234345e-04,2.636391857e-06,2.408598263e-04,-1.398288507e-03,3.332406909e-04,-1.065047816e-03,-9.093494616e-04,3.523771521e-04,-5.569723095e-04,-1.027680594e-03,3.094067077e-04,-7.182738864e-04,2.507268279e-04,5.914978374e-04,8.422246653e-04
-9.5,-1.148452027e-03,1.320401602e-04,-1.016411866e-03,-1.378000128e-03,-9.325908719e-05,-1.471259215e-03,2.241743589e-04,-4.182365824e-05,1.823507007e-04,-4.608806311e-04,1.449046113e-05,-4.463901700e-04,4.557902317e-04,-1.457854826e-06,4.543323769e-04,-8.835373714e-04,-7.844204105e-05,-9.619794124e-04,-1.000197727e-04,-6.949769415e-05,-1.695174668e-04,2.096337507e-04,4.375622646e-05,2.533899772e-04,3.861361000e-04,-2.751398425e-05,3.586221157e-04,1.473658523e-03,-1.078308325e-04,1.365827691e-03,6.359057966e-04,4.167403071e-05,6.775798273e-04,1.400462897e-03,-2.827340678e-04,1.117728829e-03,-4.543816172e-05,-1.920576569e-04,-2.374958186e-04,1.098335724e-03,-1.377933415e-04,9.605423825e-04,-1.391708130e-04,1.073936341e-04,-3.177717896e-05,6.690139321e-04,-9.755803063e-05,5.714559014e-04,1.987705317e-04,-8.984256072e-05,1.089279710e-04,-1.232265657e-03,4.632415552e-04,-7.690241022e-04,-1.787686107e-03,3.843920904e-04,-1.403294017e-03,1.257707153e-03,4.219705287e-05,1.299904206e-03,7.238137764e-04,7.811371290e-05,8.019274893e-04,6.007756053e-04,-1.776495727e-04,4.231260326e-04,1.494124138e-04,-8.759772039e-05,6.181469339e-05,-1.822317473e-04,-1.464850940e-04,-3.287168413e-04,1.348975548e-05,2.393280902e-04,2.528178457e-04,-1.266531070e-04,-1.785812244e-04,-3.052343314e-04,-1.700879997e-03,7.345351299e-04,-9.663448674e-04,5.054961554e-04,-9.772158085e-05,4.077745745e-04,9.217521015e-05,-1.564293441e-04,-6.425413395e-05,9.427237485e-04,-1.710474753e-04,7.716762732e-04,-3.418182274e-05,1.109748675e-05,-2.308433599e-05,3.240247980e-04,-9.035760055e-06,3.149890380e-04,-1.322923962e-03,3.122779144e-04,-1.010646047e-03,-8.526410466e-04,3.293076201e-04,-5.233334265e-04,-9.527680609e-04,2.901928317e-04,-6.625752293e-04,2.156353868e-04,6.886307098e-04,9.042660966e-04
-9.4,-1.144232782e-03,1.347419701e-04,-1.009490812e-03,-1.388770927e-03,-9.206934508e-05,-1.480840272e-03,2.573730508e-04,-4.275298092e-05,2.146200699e-04,-4.219147699e-04,1.341002304e-05,-4.085047469e-04,4.677990863e-04,1.405981314e-06,4.692050676e-04,-8.570321602e-04,-6.995220021e-05,-9.269843604e-04,-9.293816321e-05,-6.104169042e-05,-1.539798536e-04,2.540753720e-04,3.948769922e-05,2.935630712e-04,4.005954006e-04,-2.776058588e-05,3.728348148e-04,1.467327274e-03,-1.093143520e-04,1.358012922e-03,6.466620004e-04,4.155427225e-05,6.882162726e-04,1.407933471e-03,-2.763986812e-04,1.131534789e-03,3.715013464e-05,-1.879511757e-04,-1.508010410e-04,1.121453114e-03,-1.404981507e-04,9.809549635e-04,-1.029331689e-04,9.826774382e-05,-4.665425043e-06,7.287034439e-04,-1.025542145e-04,6.261492294e-04,3.068480676e-04,-1.115708279e-04,1.952772397e-04,-1.132138998e-03,4.446716623e-04,-6.874673359e-04,-1.713628229e-03,3.617553878e-04,-1.351872841e-03,1.252398513e-03,4.082903957e-05,1.293227553e-03,7.460832165e-04,7.392962185e-05,8.200128383e-04,6.288934814e-04,-1.812200001e-04,4.476734813e-04,1.728911604e-04,-8.637541755e-05,8.651574287e-05,-1.541772463e-04,-1.440609030e-04,-2.982381493e-04,6.137833955e-05,2.314407599e-04,2.928190995e-04,-9.951595183e-05,-1.787985284e-04,-2.783144802e-04,-1.622570501e-03,7.053317842e-04,-9.172387170e-04,5.259785478e-04,-1.019866527e-04,4.239918951e-04,1.182070377e-04,-1.501936640e-04,-3.198662631e-05,9.984188126e-04,-1.677541721e-04,8.306646405e-04,-1.215710347e-05,3.994722002e-05,2.779011655e-05,4.086249864e-04,-2.024053174e-05,3.883844546e-04,-1.248470883e-03,2.914343539e-04,-9.570365287e-04,-7.942878031e-04,3.047243283e-04,-4.895634749e-04,-8.764867582e-04,2.696797834e-04,-6.068069748e-04,1.838735620e-04,7.810412052e-04,9.649147672e-04
-9.3,-1.135277263e-03,1.373828888e-04,-9.978943742e-04,-1.394200147e-03,-9.055707386e-05,-1.484757221e-03,2.896941228e-04,-4.347846033e-05,2.462156625e-04,-3.813803273e-04,1.235610161e-05,-3.690242256e-04,4.797094794e-04,3.951118385e-06,4.836605978e-04,-8.291032503e-04,-6.158372058e-05,-8.906869709e-04,-8.538076740e-05,-5.282917331e-05,-1.382099407e-04,2.963852159e-04,3.501152367e-05,3.313967395e-04,4.150573806e-04,-2.807475627e-05,3.869826243e-04,1.458862268e-03,-1.109476962e-04,1.347914571e-03,6.573636669e-04,4.118268975e-05,6.985463566e-04,1.412259673e-03,-2.691077603e-04,1.143151912e-03,1.176111617e-04,-1.846525498e-04,-6.704138818e-05,1.143516667e-03,-1.431036693e-04,1.000412998e-03,-6.574745060e-05,8.866375582e-05,2.291630521e-05,7.870328527e-04,-1.077984406e-04,6.792344121e-04,4.115812006e-04,-1.327645126e-04,2.788166881e-04,-1.030912018e-03,4.236676713e-04,-6.072443470e-04,-1.639415881e-03,3.381097746e-04,-1.301306107e-03,1.245497332e-03,3.904126664e-05,1.284538599e-03,7.674133347e-04,6.974029682e-05,8.371536315e-04,6.557112504e-04,-1.844829377e-04,4.712283127e-04,1.955637457e-04,-8.509998274e-05,1.104637630e-04,-1.266715135e-04,-1.412620790e-04,-2.679335925e-04,1.089396229e-04,2.230745196e-04,3.320141425e-04,-7.375555773e-05,-1.771075789e-04,-2.508631366e-04,-1.541458333e-03,6.720559177e-04,-8.694024156e-04,5.425064398e-04,-1.038506397e-04,4.386558001e-04,1.437376110e-04,-1.434607193e-04,2.768916827e-07,1.051200977e-03,-1.635603172e-04,8.876406595e-04,1.089679009e-05,6.597076983e-05,7.686755992e-05,4.917012721e-04,-3.094111598e-05,4.607601561e-04,-1.175106219e-03,2.708330745e-04,-9.042731450e-04,-7.342484228e-04,2.788643445e-04,-4.553840782e-04,-7.993488097e-04,2.480942566e-04,-5.512545531e-04,1.561743846e-04,8.680628339e-04,1.024237218e-03
-9.2,-1.121611655e-03,1.399739637e-04,-9.816376918e-04,-1.394394517e-03,-8.874265373e-05,-1.483137171e-03,3.210506635e-04,-4.399870544e-05,2.770519580e-04,-3.394422246e-04,1.133619994e-05,-3.281060246e-04,4.914570776e-04,6.188049530e-06,4.976451271e-04,-7.999588145e-04,-5.332353028e-05,-8.532823448e-04,-7.737285216e-05,-4.489384630e-05,-1.222666985e-04,3.364339469e-04,3.031528261e-05,3.667492295e-04,4.294639493e-04,-2.845050789e-05,4.010134414e-04,1.448229418e-03,-1.127370310e-04,1.335492387e-03,6.679609574e-04,4.055241402e-05,7.085133714e-04,1.413458721e-03,-2.609640681e-04,1.152494653e-03,1.951751879e-04,-1.819358086e-04,1.323937933e-05,1.164379259e-03,-1.455705009e-04,1.018808758e-03,-2.779716409e-05,7.860180261e-05,5.080463852e-05,8.439058893e-04,-1.132724039e-04,7.306334854e-04,5.126375964e-04,-1.532680224e-04,3.593695740e-04,-9.292254821e-04,4.006800365e-04,-5.285454456e-04,-1.565394065e-03,3.137437293e-04,-1.251650336e-03,1.236936210e-03,3.684474417e-05,1.273780954e-03,7.877407760e-04,6.554528371e-05,8.532860597e-04,6.811579852e-04,-1.874258697e-04,4.937321155e-04,2.173807627e-04,-8.377257907e-05,1.336081836e-04,-9.984990202e-05,-1.381047166e-04,-2.379546186e-04,1.561393354e-04,2.142396922e-04,3.703790276e-04,-4.929734123e-05,-1.735769171e-04,-2.228742583e-04,-1.457739088e-03,6.349865167e-04,-8.227525713e-04,5.553151854e-04,-1.034821009e-04,4.518330845e-04,1.687905031e-04,-1.363726078e-04,3.241789523e-05,1.100992096e-03,-1.585307476e-04,9.424613482e-04,3.516207801e-05,8.884710376e-05,1.240091818e-04,5.729402783e-04,-4.111980431e-05,5.318204740e-04,-1.102983953e-03,2.505854067e-04,-8.523985466e-04,-6.724948613e-04,2.519849733e-04,-4.205098881e-04,-7.218715925e-04,2.256772735e-04,-4.961943190e-04,1.331674854e-04,9.490997299e-04,1.082267215e-03
-9.1,-1.103297462e-03,1.425240531e-04,-9.607734092e-04,-1.389486367e-03,-8.664887608e-05,-1.476135243e-03,3.513550669e-04,-4.431274255e-05,3.070423243e-04,-2.962796023e-04,1.035663267e-05,-2.859229697e-04,5.029712873e-04,8.128941904e-06,5.111002292e-04,-7.698073061e-04,-4.516181863e-05,-8.149691247e-04,-6.894522865e-05,-3.726843716e-05,-1.062136658e-04,3.741036429e-04,2.539092867e-05,3.994945715e-04,4.437529031e-04,-2.888190654e-05,4.148709965e-04,1.435399458e-03,-1.146856687e-04,1.320713789e-03,6.783966938e-04,3.965940958e-05,7.180561034e-04,1.411554919e-03,-2.520793920e-04,1.159475527e-03,2.690574812e-04,-1.795217420e-04,8.953573917e-05,1.183884978e-03,-1.478565069e-04,1.036028471e-03,1.070434697e-05,6.810899042e-05,7.881333738e-05,8.992229660e-04,-1.189493532e-04,7.802736128e-04,6.097352563e-04,-1.729511476e-04,4.367841086e-04,-8.277505973e-04,3.762034196e-04,-4.515471776e-04,-1.491899887e-03,2.889292669e-04,-1.202970620e-03,1.226648805e-03,3.425282543e-05,1.260901631e-03,8.069995905e-04,6.134248203e-05,8.683420725e-04,7.051715541e-04,-1.900370340e-04,5.151345201e-04,2.382974258e-04,-8.239658238e-05,1.559008434e-04,-7.383402853e-05,-1.346032829e-04,-2.084373114e-04,2.029321058e-04,2.049573222e-04,4.078894280e-04,-2.605277118e-05,-1.683007113e-04,-1.943534825e-04,-1.371644711e-03,5.944539294e-04,-7.771907819e-04,5.646959221e-04,-1.010992406e-04,4.635966815e-04,1.933880806e-04,-1.290751246e-04,6.431295602e-05,1.147711905e-03,-1.527295408e-04,9.949823638e-04,6.073956430e-05,1.083644783e-04,1.691040426e-04,6.520421796e-04,-5.078024293e-05,6.012619367e-04,-1.032238895e-03,2.307898523e-04,-8.014490425e-04,-6.090207933e-04,2.243615858e-04,-3.846592076e-04,-6.445659317e-04,2.026787223e-04,-4.418872094e-04,1.153659429e-04,1.023628276e-03,1.138994219e-03
-9,-1.080432318e-03,1.450391444e-04,-9.353931734e-04,-1.379632742e-03,-8.430054567e-05,-1.463933287e-03,3.805174086e-04,-4.442023514e-05,3.360971735e-04,-2.520869396e-04,9.422380420e-06,-2.426645592e-04,5.141732345e-04,9.787402989e-06,5.239606375e-04,-7.388587719e-04,-3.709218743e-05,-7.759509593e-04,-6.013623981e-05,-2.998425526e-05,-9.012049507e-05,4.092878115e-04,2.023482234e-05,4.295226339e-04,4.578541080e-04,-2.936328437e-05,4.284908237e-04,1.420344847e-03,-1.167938205e-04,1.303551027e-03,6.886024655e-04,3.850254492e-05,7.271050104e-04,1.406576014e-03,-2.425731951e-04,1.164002819e-03,3.384840117e-04,-1.770901403e-04,1.613938713e-04,1.201869458e-03,-1.499184212e-04,1.051951037e-03,4.951750021e-05,5.721521706e-05,1.067327173e-04,9.528759501e-04,-1.247923226e-04,8.280836276e-04,7.026415040e-04,-1.917076785e-04,5.109338256e-04,-7.271761167e-04,3.507574961e-04,-3.764186206e-04,-1.419260801e-03,2.639246751e-04,-1.155336126e-03,1.214570056e-03,3.128018839e-05,1.245850245e-03,8.251201913e-04,5.712825999e-05,8.822484513e-04,7.276968965e-04,-1.923054504e-04,5.353914461e-04,2.582720247e-04,-8.097742014e-05,1.772946046e-04,-4.873200449e-05,-1.307702531e-04,-1.795022576e-04,2.492585338e-04,1.952600374e-04,4.445185711e-04,-3.928305428e-06,-1.613965891e-04,-1.653248945e-04,-1.283441953e-03,5.508349861e-04,-7.326069668e-04,5.709826668e-04,-9.696104660e-05,4.740216202e-04,2.175485747e-04,-1.217142899e-04,9.583428476e-05,1.191274683e-03,-1.462174147e-04,1.045057268e-03,8.764132574e-05,1.244232568e-04,2.120645825e-04,7.287259629e-04,-5.995020263e-05,6.687757603e-04,-9.629930525e-04,2.115319357e-04,-7.514611168e-04,-5.438533963e-04,1.962855009e-04,-3.475678954e-04,-5.679281321e-04,1.793528642e-04,-3.885752679e-04,1.031646631e-04,1.091194415e-03,1.194359078e-03
-8.9,-1.053150825e-03,1.475218712e-04,-9.056289537e-04,-1.365015061e-03,-8.172386181e-05,-1.446738923e-03,4.084436821e-04,-4.432169122e-05,3.641219909e-04,-2.070752698e-04,8.537025931e-06,-1.985382439e-04,5.249735876e-04,1.117830318e-05,5.361518908e-04,-7.073262909e-04,-2.911174830e-05,-7.364380392e-04,-5.099400832e-05,-2.307078858e-05,-7.406479690e-05,4.418911627e-04,1.484712996e-05,4.567382927e-04,4.716859062e-04,-2.988936672e-05,4.417965395e-04,1.403036765e-03,-1.190583169e-04,1.283978448e-03,6.984950936e-04,3.708368749e-05,7.355787811e-04,1.398551057e-03,-2.325707586e-04,1.165980298e-03,4.027139812e-04,-1.742953053e-04,2.284186759e-04,1.218160480e-03,-1.517135682e-04,1.066446912e-03,8.837976410e-05,4.594978851e-05,1.343295526e-04,1.004743008e-03,-1.307531451e-04,8.739898631e-04,7.911698929e-04,-2.094531119e-04,5.817167810e-04,-6.281954224e-04,3.248671518e-04,-3.033282705e-04,-1.347797075e-03,2.389785336e-04,-1.108818542e-03,1.200636186e-03,2.794222526e-05,1.228578411e-03,8.420281598e-04,5.289779781e-05,8.949259576e-04,7.486840793e-04,-1.942208145e-04,5.544632647e-04,2.772646680e-04,-7.952215299e-05,1.977425150e-04,-2.463899806e-05,-1.266159181e-04,-1.512549162e-04,2.950411283e-04,1.851927380e-04,4.802338663e-04,1.716494909e-05,-1.530022018e-04,-1.358372527e-04,-1.193432317e-03,5.045485758e-04,-6.888837411e-04,5.745363215e-04,-9.135725151e-05,4.831790700e-04,2.412828652e-04,-1.144330172e-04,1.268498479e-04,1.231587388e-03,-1.390498745e-04,1.092537514e-03,1.157902296e-04,1.370290103e-04,2.528192399e-04,8.027336463e-04,-6.868357364e-05,7.340500726e-04,-8.953621744e-04,1.928844171e-04,-7.024777573e-04,-4.770645316e-04,1.680604881e-04,-3.090040435e-04,-4.924352760e-04,1.559547310e-04,-3.364805450e-04,9.684670649e-05,1.151408333e-03,1.248255039e-03
-8.8,-1.021624593e-03,1.499712152e-04,-8.716533782e-04,-1.345838516e-03,-7.894577613e-05,-1.424784292e-03,4.350347877e-04,-4.401869304e-05,3.910160946e-04,-1.614723002e-04,7.702708321e-06,-1.537695919e-04,5.352714475e-04,1.231760799e-05,5.475890554e-04,-6.754263222e-04,-2.122105939e-05,-6.966473816e-04,-4.157779250e-05,-1.655535259e-05,-5.813314509e-05,4.718294461e-04,9.231065983e-06,4.810605121e-04,4.851534764e-04,-3.045529641e-05,4.546981800e-04,1.383443870e-03,-1.214723390e-04,1.261971531e-03,7.079752652e-04,3.540780555e-05,7.433830707e-04,1.387509991e-03,-2.222003408e-04,1.165309650e-03,4.610586931e-04,-1.707815348e-04,2.902771583e-04,1.232579943e-03,-1.532015843e-04,1.079378358e-03,1.270096609e-04,3.433971117e-05,1.613493720e-04,1.054684987e-03,-1.367722853e-04,9.179127015e-04,8.751766006e-04,-2.261215381e-04,6.490550625e-04,-5.314929189e-04,2.990430385e-04,-2.324498805e-04,-1.277824972e-03,2.143318900e-04,-1.063493082e-03,1.184785647e-03,2.425489464e-05,1.209040542e-03,8.576437844e-04,4.864562902e-05,9.062894135e-04,7.680871705e-04,-1.957732667e-04,5.723139039e-04,2.952370586e-04,-7.803884345e-05,2.171982152e-04,-1.637282560e-06,-1.221484392e-04,-1.237857218e-04,3.401806329e-04,1.748126723e-04,5.149933051e-04,3.730328014e-05,-1.432711663e-04,-1.059678861e-04,-1.101949865e-03,4.560499021e-04,-6.458999629e-04,5.757289212e-04,-8.459835209e-05,4.911305691e-04,2.645926527e-04,-1.073683476e-04,1.572243052e-04,1.268550046e-03,-1.312757468e-04,1.137274299e-03,1.450271000e-04,1.462784285e-04,2.913055285e-04,8.738315602e-04,-7.705980160e-05,7.967717586e-04,-8.294614000e-04,1.749089364e-04,-6.545524636e-04,-4.087781693e-04,1.399973436e-04,-2.687808257e-04,-4.185417113e-04,1.327368970e-04,-2.858048143e-04,9.659107278e-05,1.203940161e-03,1.300531234e-03
-8.7,-9.860607334e-04,1.523823838e-04,-8.336783495e-04,-1.322330303e-03,-7.599349435e-05,-1.398323798e-03,4.601870679e-04,-4.351409967e-05,4.166729682e-04,-1.155204168e-04,6.920085774e-06,-1.086003310e-04,5.449554102e-04,1.322220439e-05,5.581776146e-04,-6.433771358e-04,-1.342376682e-05,-6.568009026e-04,-3.195745867e-05,-1.046274171e-05,-4.242020038e-05,4.990298534e-04,3.392418405e-06,5.024222719e-04,4.981503849e-04,-3.105659927e-05,4.670937857e-04,1.361534045e-03,-1.240252358e-04,1.237508809e-03,7.169295829e-04,3.348301723e-05,7.504126001e-04,1.373484827e-03,-2.115896825e-04,1.161895145e-03,5.128960065e-04,-1.661945445e-04,3.467014620e-04,1.244947965e-03,-1.543459509e-04,1.090602014e-03,1.651128929e-04,2.240956719e-05,1.875224601e-04,1.102544869e-03,-1.427793692e-04,9.597655002e-04,9.545575717e-04,-2.416626175e-04,7.128949542e-04,-4.377275324e-04,2.737626611e-04,-1.639648714e-04,-1.209657713e-03,1.902177793e-04,-1.019439934e-03,1.166962047e-03,2.023477292e-05,1.187196819e-03,8.718831121e-04,4.436619743e-05,9.162493096e-04,7.858646938e-04,-1.969531571e-04,5.889115367e-04,3.121536946e-04,-7.653580305e-05,2.356178916e-04,2.020477502e-05,-1.173741427e-04,-9.716936769e-05,3.845543012e-04,1.641888327e-04,5.487431340e-04,5.654616115e-05,-1.323688472e-04,-7.582268608e-05,-1.009355225e-03,4.058238667e-04,-6.035313582e-04,5.749317417e-04,-7.700602979e-05,4.979257119e-04,2.874713475e-04,-1.006495031e-04,1.868218444e-04,1.302059088e-03,-1.229359851e-04,1.179123103e-03,1.751246380e-04,1.523419803e-04,3.274666183e-04,9.418087604e-04,-8.517984225e-05,8.566289181e-04,-7.654085923e-04,1.576596518e-04,-6.077489405e-04,-3.391726797e-04,1.124074584e-04,-2.267652213e-04,-3.466740317e-04,1.099457983e-04,-2.367282334e-04,1.024774989e-04,1.248520603e-03,1.350998102e-03
-8.6,-9.466985092e-04,1.547469184e-04,-7.919515909e-04,-1.294736247e-03,-7.289412460e-05,-1.367630371e-03,4.837946199e-04,-4.281216388e-05,4.409824560e-04,-6.947222215e-05,6.188349406e-06,-6.328387274e-05,5.539071423e-04,1.390971442e-05,5.678168567e-04,-6.113951548e-04,-5.725974783e-06,-6.171211296e-04,-2.221073495e-05,-4.814870204e-06,-2.702560516e-05,5.234323794e-04,-2.660470489e-06,5.207719089e-04,5.105631413e-04,-3.168918044e-05,4.788739609e-04,1.337278940e-03,-1.267025286e-04,1.210576411e-03,7.252357984e-04,3.132048903e-05,7.565562874e-04,1.356511961e-03,-2.008626580e-04,1.155649303e-03,5.576805128e-04,-1.601879385e-04,3.974925743e-04,1.255088980e-03,-1.551152161e-04,1.099973764e-03,2.023907513e-04,1.018240364e-05,2.125731549e-04,1.148150791e-03,-1.486942830e-04,9.994565076e-04,1.029247000e-03,-2.560392209e-04,7.732077793e-04,-3.475131756e-04,2.494534490e-04,-9.805972653e-05,-1.143601924e-03,1.668582982e-04,-9.767436256e-04,1.147119102e-03,1.589902173e-05,1.163018124e-03,8.846606181e-04,4.005429306e-05,9.247149111e-04,8.019815391e-04,-1.977509017e-04,6.042306375e-04,3.279841486e-04,-7.502081952e-05,2.529633291e-04,4.083456734e-05,-1.122979065e-04,-7.146333918e-05,4.280168388e-04,1.534011238e-04,5.814179625e-04,7.493644604e-05,-1.204681608e-04,-4.553171475e-05,-9.160275896e-04,3.543799075e-04,-5.616476821e-04,5.725084676e-04,-6.890383875e-05,5.036046288e-04,3.099073121e-04,-9.439655715e-05,2.155107549e-04,1.332013934e-03,-1.140634267e-04,1.217950507e-03,2.058065347e-04,1.554454494e-04,3.612519841e-04,1.006474251e-03,-9.315948844e-05,9.133147627e-04,-7.033231480e-04,1.411870031e-04,-5.621361449e-04,-2.684779575e-04,8.559663030e-05,-1.828813272e-04,-2.772229017e-04,8.781697009e-05,-1.894059316e-04,1.144884958e-04,1.284947415e-03,1.399435910e-03
-8.5,-9.038045642e-04,1.570530513e-04,-7.467515128e-04,-1.263316163e-03,-6.967439003e-05,-1.332990553e-03,5.057527665e-04,-4.191859607e-05,4.638341704e-04,-2.358429683e-05,5.505321466e-06,-1.807897536e-05,5.620065630e-04,1.439827308e-05,5.764048361e-04,-5.796898721e-04,1.864602399e-06,-5.778252697e-04,-1.241891332e-05,3.695631816e-07,-1.204935014e-05,5.449918697e-04,-8.916269639e-06,5.360756001e-04,5.222770052e-04,-3.234939681e-05,4.899276084e-04,1.310659631e-03,-1.294861252e-04,1.181173506e-03,7.327693393e-04,2.893413911e-05,7.617034784e-04,1.336635254e-03,-1.901366314e-04,1.146498622e-03,5.949516854e-04,-1.524272642e-04,4.425244212e-04,1.262838509e-03,-1.554837341e-04,1.107354774e-03,2.385497559e-04,-2.319117788e-06,2.362306382e-04,1.191321554e-03,-1.544289100e-04,1.036892644e-03,1.099216822e-03,-2.692254617e-04,8.299913606e-04,-2.613993563e-04,2.264807498e-04,-3.491860646e-05,-1.079948575e-03,1.444596214e-04,-9.354889538e-04,1.125226355e-03,1.126525723e-05,1.136491612e-03,8.958927389e-04,3.570540389e-05,9.315981428e-04,8.164112428e-04,-1.981569048e-04,6.182543380e-04,3.427054560e-04,-7.350046991e-05,2.692049861e-04,6.021700827e-05,-1.069234816e-04,-4.670647331e-05,4.704034794e-04,1.425397602e-04,6.129432396e-04,9.250341323e-05,-1.077453701e-04,-1.524195686e-05,-8.223580279e-04,3.022493351e-04,-5.201086928e-04,5.688111778e-04,-6.060789204e-05,5.082032858e-04,3.318877462e-04,-8.871939646e-05,2.431683498e-04,1.358326013e-03,-1.046844915e-04,1.253641521e-03,2.367697155e-04,1.558507388e-04,3.926204542e-04,1.067654562e-03,-1.011220068e-04,9.665325554e-04,-6.433196489e-04,1.255390405e-04,-5.177806084e-04,-1.969686436e-04,5.985931377e-05,-1.371093298e-04,-2.105328242e-04,6.656975092e-05,-1.439630733e-04,1.325109883e-04,1.313094456e-03,1.445605444e-03
-8.4,-8.576676155e-04,1.592861988e-04,-6.983814167e-04,-1.228339060e-03,-6.636037050e-05,-1.294699430e-03,5.259615484e-04,-4.084065568e-05,4.851208927e-04,2.188932927e-05,4.867639978e-06,2.675696925e-05,5.691369669e-04,1.470625363e-05,5.838432205e-04,-5.484586878e-04,9.339765454e-06,-5.391189224e-04,-2.662365510e-06,5.075365241e-06,2.412999731e-06,5.636799489e-04,-1.535991567e-05,5.483200332e-04,5.331808535e-04,-3.303415389e-05,5.001466996e-04,1.281671235e-03,-1.323546480e-04,1.149316587e-03,7.394087513e-04,2.634022126e-05,7.657489726e-04,1.313909598e-03,-1.795206093e-04,1.134388988e-03,6.243442426e-04,-1.425949223e-04,4.817493203e-04,1.268048891e-03,-1.554317694e-04,1.112617121e-03,2.733113500e-04,-1.507197053e-05,2.582393795e-04,1.231872871e-03,-1.598897168e-04,1.071983154e-03,1.164475975e-03,-2.812048971e-04,8.832710784e-04,-1.798561688e-04,2.051425174e-04,2.528634863e-05,-1.018959082e-03,1.232050913e-04,-8.957539904e-04,1.101273853e-03,6.351520820e-06,1.107625373e-03,9.055011736e-04,3.131608041e-05,9.368172540e-04,8.291373347e-04,-1.981614953e-04,6.309758395e-04,3.563036221e-04,-7.197961845e-05,2.843240036e-04,7.833523193e-05,-1.012537248e-04,-2.291849289e-05,5.115341555e-04,1.317046906e-04,6.432388461e-04,1.092657426e-04,-9.437584072e-05,1.488990187e-05,-7.287465591e-04,2.499839569e-04,-4.787626021e-04,5.641760545e-04,-5.241782605e-05,5.117582285e-04,3.534016381e-04,-8.371696202e-05,2.696846761e-04,1.380928334e-03,-9.482317077e-05,1.286105163e-03,2.677068593e-04,1.538364816e-04,4.215433409e-04,1.125191165e-03,-1.091909655e-04,1.016000199e-03,-5.854989868e-04,1.107598727e-04,-4.747391142e-04,-1.249555729e-04,3.547254178e-05,-8.948303114e-05,-1.468933609e-04,4.640306538e-05,-1.004902955e-04,1.563384620e-04,1.332919534e-03,1.489257996e-03
-8.3,-8.085934745e-04,1.614294143e-04,-6.471640602e-04,-1.190079227e-03,-6.297730263e-05,-1.253056530e-03,5.443282705e-04,-3.958727955e-05,5.047409910e-04,6.670254260e-05,4.271043827e-06,7.097358642e-05,5.751887273e-04,1.485197006e-05,5.900406973e-04,-5.178829382e-04,1.669206063e-05,-5.011908776e-04,6.982825732e-06,9.291124174e-06,1.627394991e-05,5.794861640e-04,-2.197188266e-05,5.575142814e-04,5.431697218e-04,-3.374094088e-05,5.094287809e-04,1.250325052e-03,-1.352837420e-04,1.115041310e-03,7.450385381e-04,2.355692685e-05,7.685954650e-04,1.288404625e-03,-1.691141651e-04,1.119290460e-03,6.456038902e-04,-1.303978374e-04,5.152060528e-04,1.270592842e-03,-1.549450985e-04,1.115647744e-03,3.064206282e-04,-2.805257424e-05,2.783680540e-04,1.269622601e-03,-1.649810144e-04,1.104641587e-03,1.225067552e-03,-2.919689733e-04,9.330985786e-04,-1.032668727e-04,1.856699120e-04,8.240303929e-05,-9.608486115e-04,1.032469592e-04,-8.576016523e-04,1.075274587e-03,1.176479574e-06,1.076451066e-03,9.134151556e-04,2.688430542e-05,9.402994610e-04,8.401530124e-04,-1.977549106e-04,6.423981019e-04,3.687737125e-04,-7.046115519e-05,2.983125573e-04,9.518976916e-05,-9.529081641e-05,-1.010472425e-07,5.512182652e-04,1.210041682e-04,6.722224334e-04,1.252324209e-04,-8.053000778e-05,4.470241314e-05,-6.356022771e-04,1.981536390e-04,-4.374486381e-04,5.589175302e-04,-4.460900903e-05,5.143085211e-04,3.744410343e-04,-7.947686567e-05,2.949641687e-04,1.399783432e-03,-8.450674856e-05,1.315276683e-03,2.983259530e-04,1.496799349e-04,4.480058879e-04,1.178934954e-03,-1.174820056e-04,1.061452949e-03,-5.299414926e-04,9.688688255e-05,-4.330546101e-04,-5.277706796e-05,1.268870831e-05,-4.008835965e-05,-8.653508651e-05,2.749328112e-05,-5.904180540e-05,1.856739362e-04,1.344468981e-03,1.530142917e-03
-8.2,-7.569008957e-04,1.634637536e-04,-5.934371420e-04,-1.148813800e-03,-5.954942777e-05,-1.208363228e-03,5.607686923e-04,-3.816916831e-05,5.225995240e-04,1.106205422e-04,3.710789215e-06,1.143313314e-04,5.800610597e-04,1.485343045e-05,5.949144901e-04,-4.881255833e-04,2.391547627e-05,-4.642101071e-04,1.644641003e-05,1.300952306e-05,2.945593309e-05,5.924181629e-04,-2.872789664e-05,5.636902663e-04,5.521447646e-04,-3.446777477e-05,5.176769898e-04,1.216647919e-03,-1.382462911e-04,1.078401628e-03,7.495491310e-04,2.060409041e-05,7.701532214e-04,1.260207731e-03,-1.590070910e-04,1.101200640e-03,6.586066453e-04,-1.155782806e-04,5.430283647e-04,1.270364608e-03,-1.540145324e-04,1.116350075e-03,3.376535772e-04,-4.123702743e-05,2.964165497e-04,1.304393928e-03,-1.696084123e-04,1.134785516e-03,1.281062415e-03,-3.015156254e-04,9.795467892e-04,-3.192855455e-05,1.682312178e-04,1.363026633e-04,-9.057699725e-04,8.469875356e-05,-8.210712190e-04,1.047264362e-03,-4.240202819e-06,1.043024159e-03,9.195723938e-04,2.240979709e-05,9.419821909e-04,8.494590838e-04,-1.969274153e-04,6.525316685e-04,3.801185085e-04,-6.894595301e-05,3.111725555e-04,1.107962426e-04,-8.903653701e-05,2.175970561e-05,5.892599714e-04,1.105517139e-04,6.998116852e-04,1.404014872e-04,-6.636994231e-05,7.403154492e-05,-5.433427360e-04,1.473403227e-04,-3.960024133e-04,5.533210835e-04,-3.742658230e-05,5.158945012e-04,3.950003685e-04,-7.607516519e-05,3.189252033e-04,1.414887880e-03,-7.377201194e-05,1.341115869e-03,3.283636071e-04,1.436427398e-04,4.720063469e-04,1.228736096e-03,-1.260923586e-04,1.102643737e-03,-4.767055509e-04,8.394866987e-05,-3.927568811e-04,1.920930313e-05,-8.272824158e-06,1.093647897e-05,-2.963105851e-05,9.993378098e-06,-1.963768041e-05,2.201345667e-04,1.347877520e-03,1.568012087e-03
-8.1,-7.029184468e-04,1.653686808e-04,-5.375497661e-04,-1.104821869e-03,-5.609977138e-05,-1.160921640e-03,5.752069635e-04,-3.659875075e-05,5.386082127e-04,1.534212018e-04,3.182162379e-06,1.566033642e-04,5.836620487e-04,1.472820433e-05,5.983902531e-04,-4.593303924e-04,3.100512603e-05,-4.283252664e-04,2.566366674e-05,1.622769238e-05,4.189135912e-05,6.025010283e-04,-3.559938009e-05,5.669016482e-04,5.600112499e-04,-3.521307672e-05,5.247981732e-04,1.180679367e-03,-1.412125581e-04,1.039466809e-03,7.528346946e-04,1.750300551e-05,7.703377001e-04,1.229425032e-03,-1.492792413e-04,1.080145790e-03,6.633743608e-04,-9.792628143e-05,5.654480794e-04,1.267279207e-03,-1.526357341e-04,1.114643473e-03,3.668226301e-04,-5.460138918e-05,3.122212409e-04,1.336016457e-03,-1.736822796e-04,1.162334178e-03,1.332549620e-03,-3.098479350e-04,1.022701685e-03,3.394205988e-05,1.529361461e-04,1.868782060e-04,-8.538021902e-04,6.763093160e-05,-7.861712586e-04,1.017299437e-03,-9.877424936e-06,1.007422012e-03,9.239187514e-04,1.789427520e-05,9.418130266e-04,8.570605819e-04,-1.956695527e-04,6.613910291e-04,3.903461150e-04,-6.743294919e-05,3.229131658e-04,1.251819390e-04,-8.249267279e-05,4.268926616e-05,6.254634297e-04,1.004616895e-04,7.259251192e-04,1.547576564e-04,-5.204669918e-05,1.027109572e-04,-4.523897261e-04,9.812685365e-05,-3.542628724e-04,5.476351583e-04,-3.108102379e-05,5.165541345e-04,4.150735901e-04,-7.357570093e-05,3.414978891e-04,1.426272500e-03,-6.267047726e-05,1.363602023e-03,3.575900080e-04,1.359627754e-04,4.935527834e-04,1.274431615e-03,-1.350893171e-04,1.139342298e-03,-4.258321080e-04,7.196477384e-05,-3.538673341e-04,9.063428433e-05,-2.723406127e-05,6.340022306e-05,2.369778267e-05,-5.968182500e-06,1.772960016e-05,2.592556475e-04,1.343364259e-03,1.602619906e-03
-8,-6.469822566e-04,1.671226343e-04,-4.798596222e-04,-1.058384760e-03,-5.264973981e-05,-1.111034499e-03,5.875748028e-04,-3.489001595e-05,5.526847869e-04,1.948949395e-04,2.680951832e-06,1.975758914e-04,5.859076444e-04,1.449340570e-05,6.004010501e-04,-4.316223464e-04,3.795617334e-05,-3.936661731e-04,3.457382681e-05,1.894755146e-05,5.352137827e-05,6.097759982e-04,-4.255448538e-05,5.672215129e-04,5.666758217e-04,-3.597549088e-05,5.307003309e-04,1.142467775e-03,-1.441502971e-04,9.983174778e-04,7.547901241e-04,1.427632963e-05,7.690664537e-04,1.196179267e-03,-1.399995124e-04,1.056179755e-03,6.600790459e-04,-7.729025077e-05,5.827887951e-04,1.261270662e-03,-1.508093705e-04,1.110461291e-03,3.937793468e-04,-6.812095235e-05,3.256583944e-04,1.364326018e-03,-1.771212463e-04,1.187204772e-03,1.379625818e-03,-3.169731129e-04,1.062652705e-03,9.420123594e-05,1.398394027e-04,2.340406386e-04,-8.049467789e-04,5.207149902e-05,-7.528752799e-04,9.854528057e-04,-1.571212782e-05,9.697406779e-04,9.264070661e-04,1.334182700e-05,9.397488931e-04,8.629628116e-04,-1.939724283e-04,6.689903834e-04,3.994672018e-04,-6.591924120e-05,3.335479606e-04,1.383818686e-04,-7.566160655e-05,6.272026207e-05,6.596368463e-04,9.084461768e-05,7.504814640e-04,1.682701876e-04,-3.769852506e-05,1.305716625e-04,-3.631623120e-04,5.108117228e-05,-3.120811397e-04,5.420632109e-04,-2.574512022e-05,5.163180906e-04,4.346491424e-04,-7.202830852e-05,3.626208338e-04,1.433998679e-03,-5.127159993e-05,1.382727079e-03,3.858068287e-04,1.268512139e-04,5.126580425e-04,1.315834923e-03,-1.445001645e-04,1.171334758e-03,-3.773523605e-04,6.094674293e-05,-3.164056175e-04,1.611241472e-04,-4.406499670e-05,1.170591505e-04,7.337552116e-05,-2.028964548e-05,5.308587569e-05,3.024889336e-04,1.331229733e-03,1.633718667e-03
-7.9,-5.894341048e-04,1.687036737e-04,-4.207304311e-04,-1.009786753e-03,-4.921858656e-05,-1.059005340e-03,5.978106974e-04,-3.305824188e-05,5.647524555e-04,2.348440272e-04,2.203747304e-06,2.370477745e-04,5.867206949e-04,1.416574049e-05,6.008864354e-04,-4.051086354e-04,4.476251752e-05,-3.603461179e-04,4.311821574e-05,2.117609214e-05,6.429430788e-05,6.142989170e-04,-4.955924597e-05,5.647396710e-04,5.720446497e-04,-3.675362348e-05,5.352910262e-04,1.102067122e-03,-1.470248771e-04,9.550422452e-04,7.553089587e-04,1.094806314e-05,7.662570219e-04,1.160605272e-03,-1.312234881e-04,1.029381784e-03,6.490359549e-04,-5.358385333e-05,5.954521015e-04,1.252290373e-03,-1.485414119e-04,1.103748962e-03,4.184122610e-04,-8.176714023e-05,3.366451207e-04,1.389164150e-03,-1.798555493e-04,1.209308601e-03,1.422386074e-03,-3.229020089e-04,1.099484065e-03,1.487705916e-04,1.289447428e-04,2.777153344e-04,-7.591314186e-04,3.801126567e-05,-7.211201529e-04,9.518103717e-04,-2.171863929e-05,9.300917324e-04,9.269958708e-04,8.759419636e-06,9.357552904e-04,8.671678696e-04,-1.918279432e-04,6.753399265e-04,4.074927018e-04,-6.440012962e-05,3.430925721e-04,1.504351344e-04,-6.854712739e-05,8.188800705e-05,6.915951117e-04,8.180320021e-05,7.733983119e-04,1.808924228e-04,-2.345019395e-05,1.574422288e-04,-2.760691754e-04,6.738566543e-06,-2.693306089e-04,5.367576264e-04,-2.155300506e-05,5.152046214e-04,4.537040007e-04,-7.146567795e-05,3.822383227e-04,1.438152501e-03,-3.966365127e-05,1.398488850e-03,4.128423031e-04,1.164917204e-04,5.293340235e-04,1.352729512e-03,-1.543051708e-04,1.198424341e-03,-3.312945530e-04,5.089899889e-05,-2.803955541e-04,2.303084666e-04,-5.868757908e-05,1.716208875e-04,1.193644196e-04,-3.289877624e-05,8.646564336e-05,3.491959063e-04,1.311857348e-03,1.661053254e-03
-7.8,-5.306191164e-04,1.700900333e-04,-3.605290830e-04,-9.593152610e-04,-4.582291607e-05,-1.005138177e-03,6.058599916e-04,-3.111962136e-05,5.747403703e-04,2.730824247e-04,1.748043788e-06,2.748304685e-04,5.860312114e-04,1.376156484e-05,5.997927763e-04,-3.798789451e-04,5.141543371e-05,-3.284635113e-04,5.123929765e-05,2.292555644e-05,7.416485409e-05,6.161388591e-04,-5.657838470e-05,5.595604744e-04,5.760240135e-04,-3.754569904e-05,5.384783145e-04,1.059535888e-03,-1.497994674e-04,9.097364210e-04,7.542838520e-04,7.543567470e-06,7.618274195e-04,1.122845248e-03,-1.229908230e-04,9.998544246e-04,6.306915934e-04,-2.679066817e-05,6.039009252e-04,1.240306812e-03,-1.458433991e-04,1.094463413e-03,4.406398091e-04,-9.550188067e-05,3.451379285e-04,1.410378173e-03,-1.818298728e-04,1.228548300e-03,1.460917156e-03,-3.276485682e-04,1.133268588e-03,1.976298726e-04,1.202103294e-04,3.178402020e-04,-7.162179689e-04,2.541147297e-05,-6.908064959e-04,9.164683979e-04,-2.786795894e-05,8.886004389e-04,9.256489492e-04,4.157400833e-06,9.298063501e-04,8.696726786e-04,-1.892290193e-04,6.804436593e-04,4.144326968e-04,-6.286910471e-05,3.515635921e-04,1.613824493e-04,-6.115542323e-05,1.002270261e-04,7.211622438e-04,7.342911094e-05,7.945913547e-04,1.925642556e-04,-9.413819982e-06,1.831504356e-04,-1.914998011e-04,-3.441584345e-05,-2.259156445e-04,5.318172417e-04,-1.860156633e-05,5.132156754e-04,4.721990751e-04,-7.189965702e-05,4.002994181e-04,1.438839123e-03,-2.795253662e-05,1.410886586e-03,4.385472039e-04,1.050404857e-04,5.435876896e-04,1.384867106e-03,-1.644339671e-04,1.220433139e-03,-2.876864395e-04,4.181826824e-05,-2.458681713e-04,2.978287083e-04,-7.107657814e-05,2.267521301e-04,1.616601087e-04,-4.375554915e-05,1.179045595e-04,3.986451742e-04,1.285714548e-03,1.684359722e-03
-7.7,-4.708825095e-04,1.712605583e-04,-2.996219512e-04,-9.072596729e-04,-4.247629750e-05,-9.497359704e-04,6.116764563e-04,-2.909077001e-05,5.825856863e-04,3.094370318e-04,1.312230665e-06,3.107492625e-04,5.837786616e-04,1.329692494e-05,5.970755866e-04,-3.560038792e-04,5.790224394e-05,-2.981016353e-04,5.888153214e-05,2.421342809e-05,8.309496023e-05,6.153771890e-04,-6.357542838e-05,5.518017606e-04,5.785239607e-04,-3.834920321e-05,5.401747575e-04,1.014938819e-03,-1.524353540e-04,8.625034648e-04,7.516103058e-04,4.089535142e-06,7.556998409e-04,1.083046569e-03,-1.153242761e-04,9.677222924e-04,6.056115320e-04,3.030255828e-06,6.086417878e-04,1.225307009e-03,-1.427325448e-04,1.082574464e-03,4.604014198e-04,-1.092714913e-04,3.511299285e-04,1.427822702e-03,-1.830055003e-04,1.244817202e-03,1.495292754e-03,-3.312281316e-04,1.164064623e-03,2.408123991e-04,1.135539974e-04,3.543663965e-04,-6.760117292e-04,1.421100744e-05,-6.618007217e-04,8.795330637e-04,-3.412720288e-05,8.454058608e-04,9.223362848e-04,-4.502236544e-07,9.218860612e-04,8.704690163e-04,-1.861698883e-04,6.842991280e-04,4.202967097e-04,-6.131782081e-05,3.589788889e-04,1.712652212e-04,-5.349608359e-05,1.177691376e-04,7.481750806e-04,6.580030238e-05,8.139753830e-04,2.032181544e-04,4.308883740e-06,2.075270381e-04,-1.098126798e-04,-7.196442136e-05,-1.817771011e-04,5.272896358e-04,-1.695332686e-05,5.103363089e-04,4.900778021e-04,-7.331836368e-05,4.167594384e-04,1.436179056e-03,-1.625912324e-05,1.419919933e-03,4.627930893e-04,9.262807136e-05,5.554211607e-04,1.411970652e-03,-1.747650204e-04,1.237205632e-03,-2.465514658e-04,3.369136116e-05,-2.128601047e-04,3.633468569e-04,-8.125703716e-05,2.820898197e-04,2.002898234e-04,-5.285392860e-05,1.474358948e-04,4.500212155e-04,1.253346515e-03,1.703367730e-03
-7.6,-4.105654016e-04,1.721951206e-04,-2.383702809e-04,-8.539087136e-04,-3.918892452e-05,-8.930976382e-04,6.152251960e-04,-2.698816404e-05,5.882370320e-04,3.437504898e-04,8.955769459e-07,3.446460668e-04,5.799160249e-04,1.278755957e-05,5.927035845e-04,-3.335318210e-04,6.420537641e-05,-2.693264446e-04,6.599407877e-05,2.506217782e-05,9.105625659e-05,6.121068258e-04,-7.051189143e-05,5.415949344e-04,5.794640807e-04,-3.916061909e-05,5.403034616e-04,9.683507601e-04,-1.548924377e-04,8.134583225e-04,7.471926958e-04,6.138120949e-07,7.478065079e-04,1.041363795e-03,-1.082315129e-04,9.331322821e-04,5.744694500e-04,3.573573174e-05,6.102051818e-04,1.207299163e-03,-1.392316557e-04,1.068067508e-03,4.776504642e-04,-1.230029045e-04,3.546475597e-04,1.441362950e-03,-1.833617196e-04,1.258001230e-03,1.525569762e-03,-3.336543627e-04,1.191915399e-03,2.784040459e-04,1.088572216e-04,3.872612674e-04,-6.382702464e-04,4.331760771e-06,-6.339384856e-04,8.411216827e-04,-4.045935051e-05,8.006623322e-04,9.170360942e-04,-5.045779027e-06,9.119903151e-04,8.695450585e-04,-1.826464100e-04,6.868986485e-04,4.250948884e-04,-5.973612272e-05,3.653587656e-04,1.801258351e-04,-4.558284581e-05,1.345429893e-04,7.724882137e-04,5.897892512e-05,8.314671388e-04,2.127879752e-04,1.762349433e-05,2.304114696e-04,-3.132104836e-05,-1.055743830e-04,-1.368954314e-04,5.231775423e-04,-1.663896168e-05,5.065385806e-04,5.072676350e-04,-7.568464534e-05,4.315829897e-04,1.430305874e-03,-4.715613675e-06,1.425590260e-03,4.854718774e-04,7.936372749e-05,5.648356049e-04,1.433743021e-03,-1.851283009e-04,1.248614720e-03,-2.078990683e-04,2.649137675e-05,-1.814076915e-04,4.265532856e-04,-8.929888474e-05,3.372544009e-04,2.353128271e-04,-6.022196655e-05,1.750908606e-04,5.024403429e-04,1.215364556e-03,1.717804899e-03
-7.5,-3.500002704e-04,1.728750412e-04,-1.771252292e-04,-7.995468972e-04,-3.596731825e-05,-8.355142154e-04,6.164859937e-04,-2.482763388e-05,5.916583598e-04,3.758846588e-04,4.982744198e-07,3.763829333e-04,5.744142133e-04,1.224884217e-05,5.866630555e-04,-3.124858813e-04,7.030222225e-05,-2.421836591e-04,7.253434131e-05,2.549879290e-05,9.803313421e-05,6.064310384e-04,-7.734558281e-05,5.290854556e-04,5.787793058e-04,-3.997529992e-05,5.388040059e-04,9.198606319e-04,-1.571298744e-04,7.627307575e-04,7.409503921e-04,-2.854943677e-06,7.380954484e-04,9.979638388e-04,-1.017089796e-04,8.962548591e-04,5.380376050e-04,7.108699447e-05,6.091245995e-04,1.186315004e-03,-1.353690277e-04,1.050945977e-03,4.923501619e-04,-1.366033756e-04,3.557467864e-04,1.450879282e-03,-1.828964133e-04,1.267982869e-03,1.551785860e-03,-3.349361516e-04,1.216849709e-03,3.105424751e-04,1.059692321e-04,4.165117072e-04,-6.027114292e-04,-4.317577463e-06,-6.070290067e-04,8.013641040e-04,-4.682324932e-05,7.545408547e-04,9.097369771e-04,-9.608064883e-06,9.001289122e-04,8.668873124e-04,-1.786562919e-04,6.882310205e-04,4.288391944e-04,-5.811218301e-05,3.707270114e-04,1.880082206e-04,-3.743390594e-05,1.505743147e-04,7.939787168e-04,5.301016957e-05,8.469888864e-04,2.212183333e-04,3.043963328e-05,2.516579665e-04,4.372050529e-05,-1.350134312e-04,-9.129292588e-05,5.194460664e-04,-1.765755000e-05,5.017885164e-04,5.236824765e-04,-7.893548944e-05,4.447469870e-04,1.421363519e-03,6.538618121e-06,1.427902137e-03,5.064947004e-04,6.534132617e-05,5.718360265e-04,1.449881440e-03,-1.953118892e-04,1.254569551e-03,-1.717128088e-04,2.017267638e-05,-1.515401325e-04,4.871734433e-04,-9.531056551e-05,3.918628778e-04,2.668207509e-04,-6.591995745e-05,2.009007935e-04,5.549641301e-04,1.172439489e-03,1.727403619e-03
-7.4,-2.895069013e-04,1.732834037e-04,-1.162234976e-04,-7.444509992e-04,-3.281423519e-05,-7.772652344e-04,6.154560121e-04,-2.262402185e-05,5.928319903e-04,4.057234729e-04,1.215093093e-07,4.058449822e-04,5.672652275e-04,1.169565662e-05,5.789608841e-04,-2.928623594e-04,7.616569856e-05,-2.166966609e-04,7.847092713e-05,2.555420260e-05,1.040251297e-04,5.984611085e-04,-8.402847107e-05,5.144326374e-04,5.764238403e-04,-4.078742721e-05,5.356364130e-04,8.695737438e-04,-1.591067383e-04,7.104670055e-04,7.328219583e-04,-6.287676013e-06,7.265342823e-04,9.530306192e-04,-9.574583876e-05,8.572847805e-04,4.971782510e-04,1.087388190e-04,6.059170700e-04,1.162410700e-03,-1.311783571e-04,1.031232343e-03,5.044710822e-04,-1.499627788e-04,3.545083034e-04,1.456271923e-03,-1.816258029e-04,1.274646120e-03,1.573959018e-03,-3.350759651e-04,1.238883053e-03,3.374127602e-04,1.047135671e-04,4.421263273e-04,-5.690223101e-04,-1.183840794e-05,-5.808607180e-04,7.604028469e-04,-5.317380157e-05,7.072290453e-04,9.004392758e-04,-1.411258768e-05,8.863266882e-04,8.624819675e-04,-1.741991552e-04,6.882828123e-04,4.315439314e-04,-5.643278555e-05,3.751111459e-04,1.949579032e-04,-2.907179588e-05,1.658861073e-04,8.125492970e-04,4.792204521e-05,8.604713422e-04,2.284721208e-04,4.266797573e-05,2.711400966e-04,1.151252178e-04,-1.601603346e-04,-4.503511681e-05,5.160274951e-04,-1.997436001e-05,4.960531351e-04,5.392244075e-04,-8.298216482e-05,4.562422427e-04,1.409501874e-03,1.736150438e-05,1.426863378e-03,5.257890058e-04,5.064534998e-05,5.764343558e-04,1.460095415e-03,-2.050724622e-04,1.255022953e-03,-1.379421655e-04,1.466626405e-05,-1.232759015e-04,5.449731520e-04,-9.943359891e-05,4.455395531e-04,2.949356853e-04,-7.003699553e-05,2.248986898e-04,6.066074209e-04,1.125303419e-03,1.731910840e-03
-7.3,-2.293894517e-04,1.734051550e-04,-5.598429676e-05,-6.888872704e-04,-2.972891611e-05,-7.186161865e-04,6.121511763e-04,-2.039100651e-05,5.917601698e-04,4.331742620e-04,-2.325031095e-07,4.329417589e-04,5.584830837e-04,1.114224663e-05,5.696253303e-04,-2.746310624e-04,8.176503478e-05,-1.928660276e-04,8.378499031e-05,2.526270778e-05,1.090476981e-04,5.883127063e-04,-9.050474715e-05,4.978079592e-04,5.723723300e-04,-4.158998964e-05,5.307823403e-04,8.176116187e-04,-1.607825926e-04,6.568290261e-04,7.227665118e-04,-9.655311921e-06,7.131111999e-04,9.067658491e-04,-9.032634654e-05,8.164395026e-04,4.528339643e-04,1.482334082e-04,6.010673725e-04,1.135665455e-03,-1.266983517e-04,1.008967103e-03,5.139890400e-04,-1.629572452e-04,3.510317948e-04,1.457464296e-03,-1.795833030e-04,1.277880993e-03,1.592088407e-03,-3.340696458e-04,1.258018761e-03,3.592390992e-04,1.048972490e-04,4.641363482e-04,-5.368706620e-04,-1.833878002e-05,-5.552094420e-04,7.183913232e-04,-5.946238469e-05,6.589289386e-04,8.891552285e-04,-1.853194230e-05,8.706232862e-04,8.563152594e-04,-1.692765328e-04,6.870387266e-04,4.332253937e-04,-5.468373645e-05,3.785416573e-04,2.010211980e-04,-2.052293681e-05,1.804982612e-04,8.281295251e-04,4.372577968e-05,8.718553048e-04,2.345349353e-04,5.421772312e-05,2.887526584e-04,1.827781687e-04,-1.810082601e-04,1.769908519e-06,5.128238767e-04,-2.351844712e-05,4.893054296e-04,5.537841615e-04,-8.771107022e-05,4.660730913e-04,1.394870393e-03,2.761317994e-05,1.422483573e-03,5.432947683e-04,3.535562077e-05,5.786503890e-04,1.464123950e-03,-2.141475959e-04,1.249976354e-03,-1.065022475e-04,9.878135659e-06,-9.662411187e-05,5.997626250e-04,-1.018383748e-04,4.979242502e-04,3.198049244e-04,-7.268651665e-05,2.471184078e-04,6.563470264e-04,1.074750078e-03,1.731097104e-03
-7.2,-1.699349144e-04,1.732270259e-04,3.292111483e-06,-6.331098156e-04,-2.670757261e-05,-6.598173882e-04,6.066060576e-04,-1.814101536e-05,5.884650423e-04,4.581672811e-04,-5.605550662e-07,4.576067260e-04,5.481023737e-04,1.060209866e-05,5.587044724e-04,-2.577375100e-04,8.706665956e-05,-1.706708504e-04,8.846964585e-05,2.466143652e-05,1.131310824e-04,5.761013940e-04,-9.670968663e-05,4.793917074e-04,5.666183685e-04,-4.237477335e-05,5.242435951e-04,7.641094607e-04,-1.621179506e-04,6.019915101e-04,7.107623961e-04,-1.292907480e-05,6.978333213e-04,8.593856593e-04,-8.543068679e-05,7.739549726e-04,4.060137138e-04,1.890017088e-04,5.950154226e-04,1.106177489e-03,-1.219716537e-04,9.842058356e-04,5.208837913e-04,-1.754534774e-04,3.454303139e-04,1.454403459e-03,-1.768173620e-04,1.277586097e-03,1.606155561e-03,-3.319070152e-04,1.274248546e-03,3.762750350e-04,1.063206201e-04,4.825956551e-04,-5.059207082e-04,-2.392848177e-05,-5.298491900e-04,6.754903866e-04,-6.563761609e-05,6.098527705e-04,8.759079299e-04,-2.283638552e-05,8.530715444e-04,8.483729451e-04,-1.638918980e-04,6.844810472e-04,4.339007932e-04,-5.285031938e-05,3.810504738e-04,2.062436271e-04,-1.181700569e-05,1.944266215e-04,8.406752771e-04,4.041662003e-05,8.810918971e-04,2.394163277e-04,6.499492871e-05,3.044112565e-04,2.466365727e-04,-1.976618138e-04,4.897475883e-05,5.097095764e-04,-2.818256109e-05,4.815270153e-04,5.672402728e-04,-9.298496338e-05,4.742553094e-04,1.377610679e-03,3.716130685e-05,1.414771986e-03,5.589612393e-04,1.955005910e-05,5.785112984e-04,1.461748699e-03,-2.222675443e-04,1.239481154e-03,-7.728165453e-05,5.692041667e-06,-7.158961287e-05,6.513988323e-04,-1.027197447e-04,5.486790876e-04,3.415926009e-04,-7.400150295e-05,2.675910979e-04,7.031378294e-04,1.021621687e-03,1.724759517e-03
-7.1,-1.114128996e-04,1.727373943e-04,6.132449463e-05,-5.773602171e-04,-2.374387422e-05,-6.011040913e-04,5.988724713e-04,-1.588515972e-05,5.829873116e-04,4.806537156e-04,-8.585792810e-07,4.797951363e-04,5.361749354e-04,1.008787778e-05,5.462628132e-04,-2.421072961e-04,9.203561798e-05,-1.500716781e-04,9.252779680e-05,2.378976052e-05,1.163175573e-04,5.619380070e-04,-1.025697425e-04,4.593682645e-04,5.591711821e-04,-4.313238234e-05,5.160387998e-04,7.092121585e-04,-1.630746685e-04,5.461374899e-04,6.968040874e-04,-1.608073805e-05,6.807233494e-04,8.111153515e-04,-8.103553155e-05,7.300798200e-04,3.577726742e-04,2.303732770e-04,5.881459512e-04,1.074058144e-03,-1.170431088e-04,9.570150352e-04,5.251396717e-04,-1.873134493e-04,3.378262223e-04,1.447057269e-03,-1.733884116e-04,1.273668857e-03,1.616125755e-03,-3.285735880e-04,1.287552167e-03,3.887947606e-04,1.087853875e-04,4.975801481e-04,-4.758512757e-04,-2.871278671e-05,-5.045640624e-04,6.318640071e-04,-7.164642736e-05,5.602175798e-04,8.607293830e-04,-2.699448993e-05,8.337348931e-04,8.386393563e-04,-1.580507099e-04,6.805886464e-04,4.335868905e-04,-5.091770420e-05,3.826691863e-04,2.106679575e-04,-2.986251011e-06,2.076817065e-04,8.501664470e-04,3.797504808e-05,8.881414951e-04,2.431483640e-04,7.490222390e-05,3.180505878e-04,3.067276333e-04,-2.103303186e-04,9.639731471e-05,5.065350672e-04,-3.382595893e-05,4.727091083e-04,5.794573658e-04,-9.864456950e-05,4.808127963e-04,1.357849744e-03,4.588613042e-05,1.403735874e-03,5.727447034e-04,3.305344690e-06,5.760500481e-04,1.452802873e-03,-2.291661095e-04,1.223636763e-03,-5.015529745e-05,1.975906569e-06,-4.817939088e-05,6.997843529e-04,-1.022906701e-04,5.974936828e-04,3.604697564e-04,-7.412996203e-05,2.863397944e-04,7.459374390e-04,9.667804641e-04,1.712717903e-03
-7,-5.407627425e-05,1.719261595e-04,1.178498853e-04,-5.218679706e-04,-2.082932909e-05,-5.426972997e-04,5.890173600e-04,-1.363318687e-05,5.753841731e-04,5.006028626e-04,-1.121925621e-06,4.994809370e-04,5.227655845e-04,9.611381721e-06,5.323769662e-04,-2.276523551e-04,9.663784594e-05,-1.310145091e-04,9.596920758e-05,2.268861001e-05,1.186578176e-04,5.459248918e-04,-1.080040592e-04,4.379208325e-04,5.500518858e-04,-4.385227894e-05,5.061996069e-04,6.530701914e-04,-1.636162945e-04,4.894538969e-04,6.808987796e-04,-1.908282126e-05,6.618159584e-04,7.621847066e-04,-7.711550640e-05,6.850692002e-04,3.091865148e-04,2.715949282e-04,5.807814430e-04,1.039426017e-03,-1.119579129e-04,9.274681037e-04,5.267485894e-04,-1.983993407e-04,3.283492487e-04,1.435410121e-03,-1.693656359e-04,1.266044486e-03,1.621950346e-03,-3.240541214e-04,1.297896224e-03,3.970866706e-04,1.120993894e-04,5.091860600e-04,-4.463720797e-04,-3.278690512e-05,-4.791589848e-04,5.876750566e-04,-7.743524849e-05,5.102398081e-04,8.436581547e-04,-3.097370892e-05,8.126844458e-04,8.270967738e-04,-1.517604184e-04,6.753363553e-04,4.322988769e-04,-4.887129134e-05,3.834275856e-04,2.143324969e-04,5.935110158e-06,2.202676070e-04,8.566034301e-04,3.636831489e-05,8.929717450e-04,2.457825831e-04,8.384020461e-05,3.296227877e-04,3.631434402e-04,-2.193182222e-04,1.438252180e-04,5.031320483e-04,-4.027973322e-05,4.628523151e-04,5.902851313e-04,-1.045114911e-04,4.857736402e-04,1.335695776e-03,5.368425892e-05,1.389380035e-03,5.846063454e-04,-1.330370204e-05,5.713026434e-04,1.437177579e-03,-2.345912474e-04,1.202586332e-03,-2.499786279e-05,-1.410107317e-06,-2.640797011e-05,7.448608713e-04,-1.007736956e-04,6.440871758e-04,3.766052090e-04,-7.323104409e-05,3.033741649e-04,7.837361524e-04,9.110730794e-04,1.694809232e-03
-6.9,1.838098223e-06,1.707845975e-04,1.726226957e-04,-4.668508575e-04,-1.795362991e-05,-4.848044874e-04,5.771207799e-04,-1.139346243e-05,5.657273175e-04,5.179994506e-04,-1.345798781e-06,5.166536519e-04,5.079481506e-04,9.183467409e-06,5.171316181e-04,-2.142777104e-04,1.008430198e-04,-1.134346905e-04,9.880789726e-05,2.139969900e-05,1.202075963e-04,5.281540490e-04,-1.129272843e-04,4.152267646e-04,5.392908356e-04,-4.452281839e-05,4.947680172e-04,5.958368467e-04,-1.637083650e-04,4.321284817e-04,6.630642151e-04,-2.190874948e-05,6.411554656e-04,7.128248143e-04,-7.364560561e-05,6.391792087e-04,2.613232808e-04,3.118561356e-04,5.731794163e-04,1.002403040e-03,-1.067601947e-04,8.956428449e-04,5.257145136e-04,-2.085781934e-04,3.171363202e-04,1.419460123e-03,-1.648244842e-04,1.254635639e-03,1.623570450e-03,-3.183378200e-04,1.305232630e-03,4.014482406e-04,1.160783048e-04,5.175265454e-04,-4.172345345e-04,-3.623268432e-05,-4.534672189e-04,5.430820708e-04,-8.295114967e-05,4.601309211e-04,8.247373444e-04,-3.474084903e-05,7.899964954e-04,8.137258686e-04,-1.450304547e-04,6.686954139e-04,4.300499191e-04,-4.669705787e-05,3.833528613e-04,2.172702902e-04,1.491131539e-05,2.321816056e-04,8.600035944e-04,3.555202609e-05,8.955556205e-04,2.473870527e-04,9.171003630e-05,3.390970890e-04,4.160322379e-04,-2.250115857e-04,1.910206522e-04,4.993196365e-04,-4.735430345e-05,4.519653330e-04,5.995598838e-04,-1.103933850e-04,4.891664988e-04,1.311237206e-03,6.047089243e-05,1.371708099e-03,5.945085627e-04,-3.020373854e-05,5.643048242e-04,1.414826428e-03,-2.383148016e-04,1.176511627e-03,-1.694385052e-06,-4.605482745e-06,-6.299867796e-06,7.865982179e-04,-9.839186293e-05,6.882063550e-04,3.901593994e-04,-7.147188357e-05,3.186875158e-04,8.155890714e-04,8.552980834e-04,1.670887155e-03
-6.8,5.610922972e-05,1.693051588e-04,2.254143886e-04,-4.125144085e-04,-1.510505639e-05,-4.276194649e-04,5.632746370e-04,-9.172959745e-06,5.541016772e-04,5.328419316e-04,-1.525783775e-06,5.313161478e-04,4.918028502e-04,8.813932295e-06,5.006167825e-04,-2.018869211e-04,1.046272821e-04,-9.725963900e-05,1.010607111e-04,1.996472326e-05,1.210254344e-04,5.087077758e-04,-1.172532498e-04,3.914545259e-04,5.269269521e-04,-4.513130095e-05,4.817956512e-04,5.376674971e-04,-1.633186838e-04,3.743488133e-04,6.433286603e-04,-2.453305108e-05,6.187956092e-04,6.632658890e-04,-7.060350770e-05,5.926623813e-04,2.152167816e-04,3.503165617e-04,5.655333433e-04,9.631130622e-04,-1.014921730e-04,8.616208892e-04,5.220580689e-04,-2.177252365e-04,3.043328324e-04,1.399219371e-03,-1.598453108e-04,1.239374060e-03,1.620922142e-03,-3.114241768e-04,1.309497965e-03,4.021811815e-04,1.205453844e-04,5.227265659e-04,-3.882366294e-04,-3.911669081e-05,-4.273533202e-04,4.982373540e-04,-8.814291837e-05,4.100944356e-04,8.040134481e-04,-3.826263821e-05,7.657508098e-04,7.985074738e-04,-1.378723151e-04,6.606351586e-04,4.268513599e-04,-4.438198460e-05,3.824693753e-04,2.195094545e-04,2.390532133e-05,2.434147758e-04,8.603988611e-04,3.547160864e-05,8.958704698e-04,2.480448574e-04,9.841634016e-05,3.464611976e-04,4.655870157e-04,-2.278599079e-04,2.377271078e-04,4.949107870e-04,-5.484788726e-05,4.400628998e-04,6.071092558e-04,-1.160911571e-04,4.910180987e-04,1.284544440e-03,6.618108154e-05,1.350725521e-03,6.024090243e-04,-4.731917065e-05,5.550898537e-04,1.385768624e-03,-2.401399463e-04,1.145628678e-03,1.985387861e-05,-7.741733278e-06,1.211214534e-05,8.249821983e-04,-9.536065260e-05,7.296215457e-04,4.012821659e-04,-6.902502023e-05,3.322571456e-04,8.406493808e-04,8.001815782e-04,1.640830959e-03
-6.7,1.085326829e-04,1.674812581e-04,2.760139410e-04,-3.590502677e-04,-1.227093223e-05,-3.713211999e-04,5.475821483e-04,-6.977230207e-06,5.406049181e-04,5.451418883e-04,-1.658323626e-06,5.434835647e-04,4.744150848e-04,8.511358136e-06,4.829264429e-04,-1.903855051e-04,1.079752293e-04,-8.241027585e-05,1.027471755e-04,1.842456961e-05,1.211717451e-04,4.876613449e-04,-1.208989241e-04,3.667624208e-04,5.130085036e-04,-4.566412362e-05,4.673443800e-04,4.787203983e-04,-1.624176583e-04,3.163027401e-04,6.217324374e-04,-2.693167996e-05,5.948007575e-04,6.137347490e-04,-6.797045457e-05,5.457642944e-04,1.718434365e-04,3.861318396e-04,5.579752761e-04,9.216818705e-04,-9.619369421e-05,8.254881763e-04,5.158202959e-04,-2.257253763e-04,2.900949196e-04,1.374716809e-03,-1.545127623e-04,1.220204047e-03,1.613943100e-03,-3.033279526e-04,1.310615148e-03,3.995881312e-04,1.253299737e-04,5.249181049e-04,-3.592233211e-04,-4.148803112e-05,-4.007113522e-04,4.532859455e-04,-9.296203927e-05,3.603239062e-04,7.815360760e-04,-4.150653185e-05,7.400295441e-04,7.814251439e-04,-1.302997936e-04,6.511253503e-04,4.227131017e-04,-4.191456851e-05,3.807985332e-04,2.210742218e-04,3.287905665e-05,2.539532785e-04,8.578344843e-04,3.606358738e-05,8.938980717e-04,2.478537219e-04,1.038696847e-04,3.517234067e-04,5.120326093e-04,-2.283540274e-04,2.836785819e-04,4.897173832e-04,-6.255364457e-05,4.271637386e-04,6.127589027e-04,-1.214068395e-04,4.913520632e-04,1.255672641e-03,7.077058453e-05,1.326443226e-03,6.082542896e-04,-6.456528469e-05,5.436890049e-04,1.350091215e-03,-2.399061881e-04,1.110185027e-03,3.972816396e-05,-1.093554194e-05,2.879262202e-05,8.600038490e-04,-9.188108565e-05,7.681227633e-04,4.101135347e-04,-6.606610515e-05,3.440474296e-04,8.582030448e-04,7.463603658e-04,1.604563411e-03
-6.6,1.589215818e-04,1.653071156e-04,3.242286974e-04,-3.066341110e-04,-9.438056185e-06,-3.160721672e-04,5.301573364e-04,-4.810387479e-06,5.253469489e-04,5.549238777e-04,-1.741051133e-06,5.531828265e-04,4.558746964e-04,8.282935099e-06,4.641576315e-04,-1.796830575e-04,1.108809984e-04,-6.880205907e-05,1.038898983e-04,1.681852970e-05,1.207084280e-04,4.650863447e-04,-1.237880788e-04,3.412982659e-04,4.975937489e-04,-4.610708370e-05,4.514866652e-04,4.191574578e-04,-1.609787176e-04,2.581787402e-04,5.983292247e-04,-2.908247259e-05,5.692467521e-04,5.644507727e-04,-6.573003324e-05,4.987207395e-04,1.321013660e-04,4.184763627e-04,5.505777288e-04,8.782370370e-04,-9.090195093e-05,7.873350861e-04,5.070648188e-04,-2.324735510e-04,2.745912678e-04,1.346001838e-03,-1.489153194e-04,1.197086518e-03,1.602579338e-03,-2.940816432e-04,1.308497695e-03,3.939725613e-04,1.302658080e-04,5.242383692e-04,-3.300838041e-04,-4.337606626e-05,-3.734598704e-04,4.083644100e-04,-9.736346360e-05,3.110009464e-04,7.573578494e-04,-4.444167415e-05,7.129161752e-04,7.624674447e-04,-1.223292727e-04,6.401381720e-04,4.176435958e-04,-3.928533715e-05,3.783582586e-04,2.219858693e-04,4.179378990e-05,2.637796592e-04,8.523682579e-04,3.725653059e-05,8.896247885e-04,2.469249389e-04,1.079887556e-04,3.549136946e-04,5.556109425e-04,-2.270015944e-04,3.286093481e-04,4.835528100e-04,-7.026366745e-05,4.132891425e-04,6.163397195e-04,-1.261509420e-04,4.901887774e-04,1.224663798e-03,7.421643650e-05,1.298880235e-03,6.119759844e-04,-8.184073059e-05,5.301352538e-04,1.307950727e-03,-2.374931301e-04,1.070457596e-03,5.799392113e-05,-1.428306104e-05,4.371086009e-05,8.916508094e-04,-8.813372188e-05,8.035170875e-04,4.167851138e-04,-6.277143371e-05,3.540136801e-04,8.677053763e-04,6.943670864e-04,1.562072463e-03
-6.5,2.071072591e-04,1.627776251e-04,3.698848842e-04,-2.554241086e-04,-6.593036791e-06,-2.620171454e-04,5.111237948e-04,-2.675175995e-06,5.084486188e-04,5.622247524e-04,-1.772966160e-06,5.604517862e-04,4.362744855e-04,8.134289717e-06,4.444087752e-04,-1.696953158e-04,1.133487549e-04,-5.634656090e-05,1.045145024e-04,1.518352868e-05,1.196980311e-04,4.410533136e-04,-1.258543435e-04,3.151989701e-04,4.807499939e-04,-4.644578787e-05,4.343042060e-04,3.591435477e-04,-1.589787338e-04,2.001648138e-04,5.731855104e-04,-3.096564865e-05,5.422198618e-04,5.156199743e-04,-6.386538634e-05,4.517545879e-04,9.678963277e-05,4.465634976e-04,5.433531304e-04,8.329065592e-04,-8.565118483e-05,7.472553743e-04,4.958769952e-04,-2.378746793e-04,2.580023159e-04,1.313146808e-03,-1.431445094e-04,1.170002299e-03,1.586790037e-03,-2.837348409e-04,1.303055196e-03,3.856406656e-04,1.351904372e-04,5.208311028e-04,-3.007462740e-04,-4.479039154e-05,-3.455366656e-04,3.635986495e-04,-1.013060660e-04,2.622925835e-04,7.315337496e-04,-4.703982680e-05,6.844939228e-04,7.416291056e-04,-1.139799066e-04,6.276491990e-04,4.116491689e-04,-3.648728145e-05,3.751618875e-04,2.222628904e-04,5.061061431e-05,2.728735048e-04,8.440695024e-04,3.897155144e-05,8.830410539e-04,2.453798301e-04,1.107027212e-04,3.560825513e-04,5.965640083e-04,-2.243021363e-04,3.722618719e-04,4.762321323e-04,-7.776995369e-05,3.984621786e-04,6.176944615e-04,-1.301486863e-04,4.875457752e-04,1.191546741e-03,7.651728288e-05,1.268064024e-03,6.134908809e-04,-9.902119502e-05,5.144696859e-04,1.259572942e-03,-2.328238573e-04,1.026749085e-03,7.470347188e-05,-1.785560587e-05,5.684786602e-05,9.199004005e-04,-8.427393247e-05,8.356264680e-04,4.214197634e-04,-5.931485780e-05,3.621049056e-04,8.688173720e-04,6.446128416e-04,1.513430214e-03
-6.4,2.529390942e-04,1.598881629e-04,4.128272571e-04,-2.055605823e-04,-3.722549646e-06,-2.092831320e-04,4.906123968e-04,-5.731481890e-07,4.900392486e-04,5.670918360e-04,-1.754471596e-06,5.653373644e-04,4.157073965e-04,8.069353069e-06,4.237767496e-04,-1.603468581e-04,1.153929839e-04,-4.495387418e-05,1.046484139e-04,1.355344547e-05,1.182018594e-04,4.156330114e-04,-1.270435390e-04,2.885894723e-04,4.625505749e-04,-4.666606452e-05,4.158845104e-04,2.988438659e-04,-1.563983389e-04,1.424455270e-04,5.463776868e-04,-3.256422975e-05,5.138134571e-04,4.674278405e-04,-6.235620497e-05,4.050716355e-04,6.658753421e-05,4.696647356e-04,5.362522698e-04,7.858160765e-04,-8.047220994e-05,7.053438666e-04,4.823586248e-04,-2.418431893e-04,2.405154355e-04,1.276247055e-03,-1.372932437e-04,1.138953811e-03,1.566549879e-03,-2.723515669e-04,1.294198312e-03,3.749023894e-04,1.399458369e-04,5.148482263e-04,-2.711702954e-04,-4.572559201e-05,-3.168958874e-04,3.191006276e-04,-1.047528263e-04,2.143478013e-04,7.041196560e-04,-4.927619570e-05,6.548434603e-04,7.189108020e-04,-1.052736330e-04,6.136371690e-04,4.047328184e-04,-3.351617960e-05,3.712166388e-04,2.219202266e-04,5.929096936e-05,2.812111960e-04,8.330177870e-04,4.112241411e-05,8.741402011e-04,2.433432881e-04,1.119540284e-04,3.552973165e-04,6.351164586e-04,-2.207248164e-04,4.143916422e-04,4.675706356e-04,-8.486405426e-05,3.827065814e-04,6.166825624e-04,-1.332446307e-04,4.834379316e-04,1.156334737e-03,7.769370516e-05,1.234028442e-03,6.127040817e-04,-1.159547867e-04,4.967492950e-04,1.205248828e-03,-2.258674997e-04,9.793813284e-04,8.989795317e-05,-2.169680173e-05,6.820115144e-05,9.447142613e-04,-8.042929623e-05,8.642849651e-04,4.241288407e-04,-5.586418073e-05,3.682646600e-04,8.614338035e-04,5.973706097e-04,1.458804413e-03
-6.3,2.962834474e-04,1.566343405e-04,4.529177878e-04,-1.571669271e-04,-8.136046776e-07,-1.579805318e-04,4.687580713e-04,1.495107015e-06,4.702531783e-04,5.695798585e-04,-1.687244389e-06,5.678926141e-04,3.942625168e-04,8.090314563e-06,4.023528313e-04,-1.515742457e-04,1.170386644e-04,-3.453558132e-05,1.043183933e-04,1.195861062e-05,1.162770039e-04,3.888963166e-04,-1.273152612e-04,2.615810553e-04,4.430701830e-04,-4.675431192e-05,3.963158711e-04,2.384197618e-04,-1.532221159e-04,8.519764592e-05,5.179872983e-04,-3.386430919e-05,4.841229891e-04,4.200324187e-04,-6.117690450e-05,3.588555142e-04,4.203633639e-05,4.871287638e-04,5.291651002e-04,7.370850697e-04,-7.539181053e-05,6.616932592e-04,4.666188849e-04,-2.443025525e-04,2.223163324e-04,1.235417878e-03,-1.314528944e-04,1.103964984e-03,1.541849522e-03,-2.600070687e-04,1.281842453e-03,3.620704154e-04,1.443787479e-04,5.064491633e-04,-2.413372426e-04,-4.617093199e-05,-2.875081746e-04,2.749645109e-04,-1.076709220e-04,1.672935889e-04,6.751702740e-04,-5.113021873e-05,6.240400553e-04,6.943179102e-04,-9.623509663e-05,5.980828136e-04,3.968928706e-04,-3.037078128e-05,3.665220893e-04,2.209677550e-04,6.779710269e-05,2.887648577e-04,8.193014520e-04,4.361545409e-05,8.629169061e-04,2.409352253e-04,1.117013599e-04,3.526365852e-04,6.714604779e-04,-2.166917357e-04,4.547687422e-04,4.573811641e-04,-9.133698819e-05,3.660441759e-04,6.131819886e-04,-1.353052048e-04,4.778767837e-04,1.119021563e-03,7.778851545e-05,1.196810078e-03,6.095137531e-04,-1.324598290e-04,4.770539241e-04,1.145325367e-03,-2.166399258e-04,9.286854414e-04,1.036078992e-04,-2.582156568e-05,7.778633354e-05,9.660354353e-04,-7.670014726e-05,8.893352880e-04,4.250079316e-04,-5.257775691e-05,3.724301747e-04,8.456934568e-04,5.527679591e-04,1.398461416e-03
-6.2,3.370218897e-04,1.530118219e-04,4.900337116e-04,-1.103513951e-04,2.146129215e-06,-1.082052659e-04,4.456961046e-04,3.529766129e-06,4.492258707e-04,5.697470886e-04,-1.573957795e-06,5.681731308e-04,3.720205744e-04,8.197685739e-06,3.802182601e-04,-1.433288045e-04,1.183209466e-04,-2.500785795e-05,1.035472438e-04,1.042549634e-05,1.139727402e-04,3.609131869e-04,-1.266437483e-04,2.342694386e-04,4.223796116e-04,-4.669777515e-05,3.756818364e-04,1.780241006e-04,-1.494387296e-04,2.858537099e-05,4.880956719e-04,-3.485518086e-05,4.532404910e-04,3.735591904e-04,-6.029654764e-05,3.132626427e-04,2.352543001e-05,4.983996403e-04,5.219250703e-04,6.868229311e-04,-7.043218813e-05,6.163907430e-04,4.487647657e-04,-2.451862736e-04,2.035784921e-04,1.190788882e-03,-1.257092562e-04,1.065079626e-03,1.512695097e-03,-2.467848327e-04,1.265910265e-03,3.474572101e-04,1.483403770e-04,4.957975871e-04,-2.112402855e-04,-4.612253439e-05,-2.573628199e-04,2.312631024e-04,-1.100318612e-04,1.212312412e-04,6.447369133e-04,-5.258631200e-05,5.921506013e-04,6.678588942e-04,-8.689153060e-05,5.809673636e-04,3.881220586e-04,-2.705276643e-05,3.610692922e-04,2.194085052e-04,7.609238546e-05,2.955008907e-04,8.030157336e-04,4.634964379e-05,8.493653774e-04,2.382612524e-04,1.099226092e-04,3.481838616e-04,7.057435872e-04,-2.125672499e-04,4.931763372e-04,4.454708026e-04,-9.698001056e-05,3.484907920e-04,6.070884258e-04,-1.362195024e-04,4.708689234e-04,1.079578143e-03,7.686639827e-05,1.156444542e-03,6.038158043e-04,-1.483257386e-04,4.554900656e-04,1.080192578e-03,-2.052022848e-04,8.749902932e-04,1.158532673e-04,-3.021771179e-05,8.563555552e-05,9.837887092e-04,-7.316341571e-05,9.106252935e-04,4.241325465e-04,-4.960178414e-05,3.745307624e-04,8.219688432e-04,5.107931102e-04,1.332761953e-03
-6.1,3.750492345e-04,1.490163144e-04,5.240655489e-04,-6.520902238e-05,5.167976844e-06,-6.004104554e-05,4.215587043e-04,5.531624525e-06,4.270903288e-04,5.676515789e-04,-1.417989667e-06,5.662335892e-04,3.490500010e-04,8.390446692e-06,3.574404477e-04,-1.355778665e-04,1.192837383e-04,-1.629412821e-05,1.023506049e-04,8.976550223e-06,1.113271551e-04,3.317515581e-04,-1.250182096e-04,2.067333486e-04,4.005415142e-04,-4.648476339e-05,3.540567508e-04,1.177976620e-04,-1.450410512e-04,-2.724338924e-05,4.567796528e-04,-3.552936088e-05,4.212502919e-04,3.280982617e-04,-5.967970322e-05,2.684185585e-04,1.128193848e-05,5.030341692e-04,5.143161077e-04,6.351260957e-04,-6.561044192e-05,5.695156538e-04,4.288945755e-04,-2.444410320e-04,1.844535435e-04,1.142496910e-03,-1.201379301e-04,1.022358980e-03,1.479107950e-03,-2.327741056e-04,1.246333844e-03,3.313697000e-04,1.516870418e-04,4.830567418e-04,-1.808758302e-04,-4.559472697e-05,-2.264705571e-04,1.880455624e-04,-1.118115416e-04,7.623402075e-05,6.128657333e-04,-5.363441120e-05,5.592313221e-04,6.395441861e-04,-7.727251157e-05,5.622716745e-04,3.784076738e-04,-2.356640442e-05,3.548412693e-04,2.172373186e-04,8.414141623e-05,3.013787349e-04,7.842606138e-04,4.921703722e-05,8.334776510e-04,2.354038635e-04,1.066182250e-04,3.420220885e-04,7.380585613e-04,-2.086516535e-04,5.294069078e-04,4.316385055e-04,-1.015862678e-04,3.300522376e-04,5.983140005e-04,-1.358997298e-04,4.624142707e-04,1.037952318e-03,7.501209357e-05,1.112964412e-03,5.955073817e-04,-1.633166583e-04,4.321907234e-04,1.010270703e-03,-1.916581836e-04,8.186125196e-04,1.266446630e-04,-3.485062846e-05,9.179403455e-05,9.978833841e-04,-6.987782609e-05,9.280055580e-04,4.215550538e-04,-4.706776519e-05,3.744872886e-04,7.908402836e-04,4.713110463e-04,1.262151330e-03
-6,4.102721373e-04,1.446436983e-04,5.549158355e-04,-2.182278856e-05,8.261909896e-06,-1.356087867e-05,3.964726767e-04,7.501961710e-06,4.039746384e-04,5.633486592e-04,-1.223283821e-06,5.621253754e-04,3.254047433e-04,8.666206681e-06,3.340709500e-04,-1.283032410e-04,1.199769122e-04,-8.326328798e-06,1.007349906e-04,7.630121435e-06,1.083651120e-04,3.014772425e-04,-1.224428505e-04,1.790343920e-04,3.776088285e-04,-4.610481009e-05,3.315040185e-04,5.786807178e-05,-1.400262719e-04,-8.215820014e-05,4.241101853e-04,-3.588253382e-05,3.882276515e-04,2.837033440e-04,-5.928670316e-05,2.244166409e-04,5.363014126e-06,5.007198249e-04,5.060828390e-04,5.820774112e-04,-6.093795120e-05,5.211394600e-04,4.070963047e-04,-2.420306433e-04,1.650656615e-04,1.090679433e-03,-1.147997740e-04,9.758796587e-04,1.441125903e-03,-2.180681691e-04,1.223057734e-03,3.141017763e-04,1.542824332e-04,4.683842095e-04,-1.502373601e-04,-4.462799274e-05,-1.948653529e-04,1.453373512e-04,-1.129900303e-04,3.234732087e-05,5.795971991e-04,-5.427016029e-05,5.253270388e-04,6.093864678e-04,-6.740951819e-05,5.419769496e-04,3.677333341e-04,-1.991795172e-05,3.478153824e-04,2.144407567e-04,9.190991930e-05,3.063506760e-04,7.631392486e-04,5.210362970e-05,8.152428783e-04,2.324155858e-04,1.018150801e-04,3.342306660e-04,7.684357233e-04,-2.051773550e-04,5.632583683e-04,4.156758645e-04,-1.049531786e-04,3.107226859e-04,5.867879113e-04,-1.342824167e-04,4.525054946e-04,9.940735353e-04,7.232687895e-05,1.066400414e-03,5.844893379e-04,-1.771771736e-04,4.073121642e-04,9.360017046e-04,-1.761502368e-04,7.598514678e-04,1.359869564e-04,-3.967020490e-05,9.631675151e-05,1.008217281e-03,-6.688780865e-05,9.413294724e-04,4.173040250e-04,-4.508913887e-05,3.722148861e-04,7.530612950e-04,4.340831025e-04,1.187144398e-03
-5.9,4.426089879e-04,1.398901699e-04,5.824991578e-04,1.973681471e-05,1.143613736e-05,3.117295207e-05,3.705587773e-04,9.442395902e-06,3.800011732e-04,5.568905355e-04,-9.943924138e-07,5.558961431e-04,3.011246336e-04,9.021318432e-06,3.101459520e-04,-1.214963886e-04,1.204525542e-04,-1.043834353e-06,9.869799457e-05,6.400458316e-06,1.050984529e-04,2.701555018e-04,-1.189367005e-04,1.512188013e-04,3.536266592e-04,-4.554879182e-05,3.080778674e-04,-1.648030774e-06,-1.343959954e-04,-1.360440262e-04,3.901545382e-04,-3.591347531e-05,3.542410628e-04,2.403915861e-04,-5.907224221e-05,1.813193439e-04,5.653278303e-06,4.912923538e-04,4.969456321e-04,5.277484194e-04,-5.641976970e-05,4.713286497e-04,3.834509618e-04,-2.379388997e-04,1.455120622e-04,1.035470344e-03,-1.097369831e-04,9.257333612e-04,1.398806423e-03,-2.027632994e-04,1.196043123e-03,2.959264327e-04,1.560001894e-04,4.519266221e-04,-1.193107192e-04,-4.329277635e-05,-1.626034955e-04,1.031429470e-04,-1.135511101e-04,-1.040816305e-05,5.449673028e-04,-5.449481932e-05,4.904724835e-04,5.774028442e-04,-5.733538869e-05,5.200674555e-04,3.560823690e-04,-1.611495204e-05,3.399674170e-04,2.109987458e-04,9.936456134e-05,3.103633071e-04,7.397577255e-04,5.489081185e-05,7.946485373e-04,2.293157829e-04,9.557017729e-05,3.248859602e-04,7.968395640e-04,-2.023067923e-04,5.945327717e-04,3.973721332e-04,-1.068848978e-04,2.904872354e-04,5.724594053e-04,-1.313298973e-04,4.411295080e-04,9.478623394e-04,6.892384040e-05,1.016786180e-03,5.706686903e-04,-1.896399684e-04,3.810287220e-04,8.578464427e-04,-1.588558472e-04,6.989905954e-04,1.438851536e-04,-4.461798804e-05,9.926716555e-05,1.014682490e-03,-6.422553681e-05,9.504569531e-04,4.113872173e-04,-4.375701442e-05,3.676302028e-04,7.095211982e-04,3.987826611e-04,1.108303859e-03
-5.8,4.719912630e-04,1.347523484e-04,6.067436114e-04,5.941399469e-05,1.469657830e-05,7.411057299e-05,3.439325622e-04,1.135474949e-05,3.552873117e-04,5.483280103e-04,-7.365495718e-07,5.475914607e-04,2.762381301e-04,9.450930603e-06,2.856890607e-04,-1.151512401e-04,1.207611554e-04,5.609915298e-06,9.623068549e-05,5.297782640e-06,1.015284681e-04,2.378541896e-04,-1.145332462e-04,1.233209433e-04,3.286367209e-04,-4.480905862e-05,2.838276623e-04,-6.064042633e-05,-1.281563305e-04,-1.887967569e-04,3.549811819e-04,-3.562402934e-05,3.193571526e-04,1.981437331e-04,-5.898246982e-05,1.391612633e-04,1.186884254e-05,4.747510024e-04,4.866198449e-04,4.722040265e-04,-5.205433831e-05,4.201496882e-04,3.580394371e-04,-2.321702931e-04,1.258691440e-04,9.769991696e-04,-1.049701225e-04,8.720290471e-04,1.352231347e-03,-1.869581389e-04,1.165273208e-03,2.770887592e-04,1.567262794e-04,4.338150386e-04,-8.806899813e-05,-4.169008142e-05,-1.297590795e-04,6.145091576e-05,-1.134818851e-04,-5.203096939e-05,5.090104013e-04,-5.431510586e-05,4.546952954e-04,5.436184362e-04,-4.708387312e-05,4.965345631e-04,3.434419990e-04,-1.216563908e-05,3.312763599e-04,2.068876673e-04,1.064728636e-04,3.133605308e-04,7.142258319e-04,5.745777527e-05,7.716836071e-04,2.260917876e-04,8.797308954e-05,3.140648771e-04,8.231713281e-04,-2.001323240e-04,6.230390040e-04,3.765228431e-04,-1.071943346e-04,2.693285086e-04,5.553016951e-04,-1.270307970e-04,4.282708981e-04,8.992423422e-04,6.492258485e-05,9.641649270e-04,5.539616019e-04,-2.004351715e-04,3.535264304e-04,7.762856378e-04,-1.399814788e-04,6.363041590e-04,1.503512419e-04,-4.963247039e-05,1.007187715e-04,1.017173899e-03,-6.191269066e-05,9.552612083e-04,4.037981056e-04,-4.313604141e-05,3.606620642e-04,6.612101289e-04,3.650015163e-04,1.026211645e-03
-5.7,4.983657291e-04,1.292274255e-04,6.275931546e-04,9.717083320e-05,1.804630460e-05,1.152171378e-04,3.167058453e-04,1.324093297e-05,3.299467782e-04,5.377133889e-04,-4.556048894e-07,5.372577840e-04,2.507661887e-04,9.948998974e-06,2.607151876e-04,-1.092566910e-04,1.209483759e-04,1.169168493e-05,9.332116075e-05,4.328453675e-06,9.764961443e-05,2.046476004e-04,-1.092798649e-04,9.536773547e-05,3.026821857e-04,-4.387962020e-05,2.588025655e-04,-1.190003756e-04,-1.213179884e-04,-2.403183640e-04,3.186650008e-04,-3.501919135e-05,2.836458095e-04,1.569050757e-04,-5.895191609e-05,9.795315962e-05,2.356536607e-05,4.512707493e-04,4.748361154e-04,4.155078458e-04,-4.783356861e-05,3.676742772e-04,3.309498327e-04,-2.247485621e-04,1.062012706e-04,9.153930231e-04,-1.004963823e-04,8.148966408e-04,1.301512532e-03,-1.707535059e-04,1.130759026e-03,2.578001139e-04,1.563619830e-04,4.141620969e-04,-5.646682103e-05,-3.994977964e-05,-9.641660068e-05,2.023988891e-05,-1.127726727e-04,-9.253278376e-05,4.717627294e-04,-5.374307360e-05,4.180196558e-04,5.080701118e-04,-3.668938138e-05,4.713807304e-04,3.298070329e-04,-8.078582005e-06,3.217284509e-04,2.020838866e-04,1.132033099e-04,3.152871965e-04,6.866578311e-04,5.968480543e-05,7.463426366e-04,2.227028909e-04,7.914653119e-05,3.018494221e-04,8.472767028e-04,-1.986779561e-04,6.485987467e-04,3.529405459e-04,-1.057055299e-04,2.472350160e-04,5.353154185e-04,-1.213992251e-04,4.139161934e-04,8.481513789e-04,6.044393445e-05,9.085953133e-04,5.342968274e-04,-2.093007988e-04,3.249960286e-04,6.918210564e-04,-1.197550697e-04,5.720659867e-04,1.554098951e-04,-5.465158504e-05,1.007583101e-04,1.015599421e-03,-5.996331550e-05,9.556361057e-04,3.945234662e-04,-4.326124389e-05,3.512622223e-04,6.091900907e-04,3.322491568e-04,9.414392474e-04
-5.6,5.216965396e-04,1.233134084e-04,6.450099480e-04,1.329900492e-04,2.148511580e-05,1.544751650e-04,2.889877271e-04,1.510280486e-05,3.040905319e-04,5.251032508e-04,-1.577888686e-07,5.249454619e-04,2.247257529e-04,1.050827914e-05,2.352340321e-04,-1.037905921e-04,1.210523976e-04,1.726180542e-05,8.995783655e-05,3.495229099e-06,9.345306565e-05,1.706198359e-04,-1.032370043e-04,6.738283163e-05,2.758109733e-04,-4.275636232e-05,2.330546110e-04,-1.766171944e-04,-1.138963367e-04,-2.905135311e-04,2.812907289e-04,-3.410725965e-05,2.471834692e-04,1.165878666e-04,-5.890178912e-05,5.768607745e-05,4.014870237e-05,4.212097570e-04,4.613584594e-04,3.577264050e-04,-4.374298190e-05,3.139834231e-04,3.022822725e-04,-2.157136672e-04,8.656860534e-05,8.507796907e-04,-9.628932142e-05,7.544903693e-04,1.246796650e-03,-1.542526885e-04,1.092543962e-03,2.382356386e-04,1.548267916e-04,3.930624302e-04,-2.443584726e-05,-3.822685765e-05,-6.266270491e-05,-2.051613778e-05,-1.114171783e-04,-1.319333161e-04,4.332654354e-04,-5.279593924e-05,3.804694961e-04,4.708090688e-04,-2.618687014e-05,4.446221987e-04,3.151820875e-04,-3.862629706e-06,3.113194578e-04,1.965666521e-04,1.195256335e-04,3.160922856e-04,6.571726012e-04,6.145671996e-05,7.186293212e-04,2.190846530e-04,6.924517067e-05,2.883298236e-04,8.689555071e-04,-1.979019956e-04,6.710535116e-04,3.264660980e-04,-1.022579186e-04,2.242081794e-04,5.125310208e-04,-1.144732647e-04,3.980577561e-04,7.945490683e-04,5.560538656e-05,8.501544549e-04,5.116196027e-04,-2.159941457e-04,2.956254570e-04,6.049740234e-04,-9.841741230e-05,5.065566111e-04,1.591012759e-04,-5.961338251e-05,9.948789339e-05,1.009888653e-03,-5.838722743e-05,9.515014257e-04,3.835490711e-04,-4.413603616e-05,3.394130350e-04,5.545711504e-04,2.999553482e-04,8.545264986e-04
-5.5,5.419665277e-04,1.170093693e-04,6.589758970e-04,1.668762793e-04,2.500929927e-05,1.918855786e-04,2.608845703e-04,1.694196355e-05,2.778265338e-04,5.105601116e-04,1.505876910e-07,5.107106993e-04,1.981318951e-04,1.112031655e-05,2.092522116e-04,-9.871621278e-05,1.211018237e-04,2.238561093e-05,8.613144170e-05,2.797632631e-06,8.892907433e-05,1.358668053e-04,-9.647704864e-05,3.938975668e-05,2.480765927e-04,-4.143721203e-05,2.066393807e-04,-2.333772184e-04,-1.059113509e-04,-3.392885694e-04,2.429536521e-04,-3.289994204e-05,2.100537101e-04,7.707505291e-05,-5.874031169e-05,1.833474122e-05,6.089109799e-05,3.851075046e-04,4.459986026e-04,2.989312952e-04,-3.976162677e-05,2.591696685e-04,2.721502950e-04,-2.051182625e-04,6.703203248e-05,7.832903606e-04,-9.229999834e-05,6.909903622e-04,1.188266471e-03,-1.375615368e-04,1.050704934e-03,2.185380989e-04,1.520593638e-04,3.705974627e-04,8.116995429e-06,-3.669635303e-05,-2.857935760e-05,-6.084409018e-05,-1.094128373e-04,-1.702569275e-04,3.935663961e-04,-5.149575022e-05,3.420706459e-04,4.319016460e-04,-1.561177517e-05,4.162898708e-04,2.995820528e-04,4.728740589e-07,3.000549269e-04,1.903197857e-04,1.254111803e-04,3.157309660e-04,6.258929870e-04,6.266565431e-05,6.885586413e-04,2.151521605e-04,5.845293806e-05,2.736050986e-04,8.879702549e-04,-1.977001491e-04,6.902701058e-04,2.969785644e-04,-9.671272174e-05,2.002658427e-04,4.870094660e-04,-1.063129600e-04,3.806965060e-04,7.384196349e-04,5.051814175e-05,7.889377767e-04,4.858957219e-04,-2.203038382e-04,2.655918837e-04,5.162804808e-04,-7.621401347e-05,4.400664673e-04,1.614806906e-04,-6.445681363e-05,9.702387695e-05,9.999967157e-04,-5.719175649e-05,9.428049592e-04,3.708625957e-04,-4.573161302e-05,3.251309827e-04,4.984876557e-04,2.674854069e-04,7.659730626e-04
-5.4,5.591774628e-04,1.103155825e-04,6.694930453e-04,1.988555184e-04,2.861152678e-05,2.274670451e-04,2.324988435e-04,1.875949667e-05,2.512583401e-04,4.941526208e-04,4.634055245e-07,4.946160263e-04,1.709983882e-04,1.177546522e-05,1.827738534e-04,-9.398143145e-05,1.211144058e-04,2.713297433e-05,8.183535038e-05,2.232455291e-06,8.406780567e-05,1.004965605e-04,-8.908282405e-05,1.141373645e-05,2.195366435e-04,-3.992219151e-05,1.796144520e-04,-2.891650475e-04,-9.738744364e-05,-3.865524911e-04,2.037577045e-04,-3.141231454e-05,1.723453900e-04,3.822478449e-05,-5.836491972e-05,-2.014013523e-05,8.495584683e-05,3.436701450e-04,4.286259919e-04,2.391993206e-04,-3.586185342e-05,2.033374672e-04,2.406796034e-04,-1.930245286e-04,4.765507477e-05,7.130613461e-04,-8.845903891e-05,6.246023072e-04,1.126137089e-03,-1.207872304e-04,1.005349858e-03,1.988274383e-04,1.480163087e-04,3.468437470e-04,4.130823392e-05,-3.554831553e-05,5.759918394e-06,-1.007697681e-04,-1.067612504e-04,-2.075310186e-04,3.527207028e-04,-4.986893503e-05,3.028517678e-04,3.914285044e-04,-4.999985127e-06,3.864285193e-04,2.830312004e-04,4.917732712e-06,2.879489331e-04,1.833321581e-04,1.308332020e-04,3.141653601e-04,5.929441195e-04,6.321308656e-05,6.561572061e-04,2.108025637e-04,4.697886252e-05,2.577814262e-04,9.040522102e-04,-1.979098148e-04,7.061423953e-04,2.644022543e-04,-8.896029488e-05,1.754419595e-04,4.588407145e-04,-9.699755480e-05,3.618431597e-04,6.797709062e-04,4.528574500e-05,7.250566512e-04,4.571153008e-04,-2.220608388e-04,2.350544619e-04,4.262839179e-04,-5.338863334e-05,3.728952846e-04,1.626156254e-04,-6.912319424e-05,9.349243119e-05,9.859017368e-04,-5.637953604e-05,9.295222007e-04,3.564544539e-04,-4.798778609e-05,3.084666678e-04,4.420696566e-04,2.341694101e-04,6.762390666e-04
-5.3,5.733493893e-04,1.032335501e-04,6.765829395e-04,2.289729476e-04,3.228088492e-05,2.612538325e-04,2.039271889e-04,2.055577641e-05,2.244829653e-04,4.759544795e-04,7.749683856e-07,4.767294479e-04,1.433371035e-04,1.246298080e-05,1.558000843e-04,-8.952020436e-05,1.210967447e-04,3.157654032e-05,7.706453256e-05,1.794383812e-06,7.885891637e-05,6.462801359e-05,-8.114561483e-05,-1.651760124e-05,1.902498301e-04,-3.821336237e-05,1.520364677e-04,-3.438662486e-04,-8.835319912e-05,-4.322194478e-04,1.638118792e-04,-2.966260605e-05,1.341492732e-04,-1.246449771e-07,-5.766571134e-05,-5.779035631e-05,1.114299802e-04,2.977433990e-04,4.091733792e-04,1.786114107e-04,-3.200925407e-05,1.466021566e-04,2.080049776e-04,-1.795016102e-04,2.850336740e-05,6.402348385e-04,-8.467921149e-05,5.555556270e-04,1.060648131e-03,-1.040354975e-04,9.566126335e-04,1.792117912e-04,1.426703240e-04,3.218821151e-04,7.527350779e-05,-3.498319621e-05,4.029031158e-05,-1.403169514e-04,-1.034687036e-04,-2.437856550e-04,3.107902013e-04,-4.794586086e-05,2.628443404e-04,3.494828552e-04,5.612096306e-06,3.550949515e-04,2.655616994e-04,9.460590396e-06,2.750222898e-04,1.755973671e-04,1.357669515e-04,3.113643186e-04,5.584503424e-04,6.301170882e-05,6.214620512e-04,2.059176623e-04,3.505163476e-05,2.409692970e-04,9.169062979e-04,-1.983174488e-04,7.185888491e-04,2.287112840e-04,-7.892761805e-05,1.497836660e-04,4.281403939e-04,-8.662212721e-05,3.415182667e-04,6.186315002e-04,4.000375332e-05,6.586352535e-04,4.252961802e-04,-2.211463321e-04,2.041498481e-04,3.355288520e-04,-3.017952246e-05,3.053493296e-04,1.625806964e-04,-7.355728115e-05,8.902341520e-05,9.675968571e-04,-5.594201918e-05,9.116548379e-04,3.403174966e-04,-5.081501534e-05,2.895024812e-04,3.864089202e-04,1.993403845e-04,5.857493047e-04
-5.2,5.845194351e-04,9.576603108e-05,6.802854662e-04,2.572897996e-04,3.600308438e-05,2.932928840e-04,1.752583935e-04,2.233036426e-05,1.975887577e-04,4.560427072e-04,1.080209724e-06,4.571229170e-04,1.151570953e-04,1.317120428e-05,1.283282995e-04,-8.525519271e-05,1.210446834e-04,3.578949070e-05,7.181397730e-05,1.476642694e-06,7.329061999e-05,2.838834027e-05,-7.276254380e-05,-4.437420352e-05,1.602729234e-04,-3.631469859e-05,1.239582248e-04,-3.973701997e-04,-7.884105332e-05,-4.762112530e-04,1.232264732e-04,-2.767185103e-05,9.555462216e-05,-3.814948150e-05,-5.652945329e-05,-9.467893479e-05,1.393631372e-04,2.482760441e-04,3.876391813e-04,1.172514818e-04,-2.816297041e-05,8.908851136e-05,1.742662408e-04,-1.646236393e-04,9.642601464e-06,5.649590620e-04,-8.085825775e-05,4.841008043e-04,9.920551121e-04,-8.740748413e-05,9.046476280e-04,1.597959850e-04,1.360091796e-04,2.958051646e-04,1.101605471e-04,-3.520691769e-05,7.495362936e-05,-1.795068636e-04,-9.954664244e-05,-2.790535061e-04,2.678427211e-04,-4.576040650e-05,2.220823146e-04,3.061685768e-04,1.618743382e-05,3.223560106e-04,2.472123389e-04,1.408882982e-05,2.613011687e-04,1.671132871e-04,1.401895285e-04,3.073028156e-04,5.225310408e-04,6.198775720e-05,5.845187980e-04,2.003670270e-04,2.291350057e-05,2.232805276e-04,9.262184678e-04,-1.986707096e-04,7.275477582e-04,1.899334854e-04,-6.658614140e-05,1.233473440e-04,3.950462222e-04,-7.529424972e-05,3.197519725e-04,5.550481324e-04,3.475992923e-05,5.898080616e-04,3.904875292e-04,-2.174958666e-04,1.729916626e-04,2.445576016e-04,-6.819245589e-06,2.377383560e-04,1.614517971e-04,-7.770742728e-05,8.374436981e-05,9.450802596e-04,-5.585133089e-05,8.892289288e-04,3.224466381e-04,-5.409733488e-05,2.683493033e-04,3.325242631e-04,1.623739370e-04,4.948982001e-04
-5.1,5.927407110e-04,8.791716397e-05,6.806578750e-04,2.838802449e-04,3.976081766e-05,3.236410625e-04,1.465721264e-04,2.408200578e-05,1.706541322e-04,4.344962286e-04,1.374829695e-06,4.358710583e-04,8.646454052e-05,1.388779829e-05,1.003523388e-04,-8.110022225e-05,1.209440514e-04,3.984382911e-05,6.607779793e-05,1.271491659e-06,6.734928959e-05,-8.090125200e-06,-6.403340469e-05,-7.212352989e-05,1.296594154e-04,-3.423191191e-05,9.542750347e-05,-4.495714871e-04,-6.888694799e-05,-5.184584350e-04,8.211099204e-05,-2.546346779e-05,5.664752424e-05,-7.603401465e-05,-5.484396652e-05,-1.308779812e-04,1.678099749e-04,1.962787185e-04,3.640886934e-04,5.520651740e-05,-2.427626104e-05,3.093025636e-05,1.396052895e-04,-1.484683703e-04,-8.863080799e-06,4.873886381e-04,-7.688202334e-05,4.105066148e-04,9.206230549e-04,-7.099758673e-05,8.496254681e-04,1.406857537e-04,1.280366064e-04,2.687223601e-04,1.461206170e-04,-3.642499613e-05,1.096956209e-04,-2.183570949e-04,-9.501183073e-05,-3.133689257e-04,2.239516915e-04,-4.334940817e-05,1.806022833e-04,2.615989751e-04,2.668831578e-05,2.882872909e-04,2.280280358e-04,1.878868027e-05,2.468167161e-04,1.578822389e-04,1.440794845e-04,3.019617234e-04,4.852968389e-04,6.008365147e-05,5.453804903e-04,1.940125788e-04,1.081397014e-05,2.048265490e-04,9.316682156e-04,-1.986949070e-04,7.329733086e-04,1.481551317e-04,-5.196007090e-05,9.619506082e-05,3.597159562e-04,-6.313130227e-05,2.965846539e-04,4.890845799e-04,2.963470362e-05,5.187192836e-04,3.527745282e-04,-2.111006854e-04,1.416738428e-04,1.539111298e-04,1.646255456e-05,1.703736844e-04,1.593015058e-04,-8.152540815e-05,7.777609762e-05,9.183480076e-04,-5.605433296e-05,8.622936747e-04,3.028400545e-04,-5.769590101e-05,2.451441535e-04,2.813326954e-04,1.227220285e-04,4.040547239e-04
-5,5.980820211e-04,7.969267818e-05,6.777746993e-04,3.088293709e-04,4.353414756e-05,3.523635185e-04,1.179391956e-04,2.580865988e-05,1.437478554e-04,4.113958120e-04,1.655291960e-06,4.130511040e-04,5.726466649e-05,1.459997405e-05,7.186464054e-05,-7.696158224e-05,1.207716796e-04,4.381009734e-05,5.985012869e-05,1.170533365e-06,6.102066205e-05,-4.467227759e-05,-5.505728761e-05,-9.972956519e-05,9.846129038e-05,-3.197223182e-05,6.648905856e-05,-5.003685449e-04,-5.852999865e-05,-5.588985436e-04,4.057519385e-05,-2.306280649e-05,1.751238735e-05,-1.139614993e-04,-5.250315586e-05,-1.664646552e-04,1.958717615e-04,1.427828317e-04,3.386545932e-04,-7.431229033e-06,-2.029710879e-05,-2.772833782e-05,1.041664733e-04,-1.311161988e-04,-2.694972550e-05,4.076861024e-04,-7.262798196e-05,3.350581204e-04,8.466235844e-04,-5.489228757e-05,7.917312968e-04,1.219873845e-04,1.187760552e-04,2.407634397e-04,1.832995608e-04,-3.883559344e-05,1.444639673e-04,-2.568790981e-04,-8.988609877e-05,-3.467651969e-04,1.791967573e-04,-4.075187868e-05,1.384448786e-04,2.158966835e-04,3.707644642e-05,2.529731299e-04,2.080602989e-04,2.354538680e-05,2.316056857e-04,1.479123617e-04,1.474162670e-04,2.953286287e-04,4.468480975e-04,5.726010014e-05,5.041081976e-04,1.867160630e-04,-9.967088847e-07,1.857193541e-04,9.329456885e-04,-1.981112924e-04,7.348343961e-04,1.035270270e-04,-3.513430967e-05,6.839271729e-05,3.223279407e-04,-5.025885598e-05,2.720690848e-04,4.208231226e-04,2.470165336e-05,4.455247759e-04,3.122848000e-04,-2.020077416e-04,1.102770584e-04,6.413188742e-05,3.943604637e-05,1.035679338e-04,1.561974480e-04,-8.496614634e-05,7.123130166e-05,8.873930383e-04,-5.647104799e-05,8.309219903e-04,2.815039433e-04,-6.145310910e-05,2.200508342e-04,2.336294535e-04,7.993729701e-05,3.135667505e-04
-4.9,6.006288317e-04,7.110015418e-05,6.717289859e-04,3.322328775e-04,4.730084643e-05,3.795337239e-04,8.942349075e-05,2.750753887e-05,1.169310296e-04,3.868258984e-04,1.918714338e-06,3.887446127e-04,2.756607427e-05,1.529466876e-05,4.286074303e-05,-7.273795715e-05,1.204967764e-04,4.775881921e-05,5.312819962e-05,1.164928644e-06,5.429312827e-05,-8.122091713e-05,-4.592942269e-05,-1.271503398e-04,6.673396109e-05,-2.954416625e-05,3.718979484e-05,-5.496594698e-04,-4.781223230e-05,-5.974717021e-04,-1.266681035e-06,-2.049671827e-05,-2.176339930e-05,-1.521024789e-04,-4.941245599e-05,-2.015149349e-04,2.227314624e-04,8.880291780e-05,3.115343802e-04,-7.055988456e-05,-1.616897676e-05,-8.672886132e-05,6.810067424e-05,-1.126489964e-04,-4.454832216e-05,3.260246387e-04,-6.796877225e-05,2.580558664e-04,7.703351036e-04,-3.916934425e-05,7.311657594e-04,1.038029028e-04,1.082775937e-04,2.120804965e-04,2.218288819e-04,-4.262124703e-05,1.792076349e-04,-2.950739432e-04,-8.419595052e-05,-3.792698937e-04,1.336655469e-04,-3.800808638e-05,9.565746050e-05,1.691946218e-04,4.731308866e-05,2.165077105e-04,1.873682897e-04,2.834326230e-05,2.157115520e-04,1.372201801e-04,1.501796891e-04,2.873998693e-04,4.072765896e-04,5.349699687e-05,4.607735865e-04,1.783496372e-04,-1.227443497e-05,1.660752023e-04,9.297709444e-04,-1.966551314e-04,7.331158129e-04,5.627174996e-05,-1.626097280e-05,4.001077716e-05,2.830839406e-04,-3.681009883e-05,2.462738417e-04,3.503679115e-04,2.002766178e-05,3.703955733e-04,2.691958151e-04,-1.903192225e-04,7.887659257e-05,-2.423426184e-05,6.187002980e-05,3.763576797e-05,1.522041584e-04,-8.798695992e-05,6.421719850e-05,8.522104976e-04,-5.699686575e-05,7.952136319e-04,2.584615945e-04,-6.519753203e-05,1.932640625e-04,1.900757383e-04,3.368890044e-05,2.237646388e-04
-4.8,6.004852575e-04,6.214934938e-05,6.626346069e-04,3.541981258e-04,5.103673382e-05,4.052348597e-04,6.108493557e-05,2.917515856e-05,9.026009413e-05,3.608778955e-04,2.162792072e-06,3.630406876e-04,-2.613407762e-06,1.595867712e-05,1.334526936e-05,-6.831971549e-05,1.200826588e-04,5.176294335e-05,4.591686021e-05,1.245625039e-06,4.716248524e-05,-1.175956331e-04,-3.673869192e-05,-1.543343250e-04,3.454260652e-05,-2.695730739e-05,7.585299125e-06,-5.973366419e-04,-3.677841960e-05,-6.341150615e-04,-4.329032847e-05,-1.779321043e-05,-6.108353890e-05,-1.906027685e-04,-4.549376694e-05,-2.360965354e-04,2.476766800e-04,3.530541326e-05,2.829820932e-04,-1.340623427e-04,-1.183227047e-05,-1.458946132e-04,3.157093417e-05,-9.314859925e-05,-6.157766508e-05,2.425912256e-04,-6.277535386e-05,1.798158718e-04,6.920450576e-04,-2.389727589e-05,6.681477817e-04,8.622076307e-05,9.662674999e-05,1.828475131e-04,2.618165542e-04,-4.793895117e-05,2.138776030e-04,-3.329271770e-04,-7.797235154e-05,-4.108995285e-04,8.745600899e-05,-3.515865452e-05,5.229735447e-05,1.216371887e-04,5.735915163e-05,1.789963404e-04,1.660197514e-04,3.316557336e-05,1.991853248e-04,1.258335585e-04,1.523496388e-04,2.781831973e-04,3.666694348e-04,4.879315055e-05,4.154625853e-04,1.688073118e-04,-2.278807739e-05,1.460192344e-04,9.219132649e-04,-1.940930393e-04,7.278202256e-04,6.690758946e-06,4.436572231e-06,1.112733118e-05,2.422121633e-04,-2.292545233e-05,2.192867109e-04,2.778485380e-04,1.567263292e-05,2.935211709e-04,2.237407119e-04,-1.761911068e-04,4.754960507e-05,-1.106387352e-04,8.353301050e-05,-2.710572473e-05,1.473874971e-04,-9.054622850e-05,5.684126856e-05,8.128067551e-04,-5.750683313e-05,7.552999220e-04,2.337649274e-04,-6.874984006e-05,1.650150874e-04,1.511903551e-04,-1.622648173e-05,1.349638733e-04
-4.7,5.977761873e-04,5.285262698e-05,6.506288143e-04,3.748453525e-04,5.471609529e-05,4.295614478e-04,3.298228530e-05,3.080737184e-05,6.378965714e-05,3.336537662e-04,2.385823331e-06,3.360395895e-04,-3.324110028e-05,1.657877148e-05,-1.666232880e-05,-6.358850295e-05,1.194884504e-04,5.589994744e-05,3.823307573e-05,1.403609074e-06,3.963668481e-05,-1.536507738e-04,-2.756618919e-05,-1.812169630e-04,1.967435243e-06,-2.422222063e-05,-2.225478539e-05,-6.432824733e-04,-2.547594410e-05,-6.687584174e-04,-8.535701000e-05,-1.498121648e-05,-1.003382265e-04,-2.295739528e-04,-4.068895789e-05,-2.702629107e-04,2.701082728e-04,-1.681390091e-05,2.532943718e-04,-1.978006829e-04,-7.227016794e-06,-2.050276997e-04,-5.243083040e-06,-7.269587385e-05,-7.793895689e-05,1.575895981e-04,-5.692031584e-05,1.006692822e-04,6.120527108e-04,-9.135523414e-06,6.029171874e-04,6.930341078e-05,8.395250855e-05,1.532559193e-04,3.033367933e-04,-5.490902825e-05,2.484277651e-04,-3.704044444e-04,-7.125069723e-05,-4.416551417e-04,4.067830847e-05,-3.224371942e-05,8.434589053e-06,7.338058649e-05,6.717526252e-05,1.405558490e-04,1.440911305e-04,3.799433844e-05,1.820854690e-04,1.137938857e-04,1.539061496e-04,2.677000354e-04,3.251133963e-04,4.316536279e-05,3.682787591e-04,1.580138265e-04,-3.232543234e-05,1.256883941e-04,9.092091236e-04,-1.902396373e-04,7.189694863e-04,-4.483092554e-05,2.666341756e-05,-1.816750798e-05,1.999677038e-04,-8.751172715e-06,1.912165311e-04,2.034219220e-04,1.168924393e-05,2.151111659e-04,1.762097038e-04,-1.598298205e-04,1.637988329e-05,-1.945346724e-04,1.041959729e-04,-9.033869949e-05,1.418197304e-04,-9.260187139e-05,4.921785900e-05,7.692087944e-04,-5.786120051e-05,7.113475938e-04,2.075052257e-04,-7.192969677e-05,1.355755289e-04,1.173414183e-04,-6.987625838e-05,4.746515989e-05
-4.6,5.926486124e-04,4.322543272e-05,6.358740451e-04,3.943078266e-04,5.831214678e-05,4.526199734e-04,5.174809071e-06,3.239932436e-05,3.757413343e-05,3.052686956e-04,2.586753118e-06,3.078554487e-04,-6.426565669e-05,1.714183708e-05,-4.712381962e-05,-5.841759756e-05,1.186701516e-04,6.025255408e-05,3.010901174e-05,1.630145077e-06,3.173915682e-05,-1.892337079e-04,-1.848490734e-05,-2.077186152e-04,-3.089382372e-05,-2.135037769e-05,-5.224420141e-05,-6.873678849e-04,-1.395458625e-05,-7.013224711e-04,-1.273121359e-04,-1.209042456e-05,-1.394025604e-04,-2.690879501e-04,-3.496144957e-05,-3.040493996e-04,2.895379326e-04,-6.674503683e-05,2.227928958e-04,-2.616119668e-04,-2.296622946e-06,-2.639085898e-04,-4.214304610e-05,-5.137183697e-05,-9.351488307e-05,7.124294047e-05,-5.028239443e-05,2.096054604e-05,5.306701710e-04,5.064739890e-06,5.357349109e-04,5.307609432e-05,7.043063220e-05,1.235067265e-04,3.464189500e-04,-6.360450740e-05,2.828144426e-04,-4.074492790e-04,-6.407074358e-05,-4.715200225e-04,-6.544516432e-06,-2.930207871e-05,-3.584659514e-05,2.459156496e-05,7.672195645e-05,1.013135214e-04,1.216665291e-04,4.281008880e-05,1.644766179e-04,1.011567080e-04,1.548298250e-04,2.559865330e-04,2.826979587e-04,3.664736234e-05,3.193453210e-04,1.459287764e-04,-4.069781901e-05,1.052309574e-04,8.915778409e-04,-1.849729755e-04,7.066048653e-04,-9.782495885e-05,5.005772180e-05,-4.776723705e-05,1.566291054e-04,5.563395752e-06,1.621925011e-04,1.272713860e-04,8.123595684e-06,1.353949817e-04,1.269458134e-04,-1.414869633e-04,-1.454114989e-05,-2.753862615e-04,1.236364248e-04,-1.517498367e-04,1.355836510e-04,-9.411053259e-05,4.147311840e-05,7.214724023e-04,-5.791262670e-05,6.635597756e-04,1.798201747e-04,-7.456333767e-05,1.052568371e-04,8.873730506e-05,-1.271878968e-04,-3.845059174e-05
-4.5,5.852716177e-04,3.328667148e-05,6.185582892e-04,4.127302782e-04,6.179742522e-05,4.745277034e-04,-2.227756764e-05,3.394529942e-05,1.166773177e-05,2.758520807e-04,2.765129480e-06,2.786172102e-04,-9.561578253e-05,1.763502927e-05,-7.798075326e-05,-5.267341246e-05,1.175810870e-04,6.490767458e-05,2.159292195e-05,1.917006767e-06,2.350992872e-05,-2.241842994e-04,-9.560182217e-06,-2.337444816e-04,-6.392668041e-05,-1.835406676e-05,-8.228074718e-05,-7.294539410e-04,-2.266127471e-06,-7.317200685e-04,-1.689872663e-04,-9.151060357e-06,-1.781383267e-04,-3.091755358e-04,-2.829589187e-05,-3.374714276e-04,3.055796485e-04,-1.137747943e-04,1.918048542e-04,-3.253065235e-04,3.007978354e-06,-3.222985451e-04,-7.891212233e-05,-2.926150221e-05,-1.081736245e-04,-1.620377325e-05,-4.275259201e-05,-5.895636526e-05,4.482195323e-04,1.865966539e-05,4.668791977e-04,3.752207618e-05,5.627905149e-05,9.380112767e-05,3.910375809e-04,-7.404337150e-05,3.169942094e-04,-4.439835499e-04,-5.647644759e-05,-5.004599974e-04,-5.407740484e-05,-2.637033738e-05,-8.044774222e-05,-2.455554660e-05,8.596002863e-05,6.140448203e-05,9.883538258e-05,4.759155109e-05,1.464269337e-04,8.799066221e-05,1.551024820e-04,2.430931442e-04,2.395164719e-04,2.928877905e-05,2.688052510e-04,1.325458558e-04,-4.774350069e-05,8.480235511e-05,8.690336126e-04,-1.782470529e-04,6.907865597e-04,-1.517468450e-04,7.420050873e-05,-7.754633626e-05,1.124918662e-04,1.986909614e-05,1.323609623e-04,4.960289116e-05,5.016956113e-06,5.461984727e-05,7.633574897e-05,-1.214531395e-04,-4.511739052e-05,-3.526826938e-04,1.416428997e-04,-2.110397941e-04,1.287749265e-04,-9.502856612e-05,3.374636033e-05,6.696887197e-04,-5.751487095e-05,6.121738487e-04,1.508952913e-04,-7.649093959e-05,7.440435172e-05,6.541829989e-05,-1.879503369e-04,-1.225320370e-04
-4.4,5.758349162e-04,2.305890107e-05,5.988938172e-04,4.302654867e-04,6.514406811e-05,4.954095548e-04,-4.931559974e-05,3.543851188e-05,-1.387708786e-05,2.455466163e-04,2.920975659e-06,2.484675920e-04,-1.272013941e-04,1.804596768e-05,-1.091554264e-04,-4.621865435e-05,1.161724628e-04,6.995380841e-05,1.274772652e-05,2.256741950e-06,1.500446847e-05,-2.583360760e-04,-8.502405644e-07,-2.591863166e-04,-9.700342538e-05,-1.524625866e-05,-1.122496840e-04,-7.693961432e-04,9.536212011e-06,-7.598599312e-04,-2.102049829e-04,-6.193571473e-06,-2.163985544e-04,-3.498277924e-04,-2.069639551e-05,-3.705241879e-04,3.179379196e-04,-1.572945219e-04,1.606433977e-04,-3.886690457e-04,8.724374130e-06,-3.799446715e-04,-1.153167573e-04,-6.459754912e-06,-1.217765122e-04,-1.044820749e-04,-3.424138936e-05,-1.387234643e-04,3.650253583e-04,3.161243794e-05,3.966377963e-04,2.258597672e-05,4.174490319e-05,6.433087991e-05,4.371054421e-04,-8.618457471e-05,3.509208674e-04,-4.799102146e-04,-4.851584972e-05,-5.284260643e-04,-1.017754662e-04,-2.348218503e-05,-1.252576512e-04,-7.388318204e-05,9.485095281e-05,2.096777077e-05,7.568900677e-05,5.231523696e-05,1.280042437e-04,7.437502963e-05,1.547078335e-04,2.290828632e-04,1.956653014e-04,2.115397368e-05,2.168192751e-04,1.178883413e-04,-5.333029318e-05,6.455804809e-05,8.416916466e-04,-1.700989455e-04,6.715927011e-04,-2.059906188e-04,9.862980359e-05,-1.073608152e-04,6.786026038e-05,3.401998717e-05,1.018802476e-04,-2.936060990e-05,2.407708684e-06,-2.695290122e-05,2.479796112e-05,-1.000518367e-04,-7.525387556e-05,-4.259546680e-04,1.580188233e-04,-2.679358448e-04,1.215026739e-04,-9.531521790e-05,2.618745605e-05,6.139882118e-04,-5.653111549e-05,5.574570963e-04,1.209595567e-04,-7.757291075e-05,4.338664597e-05,4.725099983e-05,-2.518191002e-04,-2.045681004e-04
-4.3,5.645460980e-04,1.256842127e-05,5.771145192e-04,4.470693738e-04,6.832406328e-05,5.153934371e-04,-7.588309722e-05,3.687096206e-05,-3.901213516e-05,2.145057393e-04,3.054646129e-06,2.175603854e-04,-1.589165597e-04,1.836299334e-05,-1.405535663e-04,-3.891684587e-05,1.143945431e-04,7.547769719e-05,3.647784222e-06,2.642971734e-06,6.290755956e-06,-2.915190191e-04,7.593549169e-06,-2.839254700e-04,-1.299883188e-04,-1.204045348e-05,-1.420287723e-04,-8.070502374e-04,2.139840371e-05,-7.856518337e-04,-2.507853625e-04,-3.248242916e-06,-2.540336054e-04,-3.909995111e-04,-1.218388508e-05,-4.031833962e-04,3.263937755e-04,-1.968024337e-04,1.295913418e-04,-4.514619179e-04,1.487517490e-05,-4.365867430e-04,-1.511095970e-04,1.692215714e-05,-1.341874399e-04,-1.932992297e-04,-2.468616024e-05,-2.179853899e-04,2.814032841e-04,4.389464211e-05,3.252979262e-04,8.182574813e-06,2.708670873e-05,3.526928354e-05,4.844682356e-04,-9.992622757e-05,3.845420081e-04,-5.151176292e-04,-4.024094624e-05,-5.553585755e-04,-1.494871235e-04,-2.066788794e-05,-1.701550114e-04,-1.232155381e-04,1.033572703e-04,-1.985826778e-05,5.231655603e-05,5.695506001e-05,1.092716160e-04,6.039647300e-05,1.536320905e-04,2.140285635e-04,1.512412680e-04,1.232050238e-05,1.635617704e-04,1.020024377e-04,-5.735739380e-05,4.464504389e-05,8.097667251e-04,-1.606485959e-04,6.491181292e-04,-2.599091346e-04,1.228569578e-04,-1.370521767e-04,2.303821661e-05,4.787621968e-05,7.091443629e-05,-1.093853661e-04,3.326102416e-07,-1.090527558e-04,-2.722950235e-05,-7.763378299e-05,-1.048632853e-04,-4.947910029e-04,1.725856161e-04,-3.222053868e-04,1.138889143e-04,-9.493737810e-05,1.895153618e-05,5.545417160e-04,-5.484025906e-05,4.997014570e-04,9.027700111e-05,-7.769487511e-05,1.258212600e-05,3.392975447e-05,-3.183275039e-04,-2.843977495e-04
-4.2,5.516270207e-04,1.845381874e-06,5.534724025e-04,4.632953536e-04,7.130956315e-05,5.346049167e-04,-1.019295844e-04,3.823340401e-05,-6.369618037e-05,1.828901221e-04,3.166684286e-06,1.860568064e-04,-1.906432387e-04,1.857548283e-05,-1.720677559e-04,-3.063679514e-05,1.121980937e-04,8.156129859e-05,-5.625140912e-06,3.070652303e-06,-2.554488609e-06,-3.235632222e-04,1.572647561e-05,-3.078367466e-04,-1.627428740e-04,-8.750525013e-06,-1.714933990e-04,-8.422780117e-04,3.326621972e-05,-8.090117920e-04,-2.905523847e-04,-3.447859526e-07,-2.908971707e-04,-4.326139815e-04,-2.793037722e-06,-4.354070193e-04,3.307887968e-04,-2.318982218e-04,9.889057491e-05,-5.134298666e-04,2.146541027e-05,-4.919644564e-04,-1.860329807e-04,4.075074390e-05,-1.452822368e-04,-2.823386221e-04,-1.405768688e-05,-2.963963089e-04,1.976464561e-04,5.548990981e-05,2.531363659e-04,-5.793201350e-06,1.255705637e-05,6.763855018e-06,5.328994017e-04,-1.151046098e-04,4.177947919e-04,-5.494844988e-04,-3.170722524e-05,-5.811917240e-04,-1.970576690e-04,-1.795390649e-05,-2.150115755e-04,-1.723832458e-04,1.114429848e-04,-6.094026101e-05,2.880131361e-05,6.148217833e-05,9.028349195e-05,4.614566158e-05,1.518644657e-04,1.980101272e-04,1.063380726e-04,2.877234526e-06,1.092153072e-04,8.495056943e-05,-5.975640574e-05,2.519416369e-05,7.735645425e-04,-1.500909425e-04,6.234736001e-04,-3.128359414e-04,1.463823002e-04,-1.664536412e-04,-2.167972547e-05,6.130704003e-05,3.962731455e-05,-1.902322326e-04,-1.172747310e-06,-1.914049799e-04,-7.929861149e-05,-5.457204062e-05,-1.338706521e-04,-5.588533100e-04,1.851861498e-04,-3.736671603e-04,1.060677346e-04,-9.387480409e-05,1.219293047e-05,4.915600933e-04,-5.234142538e-05,4.392186679e-04,5.913670788e-05,-7.677133431e-05,-1.763462642e-05,2.498966914e-05,-3.869096893e-04,-3.619200201e-04
-4.1,5.373100351e-04,-9.076103837e-06,5.282339312e-04,4.790890153e-04,7.407326691e-05,5.531622822e-04,-1.274123269e-04,3.951540710e-05,-8.789691984e-05,1.508641667e-04,3.257640443e-06,1.541218072e-04,-2.222546734e-04,1.867416378e-05,-2.035805097e-04,-2.125548356e-05,1.095353687e-04,8.827988515e-05,-1.498545161e-05,3.536189139e-06,-1.144926247e-05,-3.543022905e-04,2.350984066e-05,-3.307924498e-04,-1.951295673e-04,-5.390548606e-06,-2.005201159e-04,-8.749514812e-04,4.508578094e-05,-8.298657002e-04,-3.293385400e-04,2.488085486e-06,-3.268504545e-04,-4.745682364e-04,7.430682667e-06,-4.671375537e-04,3.310094946e-04,-2.622717704e-04,6.873772420e-05,-5.743050263e-04,2.848148935e-05,-5.458235370e-04,-2.198223035e-04,6.486582714e-05,-1.549564763e-04,-3.712614018e-04,-2.364416354e-06,-3.736258181e-04,1.140122609e-04,6.639901114e-05,1.804112720e-04,-1.945803850e-05,-1.610320527e-06,-2.106835902e-05,5.820967147e-04,-1.314954892e-04,4.506012255e-04,-5.828842959e-04,-2.297270367e-05,-6.058569996e-04,-2.443325092e-04,-1.536250946e-05,-2.596950187e-04,-2.212266764e-04,1.190740662e-04,-1.021526102e-04,5.218285441e-06,6.586517961e-05,7.108346505e-05,3.171459523e-05,1.493975931e-04,1.811121884e-04,6.104307135e-05,-7.077827853e-06,5.396524350e-05,6.680682255e-05,-6.049170908e-05,6.315113474e-06,7.334674237e-04,-1.386811826e-04,5.947862411e-04,-3.641048439e-04,1.687083020e-04,-1.953965419e-04,-6.601546321e-05,7.419362574e-05,8.178162531e-06,-2.716597411e-04,-2.074363686e-06,-2.737341048e-04,-1.309571771e-04,-3.125720634e-05,-1.622143834e-04,-6.178867097e-04,1.956894201e-04,-4.221972896e-04,9.818508357e-05,-9.212486979e-05,6.060213779e-06,4.252947190e-04,-4.895794908e-05,3.763367700e-04,2.784353059e-05,-7.474787019e-05,-4.690433959e-05,1.983084951e-05,-4.569331820e-04,-4.371023325e-04
-4,5.218348474e-04,-2.015799807e-05,5.016768493e-04,4.945843012e-04,7.658876076e-05,5.711730619e-04,-1.522969826e-04,4.070549043e-05,-1.115914922e-04,1.185934531e-04,3.327839545e-06,1.219212926e-04,-2.536174057e-04,1.865135977e-05,-2.349660460e-04,-1.065880116e-05,1.063603511e-04,9.570154991e-05,-2.434571246e-05,4.037330029e-06,-2.030838243e-05,-3.835756038e-04,3.090985131e-05,-3.526657524e-04,-2.270128231e-04,-1.974608090e-06,-2.289874312e-04,-9.049543414e-04,5.680402140e-05,-8.481503200e-04,-3.669864266e-04,5.223057332e-06,-3.617633693e-04,-5.167370187e-04,1.843328645e-05,-4.983037322e-04,3.269786755e-04,-2.876926150e-04,3.928606048e-05,-6.338116372e-04,3.589209931e-05,-5.979195379e-04,-2.522089528e-04,8.907833174e-05,-1.631306210e-04,-4.597091662e-04,1.034660487e-05,-4.493625613e-04,3.071218131e-05,7.664430291e-05,1.073564842e-04,-3.293445179e-05,-1.520772403e-05,-4.814217583e-05,6.316843729e-04,-1.488197384e-04,4.828646345e-04,-6.151879562e-04,-1.409682356e-05,-6.292847798e-04,-2.911593733e-04,-1.291142936e-05,-3.040708026e-04,-2.695971897e-04,1.262190743e-04,-1.433781154e-04,-1.836639760e-05,7.007055702e-05,5.170415943e-05,1.719531421e-05,1.462279081e-04,1.634232223e-04,1.543608454e-05,-1.744014707e-05,-2.004062529e-06,4.765575403e-05,-5.956012738e-05,-1.190437335e-05,6.899169363e-04,-1.267144863e-04,5.632024499e-04,-4.130656502e-04,1.893507152e-04,-2.237149350e-04,-1.097108975e-04,8.643130282e-05,-2.327959466e-05,-3.534234563e-04,-2.341763893e-06,-3.557652202e-04,-1.817518313e-04,-8.091202255e-06,-1.898430336e-04,-6.717249699e-04,2.039959055e-04,-4.677290644e-04,9.040061534e-05,-8.970644074e-05,6.941745991e-07,3.560401692e-04,-4.464165281e-05,3.113985164e-04,-3.288526088e-06,-7.160204291e-05,-7.489056900e-05,1.775095129e-05,-5.277315373e-04,-5.099805860e-04
-3.9,5.054464440e-04,-3.135863502e-05,4.740878090e-04,5.099018417e-04,7.883070789e-05,5.887325496e-04,-1.765567583e-04,4.179134070e-05,-1.347654176e-04,8.624364803e-05,3.377172901e-06,8.962082093e-05,-2.845915985e-04,1.850111834e-05,-2.660904802e-04,1.259266707e-06,1.026286509e-04,1.038879176e-04,-3.361671498e-05,4.572847996e-06,-2.904386698e-05,-4.112292326e-04,3.789648841e-05,-3.733327442e-04,-2.582575310e-04,1.483368140e-06,-2.567741628e-04,-9.321808734e-04,6.836902040e-05,-8.638118530e-04,-4.033475708e-04,7.834516330e-06,-3.955130545e-04,-5.589743230e-04,3.015346389e-05,-5.288208591e-04,3.186578169e-04,-3.080055358e-04,1.065228111e-05,-6.916702557e-04,4.365078681e-05,-6.480194689e-04,-2.829231902e-04,1.131711329e-04,-1.697520573e-04,-5.473070534e-04,2.399191574e-05,-5.233151377e-04,-5.209330441e-05,8.627189917e-05,3.417859476e-05,-4.634560503e-05,-2.805587474e-05,-7.440147977e-05,6.812218308e-04,-1.667528661e-04,5.144689646e-04,-6.462644416e-04,-5.139809431e-06,-6.514042511e-04,-3.373892678e-04,-1.061374348e-05,-3.480030113e-04,-3.173564361e-04,1.328497893e-04,-1.845066468e-04,-4.189458818e-05,7.406332351e-05,3.216873533e-05,2.680059388e-06,1.423560895e-04,1.450361489e-04,-3.040891582e-05,-2.810169473e-05,-5.851061055e-05,2.759408858e-05,-5.698965547e-05,-2.939556689e-05,6.433971099e-04,-1.145028172e-04,5.288942927e-04,-4.590972457e-04,2.078496012e-04,-2.512476445e-04,-1.525283389e-04,9.793116907e-05,-5.459716979e-05,-4.352719448e-04,-1.951593919e-06,-4.372235388e-04,-2.312298606e-04,1.452080440e-05,-2.167090563e-04,-7.202900821e-04,2.100424798e-04,-5.102476023e-04,8.289248033e-05,-8.666268118e-05,-3.770200845e-06,2.841390097e-04,-3.937709358e-05,2.447619161e-04,-3.393939549e-05,-6.734368052e-05,-1.012830760e-04,1.798414832e-05,-5.986319354e-04,-5.806477871e-04
-3.8,4.883937241e-04,-4.263320248e-05,4.457605216e-04,5.251490281e-04,8.077493661e-05,6.059239647e-04,-2.001707542e-04,4.276009624e-05,-1.574106579e-04,5.398049748e-05,3.405017519e-06,5.738551500e-05,-3.150304596e-04,1.821921357e-05,-2.968112460e-04,1.459770780e-05,9.829774080e-05,1.128954486e-04,-4.270635091e-05,5.142092834e-06,-3.756425808e-05,-4.371159460e-04,4.444270943e-05,-3.926732366e-04,-2.887268451e-04,4.969672638e-06,-2.837571725e-04,-9.565338776e-04,7.973016865e-05,-8.768037089e-04,-4.382802638e-04,1.029867935e-05,-4.279815845e-04,-6.011135836e-04,4.252293080e-05,-5.585906528e-04,3.060553998e-04,-3.231313786e-04,-1.707597883e-05,-7.476020845e-04,5.169943940e-05,-6.959026451e-04,-3.116982588e-04,1.369035771e-04,-1.747946817e-04,-6.336668405e-04,3.845557734e-05,-5.952112632e-04,-1.342948127e-04,9.535131291e-05,-3.894349983e-05,-5.980719767e-05,-4.000456519e-05,-9.981176286e-05,7.302182247e-04,-1.849368304e-04,5.452813944e-04,-6.759800846e-04,3.837288840e-06,-6.721427958e-04,-3.828767430e-04,-8.478059835e-06,-3.913548029e-04,-3.643746435e-04,1.389417647e-04,-2.254328788e-04,-6.531465233e-05,7.780764836e-05,1.249299603e-05,-1.173783450e-05,1.377876600e-04,1.260498255e-04,-7.641995201e-05,-3.895421652e-05,-1.153741685e-04,6.733759983e-06,-5.283749981e-05,-4.610373983e-05,5.944216186e-04,-1.023533983e-04,4.920682202e-04,-5.016204150e-04,2.237819428e-04,-2.778384722e-04,-1.942494293e-04,1.086213662e-04,-8.562806309e-05,-5.169419256e-04,-8.917874876e-07,-5.178337131e-04,-2.789417131e-04,3.617968091e-05,-2.427620322e-04,-7.635881234e-04,2.138061192e-04,-5.497820042e-04,7.586344944e-05,-8.306217539e-05,-7.198725946e-06,2.099873019e-04,-3.318457446e-05,1.768027275e-04,-6.378363225e-05,-6.201513204e-05,-1.257987643e-04,1.974238265e-05,-6.689790990e-04,-6.492367164e-04
-3.7,4.709279461e-04,-5.393428320e-05,4.169936629e-04,5.404205928e-04,8.239857971e-05,6.228191726e-04,-2.231225232e-04,4.359861394e-05,-1.795239093e-04,2.196984643e-05,3.410311706e-06,2.538015814e-05,-3.447801931e-04,1.780303847e-05,-3.269771546e-04,2.944852585e-05,9.332789069e-05,1.227764165e-04,-5.151865171e-05,5.744505753e-06,-4.577414595e-05,-4.610951352e-04,5.052408018e-05,-4.105710550e-04,-3.182812847e-04,8.470778640e-06,-3.098105060e-04,-9.779235597e-04,9.083822164e-05,-8.870853381e-04,-4.716485286e-04,1.259356653e-05,-4.590549621e-04,-6.429688907e-04,5.546635869e-05,-5.875025320e-04,2.892332708e-04,-3.330694532e-04,-4.383618244e-05,-8.013339386e-04,5.997168896e-05,-7.413622497e-04,-3.382776534e-04,1.600199426e-04,-1.782577108e-04,-7.183905602e-04,5.359367073e-05,-6.647968895e-04,-2.158306328e-04,1.039731253e-04,-1.118575075e-04,-7.341434184e-05,-5.093493489e-05,-1.243492767e-04,7.781513590e-04,-2.029929868e-04,5.751583722e-04,-7.041983616e-04,1.277223932e-05,-6.914261223e-04,-4.274803859e-04,-6.508873363e-06,-4.339892593e-04,-4.105290222e-04,1.444748398e-04,-2.660541824e-04,-8.858026724e-05,8.126749099e-05,-7.312776249e-06,-2.596328111e-05,1.325337428e-04,1.065704617e-04,-1.225226338e-04,-4.989242653e-05,-1.724150603e-04,-1.479532006e-05,-4.718807818e-05,-6.198339823e-05,5.435256120e-04,-9.055311355e-05,4.529724985e-04,-5.401124437e-04,2.367761002e-04,-3.033363435e-04,-2.346740792e-04,1.184478113e-04,-1.162262679e-04,-5.981554521e-04,8.351019836e-07,-5.973203501e-04,-3.244465662e-04,5.650291190e-05,-2.679436543e-04,-8.017037746e-04,2.153057825e-04,-5.863979920e-04,6.954477244e-05,-7.899789618e-05,-9.453123740e-06,1.340387081e-04,-2.612084573e-05,1.079178624e-04,-9.249131762e-05,-5.569110594e-05,-1.481824236e-04,2.225299310e-05,-7.381587037e-04,-7.159057106e-04
-3.6,4.533002295e-04,-6.521245479e-05,3.880877747e-04,5.557986080e-04,8.368031193e-05,6.394789199e-04,-2.453995742e-04,4.429362767e-05,-2.011059465e-04,-9.623271625e-06,3.391716700e-06,-6.231554924e-06,-3.736815589e-04,1.725141356e-05,-3.564301453e-04,4.589507650e-05,8.768364818e-05,1.335787247e-04,-5.995410374e-05,6.379181079e-06,-5.357492266e-05,-4.830335255e-04,5.611888715e-05,-4.269146384e-04,-3.467802560e-04,1.197326768e-05,-3.348069883e-04,-9.962685290e-04,1.016453686e-04,-8.946231604e-04,-5.033234015e-04,1.469892421e-05,-4.886244773e-04,-6.843383708e-04,6.890108964e-05,-6.154372811e-04,2.683078844e-04,-3.378991513e-04,-6.959126694e-05,-8.526039547e-04,6.839558439e-05,-7.842083704e-04,-3.624259219e-04,1.822607429e-04,-1.801651790e-04,-8.010755306e-04,6.923896134e-05,-7.318365692e-04,-2.966815764e-04,1.122453058e-04,-1.844362705e-04,-8.722486204e-05,-6.076451775e-05,-1.479893798e-04,8.244895891e-04,-2.205350078e-04,6.039545813e-04,-7.307813424e-04,2.160149479e-05,-7.091798476e-04,-4.710641628e-04,-4.706923979e-06,-4.757710867e-04,-4.557030052e-04,1.494336841e-04,-3.062693211e-04,-1.116498886e-04,8.440724300e-05,-2.724264559e-05,-3.989965954e-05,1.266118825e-04,8.671222298e-05,-1.686365547e-04,-6.081695328e-05,-2.294535080e-04,-3.684425158e-05,-4.015105467e-05,-7.699530625e-05,4.912600622e-04,-7.935980379e-05,4.119002584e-04,-5.741233762e-04,2.465264237e-04,-3.275969526e-04,-2.736201701e-04,1.273738752e-04,-1.462462949e-04,-6.786202035e-04,3.209898450e-06,-6.754103050e-04,-3.673226552e-04,7.513709131e-05,-2.921855639e-04,-8.347953712e-04,2.146020327e-04,-6.201933385e-04,6.419532615e-05,-7.458470069e-05,-1.038937455e-05,5.680498956e-05,-1.827721943e-05,3.852777012e-05,-1.197314974e-04,-4.847717572e-05,-1.682086732e-04,2.478924271e-05,-8.056209772e-04,-7.808317345e-04
-3.5,4.357578427e-04,-7.641705071e-05,3.593407920e-04,5.713514676e-04,8.460061436e-05,6.559520820e-04,-2.669939996e-04,4.483179233e-05,-2.221622073e-04,-4.063686224e-05,3.347772790e-06,-3.728908945e-05,-4.015733102e-04,1.656435937e-05,-3.850089508e-04,6.400885267e-05,8.133546389e-05,1.453443166e-04,-6.791164392e-05,7.044543398e-06,-6.086710052e-05,-5.028072117e-04,6.120878029e-05,-4.415984314e-04,-3.740860474e-04,1.546381185e-05,-3.586222356e-04,-1.011499049e-03,1.121054186e-04,-8.993936304e-04,-5.331865931e-04,1.659621177e-05,-5.165903814e-04,-7.250088653e-04,8.273646516e-05,-6.422724002e-04,2.434462854e-04,-3.377787166e-04,-9.433243116e-05,-9.011679824e-04,7.689549720e-05,-8.242724852e-04,-3.839402447e-04,2.033736217e-04,-1.805666230e-04,-8.813210882e-04,8.520567537e-05,-7.961154128e-04,-3.768653289e-04,1.202885973e-04,-2.565767316e-04,-1.012423614e-04,-6.945384930e-05,-1.706962107e-04,8.687130680e-04,-2.371805620e-04,6.315325060e-04,-7.555930250e-04,3.026045211e-05,-7.253325729e-04,-5.134996864e-04,-3.069549339e-06,-5.165692358e-04,-4.997864560e-04,1.538083253e-04,-3.459781307e-04,-1.344868784e-04,8.719237897e-05,-4.729449946e-05,-5.345009750e-05,1.200467820e-04,6.659668447e-05,-2.146732099e-04,-7.163681288e-05,-2.863100228e-04,-5.924700414e-05,-3.185887562e-05,-9.110587975e-05,4.381863783e-04,-6.899844620e-05,3.691879321e-04,-6.032914298e-04,2.528052874e-04,-3.504861424e-04,-3.109245330e-04,1.353789316e-04,-1.755456014e-04,-7.580325043e-04,6.195977925e-06,-7.518365264e-04,-4.071818970e-04,9.177199230e-05,-3.154099047e-04,-8.630917800e-04,2.117949323e-04,-6.512968476e-04,6.009624826e-05,-6.995653780e-05,-9.860289545e-06,-2.114856601e-05,-9.775802400e-06,-3.092436841e-05,-1.451785381e-04,-4.050678738e-05,-1.856853255e-04,2.669010783e-05,-8.708991117e-04,-8.442090039e-04
-3.4,4.185394007e-04,-8.749711689e-05,3.310422839e-04,5.871319536e-04,8.514205845e-05,6.722740120e-04,-2.879039700e-04,4.519971444e-05,-2.427042555e-04,-7.091535769e-05,3.277001593e-06,-6.763835610e-05,-4.282970820e-04,1.574290330e-05,-4.125541787e-04,8.384546707e-05,7.426111028e-05,1.581065774e-04,-7.529206564e-05,7.738160586e-06,-6.755390506e-05,-5.203049581e-04,6.577983170e-05,-4.545251264e-04,-4.000695074e-04,1.892923712e-05,-3.811402703e-04,-1.023561829e-03,1.221741105e-04,-9.013877184e-04,-5.611357118e-04,1.826868366e-05,-5.428670281e-04,-7.647607403e-04,9.687243589e-05,-6.678883044e-04,2.148573571e-04,-3.329397484e-04,-1.180823912e-04,-9.468062247e-04,8.539356848e-05,-8.614126562e-04,-4.026591953e-04,2.231201906e-04,-1.795390047e-04,-9.587366858e-04,1.012945820e-04,-8.574421038e-04,-4.564306732e-04,1.282312210e-04,-3.281994522e-04,-1.154021434e-04,-7.701261326e-05,-1.924147567e-04,9.103316247e-04,-2.525619736e-04,6.577696510e-04,-7.785038868e-04,3.868391827e-05,-7.398199686e-04,-5.546690503e-04,-1.591132385e-06,-5.562601827e-04,-5.426765219e-04,1.575945239e-04,-3.850819981e-04,-1.570599764e-04,8.959012883e-05,-6.746984758e-05,-6.651962833e-05,1.128707952e-04,4.635116691e-05,-2.605358245e-04,-8.227088911e-05,-3.428067136e-04,-8.182476672e-05,-2.246381385e-05,-1.042885806e-04,3.848707681e-04,-5.966024843e-05,3.252105196e-04,-6.273550472e-04,2.554708298e-04,-3.718842174e-04,-3.464453653e-04,1.424562924e-04,-2.039890728e-04,-8.360823096e-04,9.739553810e-06,-8.263427558e-04,-4.436861539e-04,1.061546708e-04,-3.375314832e-04,-8.868914633e-04,2.070215161e-04,-6.798699471e-04,5.754225485e-05,-6.526349780e-05,-7.721242947e-06,-9.921265567e-05,-7.653146006e-07,-9.997797027e-05,-1.685198467e-04,-3.193764501e-05,-2.004574917e-04,2.736556215e-05,-9.336156467e-04,-9.062500845e-04
