Time,S1D1HbO,S1D1HbR,S1D1HbT,S2D2HbO,S2D2HbR,S2D2HbT,S3D3HbO,S3D3HbR,S3D3HbT,S4D4HbO,S4D4HbR,S4D4HbT,S5D5HbO,S5D5HbR,S5D5HbT,S6D6HbO,S6D6HbR,S6D6HbT,S7D7HbO,S7D7HbR,S7D7HbT,S8D8HbO,S8D8HbR,S8D8HbT,S9D9HbO,S9D9HbR,S9D9HbT,S10D10HbO,S10D10HbR,S10D10HbT,S11D11HbO,S11D11HbR,S11D11HbT,S12D12HbO,S12D12HbR,S12D12HbT,S13D13HbO,S13D13HbR,S13D13HbT,S14D14HbO,S14D14HbR,S14D14HbT,S15D15HbO,S15D15HbR,S15D15HbT,S16D16HbO,S16D16HbR,S16D16HbT,S17D17HbO,S17D17HbR,S17D17HbT,S18D18HbO,S18D18HbR,S18D18HbT,S19D19HbO,S19D19HbR,S19D19HbT,S20D20HbO,S20D20HbR,S20D20HbT,S21D21HbO,S21D21HbR,S21D21HbT,S22D22HbO,S22D22HbR,S22D22HbT,S23D23HbO,S23D23HbR,S23D23HbT,S24D24HbO,S24D24HbR,S24D24HbT,S25D25HbO,S25D25HbR,S25D25HbT,S26D26HbO,S26D26HbR,S26D26HbT,S27D27HbO,S27D27HbR,S27D27HbT,S28D28HbO,S28D28HbR,S28D28HbT,S29D29HbO,S29D29HbR,S29D29HbT,S30D30HbO,S30D30HbR,S30D30HbT,S31D31HbO,S31D31HbR,S31D31HbT,S32D32HbO,S32D32HbR,S32D32HbT,S33D33HbO,S33D33HbR,S33D33HbT,S34D34HbO,S34D34HbR,S34D34HbT,S35D35HbO,S35D35HbR,S35D35HbT,S36D36HbO,S36D36HbR,S36D36HbT,
-10,-1.141279507e-03,-3.014473651e-04,-1.442726872e-03,-1.167375754e-03,-9.518448954e-05,-1.262560244e-03,-2.184813090e-03,-2.421723504e-04,-2.426985441e-03,-1.619802627e-03,-2.010733776e-04,-1.820876005e-03,-7.657235933e-04,4.412819480e-05,-7.215953985e-04,-1.531973423e-03,-8.816363845e-06,-1.540789787e-03,-1.197904945e-03,5.921981123e-05,-1.138685133e-03,-1.448408312e-03,9.933521624e-05,-1.349073096e-03,-1.641260574e-03,8.250744960e-05,-1.558753124e-03,-1.374516373e-03,8.849728380e-05,-1.286019089e-03,-9.466371891e-04,1.251331286e-04,-8.215040604e-04,-1.511736450e-03,-1.939743156e-04,-1.705710766e-03,-1.319677635e-03,-1.620288282e-04,-1.481706464e-03,-1.697898363e-03,-3.190532686e-04,-2.016951631e-03,-1.155009187e-03,-1.655443096e-04,-1.320553496e-03,-9.966487045e-04,3.729238945e-05,-9.593563151e-04,-1.189807637e-03,-6.571881334e-05,-1.255526450e-03,-9.787149126e-04,-5.557908197e-06,-9.842728208e-04,-8.067190340e-04,-3.981889607e-05,-8.465379301e-04,-1.045716750e-03,-1.945748902e-05,-1.065174239e-03,-1.005150963e-03,-8.362372526e-05,-1.088774688e-03,-2.912952527e-03,-4.694679592e-04,-3.382420486e-03,2.016146551e-04,-5.952992244e-05,1.420847327e-04,-1.654476309e-03,-4.780017999e-04,-2.132478109e-03,-9.057025298e-04,1.434344637e-06,-9.042681852e-04,-1.381660608e-03,-2.750744761e-04,-1.656735084e-03,-1.415310190e-03,-2.397454387e-04,-1.655055629e-03,-1.562810145e-03,-2.003217413e-04,-1.763131887e-03,-7.411841129e-04,-1.054329365e-04,-8.466170494e-04,-4.161652428e-04,-6.075777555e-05,-4.769230183e-04,-1.024291205e-03,-7.904280394e-05,-1.103334009e-03,-7.974144632e-04,-4.187158033e-05,-8.392860436e-04,-7.808944521e-04,-2.677691276e-05,-8.076713648e-04,-9.436802961e-04,-2.071029082e-05,-9.643905869e-04,-1.244656532e-03,-3.613869631e-05,-1.280795228e-03,-8.405929185e-04,-2.122314774e-05,-8.618160662e-04
-9.9,-1.100128723e-03,-2.996180923e-04,-1.399746816e-03,-1.095110347e-03,-8.895448047e-05,-1.184064828e-03,-2.123186672e-03,-2.330538216e-04,-2.356240494e-03,-1.540944359e-03,-1.931174385e-04,-1.734061797e-03,-7.102378069e-04,4.552084394e-05,-6.647169630e-04,-1.467434020e-03,-4.150269967e-06,-1.471584290e-03,-1.157724000e-03,6.029192415e-05,-1.097432075e-03,-1.403192306e-03,1.014125413e-04,-1.301779764e-03,-1.575467143e-03,8.380583619e-05,-1.491661307e-03,-1.306146697e-03,8.907666024e-05,-1.217070037e-03,-8.675298839e-04,1.245278562e-04,-7.430020277e-04,-1.473338037e-03,-1.869862069e-04,-1.660324243e-03,-1.292209510e-03,-1.580537645e-04,-1.450263275e-03,-1.653172363e-03,-3.102891237e-04,-1.963461487e-03,-1.121429642e-03,-1.621135535e-04,-1.283543195e-03,-9.479279034e-04,3.971817649e-05,-9.082097269e-04,-1.140860684e-03,-6.123347319e-05,-1.202094157e-03,-9.246073037e-04,-3.561444007e-06,-9.281687477e-04,-7.662844698e-04,-3.531362593e-05,-8.015980958e-04,-9.942735123e-04,-1.750981957e-05,-1.011783332e-03,-9.387132024e-04,-7.970171476e-05,-1.018414917e-03,-2.808898924e-03,-4.521546664e-04,-3.261053591e-03,2.385989326e-04,-5.659329669e-05,1.820056360e-04,-1.593486342e-03,-4.648195100e-04,-2.058305852e-03,-8.665663374e-04,8.214185638e-07,-8.657449189e-04,-1.337614426e-03,-2.696863914e-04,-1.607300817e-03,-1.358495678e-03,-2.334282667e-04,-1.591923945e-03,-1.512925132e-03,-1.914953733e-04,-1.704420506e-03,-7.097933182e-04,-1.002105495e-04,-8.100038677e-04,-3.634468437e-04,-5.658342092e-05,-4.200302646e-04,-9.808573563e-04,-7.593300728e-05,-1.056790364e-03,-7.417963421e-04,-3.800963798e-05,-7.798059800e-04,-7.327763664e-04,-2.414939556e-05,-7.569257619e-04,-8.879061949e-04,-1.322170215e-05,-9.011278971e-04,-1.187947855e-03,-3.249381678e-05,-1.220441672e-03,-7.914177839e-04,-2.108066179e-05,-8.124984457e-04
-9.8,-1.058757427e-03,-2.971198915e-04,-1.355877318e-03,-1.023017872e-03,-8.271621725e-05,-1.105734089e-03,-2.062532002e-03,-2.237541445e-04,-2.286286147e-03,-1.463998390e-03,-1.850659771e-04,-1.649064367e-03,-6.565587472e-04,4.678584540e-05,-6.097729018e-04,-1.403090877e-03,4.009314175e-07,-1.402689945e-03,-1.117795608e-03,6.129064428e-05,-1.056504963e-03,-1.357462502e-03,1.034132283e-04,-1.254049274e-03,-1.509299054e-03,8.504355545e-05,-1.424255499e-03,-1.238145479e-03,8.962609249e-05,-1.148519387e-03,-7.919293631e-04,1.237626006e-04,-6.681667625e-04,-1.434293107e-03,-1.798370216e-04,-1.614130129e-03,-1.264792317e-03,-1.539185924e-04,-1.418710910e-03,-1.607956864e-03,-3.011796600e-04,-1.909136524e-03,-1.087106330e-03,-1.585296021e-04,-1.245635932e-03,-8.995070511e-04,4.212532725e-05,-8.573817239e-04,-1.091839057e-03,-5.690883989e-05,-1.148747896e-03,-8.716491047e-04,-1.690027059e-06,-8.733391318e-04,-7.262555969e-04,-3.100696076e-05,-7.572625577e-04,-9.431918990e-04,-1.549795299e-05,-9.586898519e-04,-8.764910326e-04,-7.575771811e-05,-9.522487507e-04,-2.706642704e-03,-4.347065519e-04,-3.141349256e-03,2.696699052e-04,-5.369838834e-05,2.159715168e-04,-1.535308219e-03,-4.515533400e-04,-1.986861559e-03,-8.272161884e-04,2.780662826e-07,-8.269381222e-04,-1.292357620e-03,-2.638775407e-04,-1.556235161e-03,-1.301491237e-03,-2.269778547e-04,-1.528469091e-03,-1.461658479e-03,-1.831754367e-04,-1.644833916e-03,-6.787273687e-04,-9.501015850e-05,-7.737375272e-04,-3.128342891e-04,-5.241243945e-05,-3.652467285e-04,-9.372168190e-04,-7.306986604e-05,-1.010286685e-03,-6.875867201e-04,-3.422866245e-05,-7.218153826e-04,-6.854431059e-04,-2.181643033e-05,-7.072595362e-04,-8.334969972e-04,-6.705003739e-06,-8.402020009e-04,-1.131277524e-03,-2.912706103e-05,-1.160404585e-03,-7.438497108e-04,-2.066393492e-05,-7.645136458e-04
-9.7,-1.017263670e-03,-2.939735937e-04,-1.311237263e-03,-9.514530609e-04,-7.649227892e-05,-1.027945340e-03,-2.002943269e-03,-2.143009334e-04,-2.217244203e-03,-1.389208360e-03,-1.769455779e-04,-1.566153938e-03,-6.048688310e-04,4.792139487e-05,-5.569474361e-04,-1.339179385e-03,4.812490055e-06,-1.334366895e-03,-1.078242791e-03,6.221340220e-05,-1.016029388e-03,-1.311397785e-03,1.053224854e-04,-1.206075300e-03,-1.442974322e-03,8.621174392e-05,-1.356762578e-03,-1.170762495e-03,9.013928559e-05,-1.080623210e-03,-7.200798004e-04,1.228406657e-04,-5.972391346e-04,-1.394723016e-03,-1.725719602e-04,-1.567294976e-03,-1.237494829e-03,-1.495861443e-04,-1.387080973e-03,-1.562375020e-03,-2.917529539e-04,-1.854127973e-03,-1.052217972e-03,-1.547936094e-04,-1.207011581e-03,-8.516074026e-04,4.450128206e-05,-8.071061206e-04,-1.042910860e-03,-5.276347087e-05,-1.095674331e-03,-8.200205071e-04,7.785775833e-08,-8.199426493e-04,-6.867862609e-04,-2.691971250e-05,-7.137059734e-04,-8.926697870e-04,-1.342308587e-05,-9.060928728e-04,-8.186203671e-04,-7.180359746e-05,-8.904239645e-04,-2.606423315e-03,-4.171857268e-04,-3.023609042e-03,2.947413269e-04,-5.084808017e-05,2.438932467e-04,-1.480053505e-03,-4.382263406e-04,-1.918279846e-03,-7.878312330e-04,-2.086352736e-07,-7.880398683e-04,-1.246107368e-03,-2.576761187e-04,-1.503783487e-03,-1.244488305e-03,-2.204537630e-04,-1.464942068e-03,-1.409149087e-03,-1.753749809e-04,-1.584524067e-03,-6.481298816e-04,-8.985604538e-05,-7.379859270e-04,-2.645668017e-04,-4.825626093e-05,-3.128230626e-04,-8.935484858e-04,-7.044791883e-05,-9.639964046e-04,-6.350002993e-04,-3.052573086e-05,-6.655260301e-04,-6.391170968e-04,-1.977917082e-05,-6.588962676e-04,-7.806988255e-04,-1.203688250e-06,-7.819025138e-04,-1.074847166e-03,-2.605583681e-05,-1.100903003e-03,-6.980254183e-04,-2.002715131e-05,-7.180525696e-04
-9.6,-9.757478150e-04,-2.902084172e-04,-1.265956232e-03,-8.807513883e-04,-7.030417376e-05,-9.510555620e-04,-1.944498573e-03,-2.047236425e-04,-2.149222216e-03,-1.316795658e-03,-1.687831150e-04,-1.485578773e-03,-5.553284725e-04,4.892657655e-05,-5.064018959e-04,-1.275920522e-03,9.060674391e-06,-1.266859847e-03,-1.039172895e-03,6.305812512e-05,-9.761147697e-04,-1.265167364e-03,1.071244758e-04,-1.158042888e-03,-1.376701756e-03,8.730132914e-05,-1.289400427e-03,-1.104230883e-03,9.060839342e-05,-1.013622490e-03,-6.521946246e-04,1.217663959e-04,-5.304282287e-04,-1.354739342e-03,-1.652370558e-04,-1.519976397e-03,-1.210371006e-03,-1.450157692e-04,-1.355386775e-03,-1.516538439e-03,-2.820399052e-04,-1.798578344e-03,-1.016933054e-03,-1.509080879e-04,-1.167841142e-03,-8.044367652e-04,4.683152777e-05,-7.576052375e-04,-9.942345456e-04,-4.881300300e-05,-1.043047549e-03,-7.698869296e-04,1.762541860e-06,-7.681243878e-04,-6.480208374e-04,-2.307066412e-05,-6.710915015e-04,-8.428929210e-04,-1.128762713e-05,-8.541805481e-04,-7.652047996e-04,-6.785163763e-05,-8.330564373e-04,-2.508456783e-03,-3.996537152e-04,-2.908110498e-03,3.137677152e-04,-4.804452223e-05,2.657231930e-04,-1.427806320e-03,-4.248598231e-04,-1.852666143e-03,-7.485785396e-04,-6.494056373e-07,-7.492279453e-04,-1.199078292e-03,-2.511109374e-04,-1.450189229e-03,-1.187666730e-03,-2.139052390e-04,-1.401571969e-03,-1.355545233e-03,-1.680952778e-04,-1.523640511e-03,-6.181329968e-04,-8.477082021e-05,-7.029038170e-04,-2.188580951e-04,-4.412863786e-05,-2.629867330e-04,-8.500235953e-04,-6.806004984e-05,-9.180836451e-04,-5.842307467e-04,-2.690079912e-05,-6.111315459e-04,-5.940082677e-04,-1.803517504e-05,-6.120434428e-04,-7.297368094e-04,3.251006775e-06,-7.264858026e-04,-1.018843481e-03,-2.329898065e-05,-1.042142461e-03,-6.540532103e-04,-1.923156267e-05,-6.732847730e-04
-9.5,-9.343119552e-04,-2.858615180e-04,-1.220173473e-03,-8.112264470e-04,-6.417242917e-05,-8.753988762e-04,-1.887258926e-03,-1.950535661e-04,-2.082312492e-03,-1.246957453e-03,-1.606055337e-04,-1.407562987e-03,-5.080746261e-04,4.980134279e-05,-4.582732833e-04,-1.213518597e-03,1.312317661e-05,-1.200395420e-03,-1.000676070e-03,6.382330069e-05,-9.368527694e-04,-1.218928908e-03,1.088025395e-04,-1.110126368e-03,-1.310678570e-03,8.830304329e-05,-1.222375527e-03,-1.038764521e-03,9.102402462e-05,-9.477404965e-04,-5.884543741e-04,1.205451047e-04,-4.679092694e-04,-1.314441303e-03,-1.578786063e-04,-1.472319909e-03,-1.183460083e-03,-1.401647160e-04,-1.323624799e-03,-1.470545672e-03,-2.720735153e-04,-1.742619188e-03,-9.814073573e-04,-1.468771675e-04,-1.128284525e-03,-7.581883896e-04,4.910032333e-05,-7.090880663e-04,-9.459571146e-04,-4.507035252e-05,-9.910274671e-04,-7.213993375e-04,3.383099755e-06,-7.180162377e-04,-6.100923401e-04,-1.947624027e-05,-6.295685804e-04,-7.940328533e-04,-9.095207432e-06,-8.031280607e-04,-7.163140630e-04,-6.391433974e-05,-7.802284027e-04,-2.412933991e-03,-3.821705819e-04,-2.795104573e-03,3.267458041e-04,-4.528913975e-05,2.814566643e-04,-1.378621293e-03,-4.114731706e-04,-1.790094463e-03,-7.096113035e-04,-1.052415791e-06,-7.106637193e-04,-1.151477476e-03,-2.442112999e-04,-1.395688776e-03,-1.131193596e-03,-2.073702599e-04,-1.338563856e-03,-1.301004448e-03,-1.613264414e-04,-1.462330889e-03,-5.888551958e-04,-7.977536426e-05,-6.686305601e-04,-1.758950481e-04,-4.004461301e-05,-2.159396611e-04,-8.068030251e-04,-6.589756654e-05,-8.727005916e-04,-5.354481231e-04,-2.335694635e-05,-5.588050695e-04,-5.503108907e-04,-1.657891987e-05,-5.668898106e-04,-6.808103620e-04,6.639936636e-06,-6.741704254e-04,-9.634350881e-04,-2.087711846e-05,-9.843122066e-04,-6.120130962e-04,-1.834313195e-05,-6.303562282e-04
-9.4,-8.930585880e-04,-2.809772197e-04,-1.174035808e-03,-7.431671147e-04,-5.811666094e-05,-8.012837757e-04,-1.831266537e-03,-1.853237175e-04,-2.016590255e-03,-1.179864206e-03,-1.524396026e-04,-1.332303809e-03,-4.632186704e-04,5.054650328e-05,-4.126721671e-04,-1.152158391e-03,1.697943891e-05,-1.135178952e-03,-9.628229384e-04,6.450802684e-05,-8.983149116e-04,-1.172826076e-03,1.103395317e-04,-1.062486544e-03,-1.245087274e-03,8.920742106e-05,-1.155879853e-03,-9.745548237e-04,9.137524430e-05,-8.831795794e-04,-5.290040025e-04,1.191829702e-04,-4.098210322e-04,-1.273912514e-03,-1.505425124e-04,-1.424455027e-03,-1.156785795e-03,-1.349890876e-04,-1.291774883e-03,-1.424479806e-03,-2.618879422e-04,-1.686367748e-03,-9.457804665e-04,-1.427067929e-04,-1.088487259e-03,-7.130387186e-04,5.129143646e-05,-6.617472822e-04,-8.982115655e-04,-4.154590251e-05,-9.397574680e-04,-6.746936453e-04,4.957313975e-06,-6.697363313e-04,-5.731199884e-04,-1.615025169e-05,-5.892702401e-04,-7.462440835e-04,-6.850707008e-06,-7.530947906e-04,-6.719817841e-04,-6.000419256e-05,-7.319859767e-04,-2.320018567e-03,-3.647940366e-04,-2.684812604e-03,3.337162862e-04,-4.258262728e-05,2.911336589e-04,-1.332521431e-03,-3.980836206e-04,-1.730605052e-03,-6.710662296e-04,-1.422709670e-06,-6.724889393e-04,-1.103498049e-03,-2.370068080e-04,-1.340504856e-03,-1.075221794e-03,-2.008748647e-04,-1.276096658e-03,-1.245692300e-03,-1.550482973e-04,-1.400740597e-03,-5.603988876e-04,-7.488881971e-05,-6.352877073e-04,-1.358362317e-04,-3.601927632e-05,-1.718555080e-04,-7.640342873e-04,-6.395034331e-05,-8.279846306e-04,-4.887958869e-04,-1.990052759e-05,-5.086964145e-04,-5.081993477e-04,-1.540257455e-05,-5.236019222e-04,-6.340876155e-04,8.955800188e-06,-6.251318153e-04,-9.087695188e-04,-1.881231905e-05,-9.275818378e-04,-5.719566176e-04,-1.743002987e-05,-5.893866475e-04
-9.3,-8.520888378e-04,-2.756060449e-04,-1.127694883e-03,-6.768348301e-04,-5.215559800e-05,-7.289904281e-04,-1.776543127e-03,-1.755686245e-04,-1.952111751e-03,-1.115657419e-03,-1.443116955e-04,-1.259969114e-03,-4.208444369e-04,5.116367694e-05,-3.696807599e-04,-1.092002557e-03,2.061088491e-05,-1.071391672e-03,-9.256626800e-04,6.511200454e-05,-8.605506755e-04,-1.126986174e-03,1.117182340e-04,-1.015267940e-03,-1.180092781e-03,9.000479696e-05,-1.090087984e-03,-9.117677041e-04,9.164960691e-05,-8.201180972e-04,-4.739502094e-04,1.176869139e-04,-3.562632955e-04,-1.233218621e-03,-1.432736290e-04,-1.376492250e-03,-1.130356974e-03,-1.294440621e-04,-1.259801036e-03,-1.378406727e-03,-2.515176754e-04,-1.629924403e-03,-9.101727361e-04,-1.384047618e-04,-1.048577498e-03,-6.691449486e-04,5.338873713e-05,-6.157562114e-04,-8.511144786e-04,-3.824769349e-05,-8.893621721e-04,-6.298897918e-04,6.501729748e-06,-6.233880620e-04,-5.372067397e-04,-1.310376828e-05,-5.503105080e-04,-6.996611230e-04,-4.560275096e-06,-7.042213981e-04,-6.322033583e-04,-5.613341822e-05,-6.883367765e-04,-2.229844945e-03,-3.475785782e-04,-2.577423523e-03,3.347652025e-04,-3.992494661e-05,2.948402559e-04,-1.289496510e-03,-3.847061322e-04,-1.674202642e-03,-6.330610576e-04,-1.761515797e-06,-6.348225733e-04,-1.055313313e-03,-2.295271606e-04,-1.284840474e-03,-1.019889137e-03,-1.944327665e-04,-1.214321904e-03,-1.189780679e-03,-1.492317439e-04,-1.339012423e-03,-5.328486021e-04,-7.012856376e-05,-6.029771659e-04,-9.881098285e-05,-3.206649267e-05,-1.308774755e-04,-7.218490209e-04,-6.220711145e-05,-7.840561323e-04,-4.443883716e-04,-1.654133723e-05,-4.609297089e-04,-4.678240337e-04,-1.449679377e-05,-4.823208275e-04,-5.897003655e-04,1.020265673e-05,-5.794977088e-04,-8.549714813e-04,-1.712687242e-05,-8.720983538e-04,-5.339069700e-04,-1.656034170e-05,-5.504673117e-04
-9.2,-8.115006277e-04,-2.698036504e-04,-1.081304278e-03,-6.124614342e-04,-4.630704415e-05,-6.587684784e-04,-1.723089049e-03,-1.658240815e-04,-1.888913131e-03,-1.054448327e-03,-1.362476360e-04,-1.190695963e-03,-3.810072180e-04,5.165518113e-05,-3.293520369e-04,-1.033190128e-03,2.400107898e-05,-1.009189049e-03,-8.892225753e-04,6.563546103e-05,-8.235871142e-04,-1.081518696e-03,1.129218244e-04,-9.685968715e-04,-1.115840583e-03,9.068533063e-05,-1.025155252e-03,-8.505415189e-04,9.183326377e-05,-7.587082551e-04,-4.233594859e-04,1.160644896e-04,-3.072949962e-04,-1.192406957e-03,-1.361151339e-04,-1.328522091e-03,-1.104170176e-03,-1.234837607e-04,-1.227653936e-03,-1.332375225e-03,-2.409970536e-04,-1.573372279e-03,-8.746838993e-04,-1.339806421e-04,-1.008664541e-03,-6.266434548e-04,5.537664899e-05,-5.712668058e-04,-8.047646386e-04,-3.518162890e-05,-8.399462675e-04,-5.870911857e-04,8.031747860e-06,-5.790594379e-04,-5.024374182e-04,-1.034515061e-05,-5.127825688e-04,-6.543963593e-04,-2.231314657e-06,-6.566276739e-04,-5.969348162e-04,-5.231372424e-05,-6.492485404e-04,-2.142517229e-03,-3.305748185e-04,-2.473092048e-03,3.300243786e-04,-3.731536136e-05,2.927090173e-04,-1.249502473e-03,-3.713534440e-04,-1.620855917e-03,-5.956931410e-04,-2.065732709e-06,-5.977588737e-04,-1.007073193e-03,-2.218020580e-04,-1.228875251e-03,-9.653187816e-04,-1.880453349e-04,-1.153364117e-03,-1.133446200e-03,-1.438405719e-04,-1.277286772e-03,-5.062703796e-04,-6.551017883e-05,-5.717805585e-04,-6.491953546e-05,-2.819783759e-05,-9.311737305e-05,-6.803616655e-04,-6.065587156e-05,-7.410175371e-04,-4.023095520e-04,-1.329287037e-05,-4.156024223e-04,-4.293086457e-04,-1.385127154e-05,-4.431599172e-04,-5.477409772e-04,1.039512876e-05,-5.373458484e-04,-8.021431063e-04,-1.584149418e-05,-8.179846005e-04,-4.978600658e-04,-1.580015686e-05,-5.136602226e-04
-9.1,-7.713871209e-04,-2.636297293e-04,-1.035016850e-03,-5.502479132e-04,-4.058776206e-05,-5.908356753e-04,-1.670883609e-03,-1.561268735e-04,-1.827010483e-03,-9.963178576e-04,-1.282725858e-04,-1.124590443e-03,-3.437341538e-04,5.202387812e-05,-2.917102757e-04,-9.758364425e-04,2.713584775e-05,-9.487005947e-04,-8.535092760e-04,6.607901352e-05,-7.874302625e-04,-1.036515039e-03,1.139343528e-04,-9.225806864e-04,-1.052456335e-03,9.123906883e-05,-9.612172663e-04,-7.909864610e-04,9.191116032e-05,-6.990753006e-04,-3.772573346e-04,1.143237833e-04,-2.629335513e-04,-1.151508381e-03,-1.291079014e-04,-1.280616282e-03,-1.078212923e-03,-1.170618082e-04,-1.195274731e-03,-1.286419130e-03,-2.303601562e-04,-1.516779286e-03,-8.393936794e-04,-1.294456972e-04,-9.688393766e-04,-5.856496296e-04,5.724050079e-05,-5.284091288e-04,-7.592431433e-04,-3.235163944e-05,-7.915947827e-04,-5.463848968e-04,9.561623652e-06,-5.368232731e-04,-4.688779294e-04,-7.880156359e-06,-4.767580857e-04,-6.105393426e-04,1.275681702e-07,-6.104117745e-04,-5.660932261e-04,-4.855612258e-05,-6.146493487e-04,-2.058109237e-03,-3.138291510e-04,-2.371938387e-03,3.196705640e-04,-3.475252603e-05,2.849180380e-04,-1.212462130e-03,-3.580363269e-04,-1.570498457e-03,-5.590395231e-04,-2.327937416e-06,-5.613674605e-04,-9.589037385e-04,-2.138612738e-04,-1.172765012e-03,-9.116209657e-04,-1.817021046e-04,-1.093323070e-03,-1.076869002e-03,-1.388334846e-04,-1.215702487e-03,-4.807125544e-04,-6.104743858e-05,-5.417599930e-04,-3.423429254e-05,-2.442192698e-05,-5.865621952e-05,-6.396695489e-04,-5.928436259e-05,-6.989539114e-04,-3.626135229e-04,-1.017262113e-05,-3.727861440e-04,-3.927493817e-04,-1.345501145e-05,-4.062043932e-04,-5.082622874e-04,9.557602995e-06,-4.987046844e-04,-7.503661520e-04,-1.497351366e-05,-7.653396657e-04,-4.637867106e-04,-1.521199606e-05,-4.789987067e-04
-9,-7.318356218e-04,-2.571469181e-04,-9.889825399e-04,-4.903641550e-04,-3.501328331e-05,-5.253774383e-04,-1.619886523e-03,-1.465144639e-04,-1.766400987e-03,-9.413177752e-04,-1.204109416e-04,-1.061728717e-03,-3.090259593e-04,5.227301808e-05,-2.567529413e-04,-9.200343214e-04,3.000338452e-05,-8.900309369e-04,-8.185114728e-04,6.644349498e-05,-7.520679778e-04,-9.920492726e-04,1.147411181e-04,-8.773081545e-04,-9.900467233e-04,9.165602610e-05,-8.983906972e-04,-7.331854423e-04,9.186730668e-05,-6.413181356e-04,-3.356288088e-04,1.124732991e-04,-2.231555096e-04,-1.110540733e-03,-1.222899715e-04,-1.232830705e-03,-1.052465828e-03,-1.101334660e-04,-1.162599294e-03,-1.240561009e-03,-2.196409768e-04,-1.460201986e-03,-8.043641608e-04,-1.248128734e-04,-9.291770343e-04,-5.462591860e-04,5.896672725e-05,-4.872924588e-04,-7.146149925e-04,-2.975978933e-05,-7.443747818e-04,-5.078426521e-04,1.110429003e-05,-4.967383621e-04,-4.365757094e-04,-5.712021480e-06,-4.422877309e-04,-5.681576482e-04,2.506630906e-06,-5.656510173e-04,-5.395587129e-04,-4.487084167e-05,-5.844295546e-04,-1.976665749e-03,-2.973838201e-04,-2.274049569e-03,3.039232516e-04,-3.223462000e-05,2.716886316e-04,-1.178267140e-03,-3.447639630e-04,-1.523031103e-03,-5.231586305e-04,-2.537136287e-06,-5.256957668e-04,-9.109097039e-04,-2.057348596e-04,-1.116644564e-03,-8.588955003e-04,-1.753819005e-04,-1.034277401e-03,-1.020231999e-03,-1.341660933e-04,-1.154398092e-03,-4.562077246e-04,-5.675230236e-05,-5.129600270e-04,-6.801921326e-06,-2.074418388e-05,-2.754610521e-05,-5.998542155e-04,-5.808048692e-05,-6.579347024e-04,-3.253267153e-04,-7.202178895e-06,-3.325288942e-04,-3.582158614e-04,-1.329641116e-05,-3.715122725e-04,-4.712805112e-04,7.723623199e-06,-4.635568880e-04,-6.997056531e-04,-1.453543268e-05,-7.142410858e-04,-4.316355523e-04,-1.485342486e-05,-4.464889772e-04
-8.9,-6.929269822e-04,-2.504197270e-04,-9.433467092e-04,-4.329496092e-04,-2.959769066e-05,-4.625472998e-04,-1.570040224e-03,-1.370246481e-04,-1.707064872e-03,-8.894727321e-04,-1.126862213e-04,-1.002158953e-03,-2.768596848e-04,5.240610013e-05,-2.244535846e-04,-8.658561222e-04,3.259433700e-05,-8.332617852e-04,-7.842033850e-04,6.672977228e-05,-7.174736127e-04,-9.481795941e-04,1.153288743e-04,-8.328507198e-04,-9.287012063e-04,9.192626918e-05,-8.367749371e-04,-6.771961794e-04,9.168509905e-05,-5.855110804e-04,-2.984202424e-04,1.105218225e-04,-1.878984199e-04,-1.069513109e-03,-1.156962163e-04,-1.185209325e-03,-1.026903125e-03,-1.026594922e-04,-1.129562617e-03,-1.194816641e-03,-2.088737221e-04,-1.403690363e-03,-7.696433821e-04,-1.200967896e-04,-8.897401716e-04,-5.085506278e-04,6.054288730e-05,-4.480077405e-04,-6.709318142e-04,-2.740639421e-05,-6.983382084e-04,-4.715225292e-04,1.267105930e-05,-4.588514699e-04,-4.055612035e-04,-3.841503639e-06,-4.094027071e-04,-5.272990573e-04,4.895090717e-06,-5.224039666e-04,-5.171777831e-04,-4.126729195e-05,-5.584450751e-04,-1.898204781e-03,-2.812772692e-04,-2.179482050e-03,2.830414225e-04,-2.975950897e-05,2.532819135e-04,-1.146781047e-03,-3.315443840e-04,-1.478325431e-03,-4.880933793e-04,-2.680193942e-06,-4.907735733e-04,-8.631795569e-04,-1.974533927e-04,-1.060632950e-03,-8.072341018e-04,-1.690547115e-04,-9.762888133e-04,-9.637203811e-04,-1.297928699e-04,-1.093513251e-03,-4.327754140e-04,-5.263493221e-05,-4.854103462e-04,1.735415662e-05,-1.716694472e-05,1.872118993e-07,-5.609836572e-04,-5.703255299e-05,-6.180162102e-04,-2.904515498e-04,-4.406888993e-06,-2.948584388e-04,-3.257532908e-04,-1.336320987e-05,-3.391165006e-04,-4.367801641e-04,4.935292815e-06,-4.318448713e-04,-6.502143808e-04,-1.453384287e-05,-6.647482237e-04,-4.013364224e-04,-1.477579596e-05,-4.161122184e-04
-8.8,-6.547354305e-04,-2.435135108e-04,-8.982489412e-04,-3.781146311e-04,-2.435344622e-05,-4.024680773e-04,-1.521272675e-03,-1.276951855e-04,-1.648967861e-03,-8.407828797e-04,-1.051209445e-04,-9.459038242e-04,-2.471921111e-04,5.242675053e-05,-1.947653605e-04,-8.133562708e-04,3.490188092e-05,-7.784543898e-04,-7.505485747e-04,6.693858669e-05,-6.836099880e-04,-9.049501651e-04,1.156858927e-04,-7.892642724e-04,-8.684942204e-04,9.204001323e-05,-7.764542072e-04,-6.230540588e-04,9.134769144e-05,-5.317063673e-04,-2.655418857e-04,1.084782746e-04,-1.570636111e-04,-1.028430285e-03,-1.093581882e-04,-1.137788473e-03,-1.001492212e-03,-9.461128960e-05,-1.096103501e-03,-1.149199540e-03,-1.980930686e-04,-1.347292609e-03,-7.352695435e-04,-1.153136386e-04,-8.505831821e-04,-4.725884670e-04,6.195761365e-05,-4.106308533e-04,-6.282352573e-04,-2.529021016e-05,-6.535254675e-04,-4.374710922e-04,1.427134189e-05,-4.231997503e-04,-3.758500370e-04,-2.266925434e-06,-3.781169624e-04,-4.879946147e-04,7.281295632e-06,-4.807133191e-04,-4.987674817e-04,-3.775402512e-05,-5.365215068e-04,-1.822720581e-03,-2.655445447e-04,-2.088265126e-03,2.573195960e-04,-2.732492530e-05,2.299946707e-04,-1.117842901e-03,-3.183849398e-04,-1.436227841e-03,-4.538752211e-04,-2.743631376e-06,-4.566188525e-04,-8.157918411e-04,-1.890482415e-04,-1.004840083e-03,-7.567220701e-04,-1.626843730e-04,-9.194064431e-04,-9.075210754e-04,-1.256691699e-04,-1.033190245e-03,-4.104248948e-04,-4.870377235e-05,-4.591286671e-04,3.823117372e-05,-1.368975294e-05,2.454142079e-05,-5.231151084e-04,-5.612924477e-05,-5.792443531e-04,-2.579710910e-04,-1.814993597e-06,-2.597860846e-04,-2.953854568e-04,-1.364232254e-05,-3.090277794e-04,-4.047197983e-04,1.242521714e-06,-4.034772765e-04,-6.019377083e-04,-1.496842809e-05,-6.169061364e-04,-3.728040189e-04,-1.502317654e-05,-3.878271954e-04
-8.7,-6.173286648e-04,-2.364934877e-04,-8.538221526e-04,-3.259422542e-04,-1.929131950e-05,-3.452335737e-04,-1.473500296e-03,-1.185634194e-04,-1.592063715e-03,-7.952266381e-04,-9.773650937e-05,-8.929631474e-04,-2.199633212e-04,5.233862069e-05,-1.676247005e-04,-7.625739087e-04,3.692178824e-05,-7.256521205e-04,-7.175035983e-04,6.707044044e-05,-6.504331579e-04,-8.623930429e-04,1.158019687e-04,-7.465910742e-04,-8.094873554e-04,9.198774412e-05,-7.174996113e-04,-5.707752842e-04,9.083843258e-05,-4.799368516e-04,-2.368710306e-04,1.063515892e-04,-1.305194414e-04,-9.872967444e-04,-1.033040170e-04,-1.090600761e-03,-9.761927392e-04,-8.597652072e-05,-1.062169260e-03,-1.103724828e-03,-1.873342431e-04,-1.291059071e-03,-7.012750364e-04,-1.104809782e-04,-8.117560146e-04,-4.384266199e-04,6.320063980e-05,-3.752259801e-04,-5.865604806e-04,-2.340866843e-05,-6.099691491e-04,-4.057254536e-04,1.591243301e-05,-3.898130206e-04,-3.474455705e-04,-9.842379932e-07,-3.484298085e-04,-4.502619695e-04,9.652982799e-06,-4.406089867e-04,-4.841198005e-04,-3.433866586e-05,-5.184584663e-04,-1.750186927e-03,-2.502175994e-04,-2.000404527e-03,2.270836815e-04,-2.492865772e-05,2.021550238e-04,-1.091270896e-03,-3.052927912e-04,-1.396563687e-03,-4.205285136e-04,-2.715384219e-06,-4.232438978e-04,-7.688215311e-04,-1.805518571e-04,-9.493733881e-04,-7.074395811e-04,-1.562315860e-04,-8.636711672e-04,-8.518219245e-04,-1.217532522e-04,-9.735751768e-04,-3.891576425e-04,-4.496568383e-05,-4.341233263e-04,5.584470542e-05,-1.030973491e-05,4.553497050e-05,-4.862979070e-04,-5.535937833e-05,-5.416572853e-04,-2.278540786e-04,5.436749899e-07,-2.273104036e-04,-2.671180077e-04,-1.411966104e-05,-2.812376687e-04,-3.750375811e-04,-3.297727212e-06,-3.783353083e-04,-5.549185850e-04,-1.583076329e-05,-5.707493482e-04,-3.459418626e-04,-1.563149974e-05,-3.615733623e-04
-8.6,-5.807679674e-04,-2.294237999e-04,-8.101917673e-04,-2.764900362e-04,-1.442043400e-05,-2.909104702e-04,-1.426630510e-03,-1.096658780e-04,-1.536296388e-03,-7.527630694e-04,-9.055305027e-05,-8.433161197e-04,-1.950997998e-04,5.214532931e-05,-1.429544705e-04,-7.135351027e-04,3.865247687e-05,-6.748826258e-04,-6.850207625e-04,6.712554265e-05,-6.178952198e-04,-8.205297139e-04,1.156684324e-04,-7.048612815e-04,-7.517308706e-04,9.176036202e-05,-6.599705086e-04,-5.203597026e-04,9.014136032e-05,-4.302183423e-04,-2.122550601e-04,1.041506091e-04,-1.081044510e-04,-9.461194929e-04,-9.755816515e-05,-1.043677658e-03,-9.509550681e-04,-7.676424257e-05,-1.027719311e-03,-1.058411383e-03,-1.766328538e-04,-1.235044237e-03,-6.676891683e-04,-1.056174189e-04,-7.733065873e-04,-4.061110024e-04,6.426292268e-05,-3.418480797e-04,-5.459389350e-04,-2.175805420e-05,-5.676969892e-04,-3.763144857e-04,1.759929467e-05,-3.587151910e-04,-3.203414127e-04,1.289744320e-08,-3.203285152e-04,-4.141082180e-04,1.199757218e-05,-4.021106458e-04,-4.730055747e-04,-3.102783491e-05,-5.040334096e-04,-1.680559987e-03,-2.353254600e-04,-1.915885447e-03,1.926872328e-04,-2.256872532e-05,1.701185075e-04,-1.066865374e-03,-2.922753795e-04,-1.359140754e-03,-3.880743078e-04,-2.586139657e-06,-3.906604475e-04,-7.223447145e-04,-1.719979912e-04,-8.943427057e-04,-6.594630496e-04,-1.496563363e-04,-8.091193858e-04,-7.968103294e-04,-1.180078913e-04,-9.148182207e-04,-3.689688164e-04,-4.142608114e-05,-4.103948975e-04,7.022730966e-05,-7.022041253e-06,6.320526841e-05,-4.505755786e-04,-5.471163696e-05,-5.052872156e-04,-2.000594196e-04,2.639287611e-06,-1.974201320e-04,-2.409411235e-04,-1.478006040e-05,-2.557211839e-04,-3.476558151e-04,-8.621878350e-06,-3.562776934e-04,-5.092019893e-04,-1.710281522e-05,-5.263048045e-04,-3.206459661e-04,-1.662788630e-05,-3.372738524e-04
-8.5,-5.451080560e-04,-2.223665900e-04,-7.674746460e-04,-2.297915798e-04,-9.748418919e-06,-2.395399987e-04,-1.380563417e-03,-1.010378374e-04,-1.481601255e-03,-7.133332839e-04,-8.358925731e-05,-7.969225412e-04,-1.725163843e-04,5.185047056e-05,-1.206659137e-04,-6.662540344e-04,4.009501944e-05,-6.261590149e-04,-6.530492442e-04,6.710380438e-05,-5.859454398e-04,-7.793716502e-04,1.152781684e-04,-6.640934818e-04,-6.952640135e-04,9.134932159e-05,-6.039146919e-04,-4.717927673e-04,8.924171644e-05,-3.825510508e-04,-1.915138856e-04,1.018839774e-04,-8.962990822e-05,-9.049089282e-04,-9.214092930e-05,-9.970498574e-04,-9.257175834e-04,-6.700885845e-05,-9.927264418e-04,-1.013281449e-03,-1.660244597e-04,-1.179305908e-03,-6.345386268e-04,-1.007422225e-04,-7.352808492e-04,-3.756802161e-04,6.513674090e-05,-3.105434752e-04,-5.063996498e-04,-2.033350769e-05,-5.267331575e-04,-3.492585983e-04,1.933435166e-05,-3.299242466e-04,-2.945233284e-04,7.330484809e-07,-2.937902799e-04,-3.795315051e-04,1.430242734e-05,-3.652290777e-04,-4.651771397e-04,-2.782707454e-05,-4.930042142e-04,-1.613780002e-03,-2.208942789e-04,-1.834674281e-03,1.545085684e-04,-2.024350231e-05,1.342650661e-04,-1.044410892e-03,-2.793407773e-04,-1.323751670e-03,-3.565324316e-04,-2.350031228e-06,-3.588824629e-04,-6.764400519e-04,-1.634216817e-04,-8.398617336e-04,-6.128664059e-04,-1.429190872e-04,-7.557854931e-04,-7.426709496e-04,-1.144011788e-04,-8.570721284e-04,-3.498473004e-04,-3.808905390e-05,-3.879363543e-04,8.142865021e-05,-3.820342671e-06,7.760830754e-05,-4.159863456e-04,-5.417444800e-05,-4.701607936e-04,-1.745392534e-04,4.443752859e-06,-1.700955005e-04,-2.168307758e-04,-1.560734303e-05,-2.324381188e-04,-3.224836160e-04,-1.465975323e-05,-3.371433692e-04,-4.648379131e-04,-1.875538417e-05,-4.835932973e-04,-2.968074464e-04,-1.803000239e-05,-3.148374487e-04
-8.4,-5.103964730e-04,-2.153810952e-04,-7.257775682e-04,-1.858575307e-04,-5.281623456e-06,-1.911391541e-04,-1.335192446e-03,-9.271284124e-05,-1.427905287e-03,-6.768606890e-04,-7.686216228e-05,-7.537228513e-04,-1.521168499e-04,5.145767285e-05,-1.006591770e-04,-6.207330352e-04,4.125312034e-05,-5.794799148e-04,-6.215345123e-04,6.700484782e-05,-5.545296645e-04,-7.389197800e-04,1.146256550e-04,-6.242941250e-04,-6.401141510e-04,9.074675016e-05,-5.493674009e-04,-4.250464948e-04,8.812645322e-05,-3.369200416e-04,-1.744415731e-04,9.956000601e-05,-7.488156707e-05,-8.636778201e-04,-8.706775936e-05,-9.507455795e-04,-9.004029006e-04,-5.677258480e-05,-9.571754854e-04,-9.683579931e-04,-1.555439335e-04,-1.123901927e-03,-6.018456848e-04,-9.587487391e-05,-6.977205587e-04,-3.471639369e-04,6.581564405e-05,-2.813482928e-04,-4.679687806e-04,-1.912882203e-05,-4.870976026e-04,-3.245681836e-04,2.111755183e-05,-3.034506317e-04,-2.699701693e-04,1.187031421e-06,-2.687831378e-04,-3.465211235e-04,1.655504537e-05,-3.299660781e-04,-4.603695292e-04,-2.474076296e-05,-4.851102922e-04,-1.549771600e-03,-2.069472763e-04,-1.756718876e-03,1.129487457e-04,-1.795177498e-05,9.499697069e-05,-1.023677499e-03,-2.664978543e-04,-1.290175353e-03,-3.259212565e-04,-2.004737634e-06,-3.279259942e-04,-6.311866626e-04,-1.548589186e-04,-7.860455812e-04,-5.677215547e-04,-1.359810297e-04,-7.037025844e-04,-6.895823521e-04,-1.109064484e-04,-8.004888005e-04,-3.317743972e-04,-3.495751092e-05,-3.667319081e-04,8.951690193e-05,-6.973152067e-07,8.881958673e-05,-3.825620271e-04,-5.373596491e-05,-4.362979921e-04,-1.512402723e-04,5.932476084e-06,-1.453077963e-04,-1.947484807e-04,-1.658451109e-05,-2.113329918e-04,-2.994176718e-04,-2.133433820e-05,-3.207520100e-04,-4.218823043e-04,-2.074691290e-05,-4.426292172e-04,-2.743137795e-04,-1.984536520e-05,-2.941591447e-04
-8.3,-4.766725685e-04,-2.085227893e-04,-6.851953578e-04,-1.446762102e-04,-1.025353479e-06,-1.457015637e-04,-1.290404433e-03,-8.472220421e-05,-1.375126637e-03,-6.432505307e-04,-7.038692513e-05,-7.136374558e-04,-1.337936391e-04,5.097066205e-05,-8.282297702e-05,-5.769619813e-04,4.213307930e-05,-5.348289020e-04,-5.904169445e-04,6.682800101e-05,-5.235889435e-04,-6.991634460e-04,1.137070462e-04,-5.854563998e-04,-5.862954119e-04,8.994554907e-05,-4.963498628e-04,-3.800798484e-04,8.678475092e-05,-2.932950975e-04,-1.608074578e-04,9.718653615e-05,-6.362092165e-05,-8.224395549e-04,-8.234862510e-05,-9.047881800e-04,-8.749141471e-04,-4.614626637e-05,-9.210604135e-04,-9.236614701e-04,-1.452247532e-04,-1.068886223e-03,-5.696253415e-04,-9.103475974e-05,-6.606601012e-04,-3.205798771e-04,6.629428589e-05,-2.542855912e-04,-4.306679750e-04,-1.813615997e-05,-4.488041350e-04,-3.022414653e-04,2.294693300e-05,-2.792945323e-04,-2.466539582e-04,1.388000359e-06,-2.452659579e-04,-3.150566195e-04,1.874317279e-05,-2.963134467e-04,-4.583008009e-04,-2.177202352e-05,-4.800728244e-04,-1.488443286e-03,-1.935045997e-04,-1.681947886e-03,6.842981425e-05,-1.569274363e-05,5.273707062e-05,-1.004421873e-03,-2.537563143e-04,-1.258178187e-03,-2.962557168e-04,-1.551258791e-06,-2.978069756e-04,-5.866598911e-04,-1.463460419e-04,-7.330059330e-04,-5.240974026e-04,-1.288043196e-04,-6.529017222e-04,-6.377132967e-04,-1.075015283e-04,-7.452148250e-04,-3.147220047e-04,-3.203339762e-05,-3.467554023e-04,9.458045337e-05,2.354899415e-06,9.693535278e-05,-3.503263489e-04,-5.338392578e-05,-4.037102747e-04,-1.301038449e-04,7.085991481e-06,-1.230178535e-04,-1.746402417e-04,-1.769408607e-05,-1.923343278e-04,-2.783421600e-04,-2.856157089e-05,-3.069037309e-04,-3.803963125e-04,-2.302293594e-05,-4.034192484e-04,-2.530491527e-04,-2.207067577e-05,-2.751198285e-04
-8.2,-4.439664508e-04,-2.018426089e-04,-6.458090596e-04,-1.062143171e-04,3.015895134e-06,-1.031984220e-04,-1.246079925e-03,-7.709454133e-05,-1.323174467e-03,-6.123895769e-04,-6.417665646e-05,-6.765662334e-04,-1.174277214e-04,5.039329458e-05,-6.703442679e-05,-5.349178858e-04,4.274370799e-05,-4.921741778e-04,-5.596309846e-04,6.657227979e-05,-4.930587048e-04,-6.600797504e-04,1.125202837e-04,-5.475594667e-04,-5.338078402e-04,8.893949738e-05,-4.448683428e-04,-3.368393522e-04,8.520858684e-05,-2.516307654e-04,-1.503574080e-04,9.477081676e-05,-5.558659123e-05,-7.812070300e-04,-7.798769835e-05,-8.591947283e-04,-8.491334109e-04,-3.524833850e-05,-8.843817494e-04,-8.792079729e-04,-1.350984150e-04,-1.014306388e-03,-5.378831151e-04,-8.624106232e-05,-6.241241774e-04,-2.959310524e-04,6.656828562e-05,-2.293627668e-04,-3.945127242e-04,-1.734582736e-05,-4.118585516e-04,-2.822626781e-04,2.481957918e-05,-2.574430989e-04,-2.245397365e-04,1.351502472e-06,-2.231882340e-04,-2.851069484e-04,2.085486931e-05,-2.642520791e-04,-4.586726232e-04,-1.892268331e-05,-4.775953065e-04,-1.429687127e-03,-1.805832026e-04,-1.610270329e-03,2.139255640e-05,-1.346600623e-05,7.926550168e-06,-9.863891172e-04,-2.411267194e-04,-1.227515837e-03,-2.675451971e-04,-9.936668190e-07,-2.685388639e-04,-5.429275045e-04,-1.379190483e-04,-6.808465528e-04,-4.820576246e-04,-1.213531485e-04,-6.034107731e-04,-5.872199434e-04,-1.041675556e-04,-6.913874990e-04,-2.986514142e-04,-2.931799829e-05,-3.279694125e-04,9.672870902e-05,5.344173027e-06,1.020728820e-04,-3.192940854e-04,-5.310519639e-05,-3.723992818e-04,-1.110660408e-04,7.891305970e-06,-1.031747349e-04,-1.564357645e-04,-1.891858648e-05,-1.753543510e-04,-2.591294083e-04,-3.625032072e-05,-2.953797291e-04,-3.404448028e-04,-2.551621648e-05,-3.659610193e-04,-2.328948296e-04,-2.469141827e-05,-2.575862478e-04
-8.1,-4.122984046e-04,-1.953862723e-04,-6.076846769e-04,-7.041816528e-05,6.838251174e-06,-6.357991411e-05,-1.202094368e-03,-6.985535927e-05,-1.271949727e-03,-5.841466609e-04,-5.824228631e-05,-6.423889472e-04,-1.028894197e-04,4.972955967e-05,-5.315985999e-05,-4.945652982e-04,4.309612746e-05,-4.514691708e-04,-5.291057661e-04,6.623637105e-05,-4.628693951e-04,-6.216339468e-04,1.110652203e-04,-5.105687265e-04,-4.826377547e-04,8.772336845e-05,-3.949143863e-04,-2.952605456e-04,8.339330135e-05,-2.118672443e-04,-1.428158699e-04,9.231940828e-05,-5.049646165e-05,-7.399928752e-04,-7.398349464e-05,-8.139763699e-04,-8.229236869e-04,-2.422208470e-05,-8.471457716e-04,-8.350098069e-04,-1.251941117e-04,-9.602039186e-04,-5.066146320e-04,-8.151286412e-05,-5.881274962e-04,-2.732047585e-04,6.663416788e-05,-2.065705907e-04,-3.595118365e-04,-1.674611269e-05,-3.762579492e-04,-2.646012247e-04,2.673253958e-05,-2.378686852e-04,-2.035858729e-04,1.095408532e-06,-2.024904644e-04,-2.566305874e-04,2.287854651e-05,-2.337520409e-04,-4.611720895e-04,-1.619333191e-05,-4.773654214e-04,-1.373379460e-03,-1.681968531e-04,-1.541576313e-03,-2.770676714e-05,-1.127155812e-05,-3.897832526e-05,-9.693156956e-04,-2.286205721e-04,-1.197936268e-03,-2.397928607e-04,-3.389669175e-07,-2.401318277e-04,-5.000483479e-04,-1.296129954e-04,-6.296613432e-04,-4.416580595e-04,-1.135958568e-04,-5.552539164e-04,-5.382448225e-04,-1.008875411e-04,-6.391323635e-04,-2.835134325e-04,-2.681223418e-05,-3.103256666e-04,9.609134118e-05,8.277769428e-06,1.043691106e-04,-2.894717829e-04,-5.288506075e-05,-3.423568436e-04,-9.405838517e-05,8.342838325e-06,-8.571554684e-05,-1.400488040e-04,-2.024101918e-05,-1.602898232e-04,-2.416419119e-04,-4.430276522e-05,-2.859446772e-04,-3.020949772e-04,-2.814764652e-05,-3.302426237e-04,-2.137301985e-04,-2.768203589e-05,-2.414122344e-04
-8,-3.816790398e-04,-1.891936934e-04,-5.708727332e-04,-3.721567277e-05,1.043838777e-05,-2.677728500e-05,-1.158320347e-03,-6.302672689e-05,-1.221347073e-03,-5.583742618e-04,-5.259246922e-05,-6.109667310e-04,-9.004041636e-05,4.898356383e-05,-4.105685254e-05,-4.558575976e-04,4.320341945e-05,-4.126541782e-04,-4.987672252e-04,6.581861901e-05,-4.329486062e-04,-5.837810065e-04,1.093437634e-04,-4.744372431e-04,-4.327593727e-04,8.629305415e-05,-3.464663186e-04,-2.552702504e-04,8.133794747e-05,-1.739323030e-04,-1.378889677e-04,8.983810535e-05,-4.805086240e-05,-6.988107961e-04,-7.032941575e-05,-7.691402119e-04,-7.961336052e-04,-1.323179342e-05,-8.093653986e-04,-7.910780856e-04,-1.155387042e-04,-9.066167898e-04,-4.758070605e-04,-7.686930333e-05,-5.526763638e-04,-2.523734710e-04,6.648931912e-05,-1.858841518e-04,-3.256684129e-04,-1.632312829e-05,-3.419915411e-04,-2.492118978e-04,2.868335624e-05,-2.205285416e-04,-1.837451247e-04,6.396846331e-07,-1.831054401e-04,-2.295768551e-04,2.480298864e-05,-2.047738665e-04,-4.654750291e-04,-1.358345880e-05,-4.790584879e-04,-1.319382904e-03,-1.563562818e-04,-1.475739186e-03,-7.840061862e-05,-9.109813365e-06,-8.751043198e-05,-9.529334246e-04,-2.162504234e-04,-1.169183848e-03,-2.129968460e-04,4.029590978e-07,-2.125938869e-04,-4.580737768e-04,-1.214615283e-04,-5.795353051e-04,-4.029446421e-04,-1.055076470e-04,-5.084522891e-04,-4.909171498e-04,-9.764502140e-05,-5.885621712e-04,-2.692497442e-04,-2.451681034e-05,-2.937665545e-04,9.281620647e-05,1.116168695e-05,1.039778934e-04,-2.608597765e-04,-5.270651766e-05,-3.135662942e-04,-7.900934258e-05,8.442862704e-06,-7.056647988e-05,-1.253788756e-04,-2.164520012e-05,-1.470240757e-04,-2.257348922e-04,-5.261536102e-05,-2.783502533e-04,-2.654152778e-04,-3.082816956e-05,-2.962434474e-04,-1.954345378e-04,-3.100681192e-05,-2.264413498e-04
-7.9,-3.521100610e-04,-1.832985004e-04,-5.354085614e-04,-6.519012663e-06,1.381356619e-05,7.294553531e-06,-1.114630619e-03,-5.662702828e-05,-1.171257648e-03,-5.349108513e-04,-4.723351594e-05,-5.821443672e-04,-7.873660866e-05,4.815949648e-05,-3.057711218e-05,-4.187389139e-04,4.308018449e-05,-3.756587294e-04,-4.685411518e-04,6.531701130e-05,-4.032241405e-04,-5.464680590e-04,1.073600176e-04,-4.391080414e-04,-3.841373413e-04,8.464569133e-05,-2.994916500e-04,-2.167892325e-04,7.904524312e-05,-1.377439894e-04,-1.352685477e-04,8.733187895e-05,-4.793666874e-05,-6.576774901e-04,-6.701452197e-05,-7.246920120e-04,-7.686031132e-04,-2.458130341e-06,-7.710612436e-04,-7.474262737e-04,-1.061569252e-04,-8.535831989e-04,-4.454418227e-04,-7.232957117e-05,-5.177713938e-04,-2.333969898e-04,6.613192222e-05,-1.672650676e-04,-2.929818987e-04,-1.606064320e-05,-3.090425419e-04,-2.360357142e-04,3.067008766e-05,-2.053656266e-04,-1.649662398e-04,5.997048357e-09,-1.649602428e-04,-2.038881597e-04,2.661737359e-05,-1.772707861e-04,-4.712504956e-04,-1.109159477e-05,-4.823420904e-04,-1.267549341e-03,-1.450693982e-04,-1.412618739e-03,-1.302149980e-04,-6.981630403e-06,-1.371966284e-04,-9.369741151e-04,-2.040299421e-04,-1.141004057e-03,-1.871526794e-04,1.219405205e-06,-1.859332742e-04,-4.170508217e-04,-1.134964111e-04,-5.305472328e-04,-3.659522589e-04,-9.707326960e-05,-4.630255285e-04,-4.453533555e-04,-9.442334571e-05,-5.397767012e-04,-2.557949869e-04,-2.243215737e-05,-2.782271442e-04,8.706660889e-05,1.400001297e-05,1.010666219e-04,-2.334547527e-04,-5.254983465e-05,-2.860045874e-04,-6.584599024e-05,8.201378215e-06,-5.764461202e-05,-1.123141076e-04,-2.311579730e-05,-1.354299049e-04,-2.112585372e-04,-6.108026971e-05,-2.723388069e-04,-2.304742794e-04,-3.346186436e-05,-2.639361438e-04,-1.778893084e-04,-3.462117703e-05,-2.125104855e-04
-7.8,-3.235854014e-04,-1.777276890e-04,-5.013130904e-04,2.177227701e-05,1.696177460e-05,3.873405161e-05,-1.070901503e-03,-5.067079722e-05,-1.121572300e-03,-5.135836499e-04,-4.216934905e-05,-5.557529989e-04,-6.883135354e-05,4.726156693e-05,-2.156978662e-05,-3.831463760e-04,4.274207722e-05,-3.404042988e-04,-4.383566259e-04,6.472917358e-05,-3.736274524e-04,-5.096372739e-04,1.051203485e-04,-4.045169254e-04,-3.367297429e-04,8.277979297e-05,-2.539499500e-04,-1.797349565e-04,7.652119956e-05,-1.032137569e-04,-1.346368485e-04,8.480485012e-05,-4.983199836e-05,-6.166147108e-04,-6.402437484e-05,-6.806390856e-04,-7.401689817e-04,7.907569322e-06,-7.322614123e-04,-7.040737383e-04,-9.707173169e-05,-8.011454700e-04,-4.154979331e-04,-6.791267688e-05,-4.834106099e-04,-2.162250175e-04,6.556086046e-05,-1.506641571e-04,-2.614505870e-04,-1.593994510e-05,-2.773905321e-04,-2.250007571e-04,3.269082873e-05,-1.923099284e-04,-1.471957822e-04,-7.828194483e-07,-1.479786017e-04,-1.795027583e-04,2.831134898e-05,-1.511914093e-04,-4.781658743e-04,-8.715420367e-06,-4.868812947e-04,-1.217723364e-03,-1.343415331e-04,-1.352064897e-03,-1.826745108e-04,-4.888325590e-06,-1.875628364e-04,-9.211743722e-04,-1.919739251e-04,-1.113148297e-03,-1.622560823e-04,2.094952219e-06,-1.601611301e-04,-3.770258700e-04,-1.057469928e-04,-4.827728628e-04,-3.307044631e-04,-8.828935244e-05,-4.189938155e-04,-4.016572063e-04,-9.120591616e-05,-4.928631224e-04,-2.430790378e-04,-2.055824907e-05,-2.636372869e-04,7.901852236e-05,1.679425599e-05,9.581277835e-05,-2.072522471e-04,-5.239252621e-05,-2.596447733e-04,-5.449538802e-05,7.635407981e-06,-4.685998004e-05,-1.007349215e-04,-2.463810272e-05,-1.253730242e-04,-1.980601414e-04,-6.958665215e-05,-2.676467935e-04,-1.973393539e-04,-3.594980618e-05,-2.332891601e-04,-1.609809684e-04,-3.847301177e-05,-1.994539801e-04
-7.7,-2.960925277e-04,-1.725014299e-04,-4.685939575e-04,4.776792480e-05,1.988190575e-05,6.764983055e-05,-1.027016274e-03,-4.516862843e-05,-1.072184902e-03,-4.942115499e-04,-3.740147614e-05,-5.316130260e-04,-6.017874481e-05,4.629392129e-05,-1.388482352e-05,-3.490124680e-04,4.220535581e-05,-3.068071122e-04,-4.081494360e-04,6.405238176e-05,-3.440970542e-04,-4.732288229e-04,1.026333074e-04,-3.705955155e-04,-2.904911681e-04,8.069538379e-05,-2.097957843e-04,-1.440242840e-04,7.377464150e-05,-7.024964249e-05,-1.356714024e-04,8.226029796e-05,-5.341110447e-05,-5.756512001e-04,-6.134180779e-05,-6.369930079e-04,-7.106701165e-04,1.767015960e-05,-6.929999569e-04,-6.610486197e-04,-8.830469666e-05,-7.493533164e-04,-3.859552357e-04,-6.363711941e-05,-4.495923551e-04,-2.007995568e-04,6.477559005e-05,-1.360239668e-04,-2.310740774e-04,-1.593975172e-05,-2.470138291e-04,-2.160226610e-04,3.474277816e-05,-1.812798829e-04,-1.303800374e-04,-1.703330612e-06,-1.320833680e-04,-1.563575469e-04,2.987516968e-05,-1.264823773e-04,-4.858919873e-04,-6.451880233e-06,-4.923438675e-04,-1.169745615e-03,-1.241756916e-04,-1.293921307e-03,-2.353073410e-04,-2.831666996e-06,-2.381390079e-04,-9.052800718e-04,-1.800982712e-04,-1.085378343e-03,-1.383055981e-04,3.011643392e-06,-1.352939547e-04,-3.380480136e-04,-9.823965209e-05,-4.362876657e-04,-2.972137931e-04,-7.916635329e-05,-3.763801464e-04,-3.599196282e-04,-8.797715386e-05,-4.478967820e-04,-2.310291842e-04,-1.889438804e-05,-2.499235722e-04,6.885822099e-05,1.954262378e-05,8.840084477e-05,-1.822486527e-04,-5.220983104e-05,-2.344584837e-04,-4.488548524e-05,6.767930976e-06,-3.811755427e-05,-9.051814588e-05,-2.619757458e-05,-1.167157205e-04,-1.859868905e-04,-7.802125821e-05,-2.640081487e-04,-1.660750784e-04,-3.819403502e-05,-2.042691135e-04,-1.446041974e-04,-4.250377936e-05,-1.871079768e-04
-7.6,-2.696138099e-04,-1.676330177e-04,-4.372468276e-04,7.158352905e-05,2.257391507e-05,9.415744412e-05,-9.828683230e-04,-4.012715407e-05,-1.022995477e-03,-4.766079976e-04,-3.292896856e-05,-5.095369662e-04,-5.263662739e-05,4.526056940e-05,-7.376057982e-06,-3.162673068e-04,4.148646455e-05,-2.747808422e-04,-3.778651089e-04,6.328357879e-05,-3.145815301e-04,-4.371837205e-04,9.990944561e-05,-3.372742749e-04,-2.453754826e-04,7.839412616e-05,-1.669813564e-04,-1.095759107e-04,7.081673733e-05,-3.875917340e-05,-1.380497756e-04,7.970068100e-05,-5.834909461e-05,-5.348242261e-04,-5.894747868e-05,-5.937717048e-04,-6.799526721e-04,2.663779262e-05,-6.533148795e-04,-6.183895195e-04,-7.987632077e-05,-6.982658403e-04,-3.567967835e-04,-5.952070174e-05,-4.163174852e-04,-1.870567226e-04,6.377605125e-05,-1.232806714e-04,-2.018552254e-04,-1.603619253e-05,-2.178914179e-04,-2.090047322e-04,3.682102942e-05,-1.721837028e-04,-1.144669084e-04,-2.731969160e-06,-1.171988776e-04,-1.343903056e-04,3.129980265e-05,-1.030905029e-04,-4.941076034e-04,-4.297349450e-06,-4.984049529e-04,-1.123455623e-03,-1.145727325e-04,-1.238028356e-03,-2.876497916e-04,-8.138394633e-07,-2.884636310e-04,-8.890501252e-04,-1.684199246e-04,-1.057470050e-03,-1.153045003e-04,3.949164778e-06,-1.113553356e-04,-3.001713909e-04,-9.099726750e-05,-3.911686584e-04,-2.654823934e-04,-6.973003042e-05,-3.352124238e-04,-3.202183567e-04,-8.472369206e-05,-4.049420488e-04,-2.195718963e-04,-1.743897630e-05,-2.370108726e-04,5.678067435e-05,2.223930116e-05,7.901997551e-05,-1.584423967e-04,-5.197559559e-05,-2.104179923e-04,-3.694562161e-05,5.626831998e-06,-3.131878961e-05,-8.154100613e-05,-2.777920646e-05,-1.093202126e-04,-1.748895379e-04,-8.626826814e-05,-2.611578060e-04,-1.367412892e-04,-4.010130116e-05,-1.768425904e-04,-1.286649533e-04,-4.664958914e-05,-1.753145425e-04
-7.5,-2.441278336e-04,-1.631289270e-04,-4.072567607e-04,9.333740025e-05,2.503892865e-05,1.183763289e-04,-9.383638526e-04,-3.554907384e-05,-9.739129265e-04,-4.605835673e-04,-2.874844424e-05,-4.893320115e-04,-4.606903192e-05,4.416534393e-05,-1.903687982e-06,-2.848406311e-04,4.060167698e-05,-2.442389541e-04,-3.474611331e-04,6.241937386e-05,-2.850417592e-04,-4.014464272e-04,9.696113095e-05,-3.044852963e-04,-2.013379564e-04,7.587942173e-05,-1.254585347e-04,-7.631227151e-05,6.766055009e-05,-8.651721424e-06,-1.414538139e-04,7.712764762e-05,-6.432616631e-05,-4.941804314e-04,-5.682011987e-05,-5.510005513e-04,-6.478742149e-04,3.462790713e-05,-6.132463077e-04,-5.761456565e-04,-7.180617049e-05,-6.479518270e-04,-3.280098215e-04,-5.558060189e-05,-3.835904234e-04,-1.749276703e-04,6.256270687e-05,-1.123649634e-04,-1.738010953e-04,-1.620293673e-05,-1.900040320e-04,-2.038378190e-04,3.891734867e-05,-1.649204704e-04,-9.940754779e-05,-3.845305762e-06,-1.032528536e-04,-1.135409319e-04,3.257693656e-05,-8.096399531e-05,-5.025028893e-04,-2.247825209e-06,-5.047507145e-04,-1.078693904e-03,-1.055313485e-04,-1.184225252e-03,-3.392501378e-04,1.162628059e-06,-3.380875098e-04,-8.722593463e-04,-1.569567607e-04,-1.029216107e-03,-9.326143597e-05,4.885031971e-06,-8.837640400e-05,-2.634559084e-04,-8.403870899e-05,-3.474946173e-04,-2.355027246e-04,-6.002199158e-05,-2.955247161e-04,-2.826171170e-04,-8.143544169e-05,-3.640525587e-04,-2.086339088e-04,-1.618926256e-05,-2.248231714e-04,4.298887836e-05,2.487385636e-05,6.786273472e-05,-1.358340442e-04,-5.166328249e-05,-1.874973267e-04,-3.060649836e-05,4.244155400e-06,-2.636234296e-05,-7.368431358e-05,-2.936684493e-05,-1.030511585e-04,-1.646262027e-04,-9.420886339e-05,-2.588350661e-04,-1.093905775e-04,-4.158662687e-05,-1.509772043e-04,-1.130825417e-04,-5.084231762e-05,-1.639248594e-04
-7.4,-2.196105058e-04,-1.589889601e-04,-3.785994659e-04,1.131478824e-04,2.727930175e-05,1.404271841e-04,-8.934239559e-04,-3.143323509e-05,-9.248571909e-04,-4.459479224e-04,-2.485406251e-05,-4.708019849e-04,-4.034770098e-05,4.301189066e-05,2.664189678e-06,-2.546632338e-04,3.956684705e-05,-2.150963868e-04,-3.169079290e-04,6.145603466e-05,-2.554518943e-04,-3.659669810e-04,9.380247996e-05,-2.721645011e-04,-1.583364689e-04,7.315648896e-05,-8.517997996e-05,-4.416067375e-05,6.432061600e-05,2.015994225e-05,-1.455731481e-04,7.454203645e-05,-7.103111161e-05,-4.537756786e-04,-5.493651671e-05,-5.087121953e-04,-6.143062367e-04,4.147149944e-05,-5.728347372e-04,-5.343752549e-04,-6.411276679e-05,-5.984880217e-04,-2.995852895e-04,-5.183353546e-05,-3.514188250e-04,-1.643383753e-04,6.113666455e-05,-1.032017107e-04,-1.469224975e-04,-1.641156537e-05,-1.633340628e-04,-2.004000223e-04,4.101921561e-05,-1.593808067e-04,-8.515730043e-05,-5.020147413e-06,-9.017744784e-05,-9.375154501e-05,3.369896156e-05,-6.005258345e-05,-5.107815768e-04,-2.990650562e-07,-5.110806418e-04,-1.035303242e-03,-9.704779946e-05,-1.132351041e-03,-3.896717238e-04,3.094966969e-06,-3.865767568e-04,-8.547004573e-04,-1.457273721e-04,-1.000427829e-03,-7.218955353e-05,5.794962611e-06,-6.639459092e-05,-2.279659002e-04,-7.737836719e-05,-3.053442674e-04,-2.072581765e-04,-5.009888604e-05,-2.573570626e-04,-2.471638225e-04,-7.810636961e-05,-3.252701921e-04,-1.981424630e-04,-1.514108189e-05,-2.132835449e-04,2.769394974e-05,2.743092734e-05,5.512487708e-05,-1.144252664e-04,-5.124679101e-05,-1.656720574e-04,-2.579921381e-05,2.655641357e-06,-2.314357245e-05,-6.683428445e-05,-3.094258738e-05,-9.777687183e-05,-1.550647760e-04,-1.017211788e-04,-2.567859548e-04,-8.406505978e-05,-4.257656520e-05,-1.266416250e-04,-9.779019357e-05,-5.501087999e-05,-1.528010736e-04
-7.3,-1.960358817e-04,-1.552064980e-04,-3.512423797e-04,1.311312703e-04,2.929862166e-05,1.604298919e-04,-8.479859960e-04,-2.777475934e-05,-8.757607553e-04,-4.325110147e-04,-2.123753184e-05,-4.537485465e-04,-3.535257329e-05,4.180367956e-05,6.451106272e-06,-2.256676701e-04,3.839731758e-05,-1.872703525e-04,-2.861883982e-04,6.038951479e-05,-2.257988835e-04,-3.307023608e-04,9.044940430e-05,-2.402529565e-04,-1.163317421e-04,7.023242334e-05,-4.609931875e-05,-1.305360658e-05,6.081257646e-05,4.775896988e-05,-1.501079064e-04,7.194388848e-05,-7.816401794e-05,-4.136738309e-04,-5.327132518e-05,-4.669451561e-04,-5.791353894e-04,4.701632734e-05,-5.321190621e-04,-4.931423297e-04,-5.681319294e-05,-5.499555227e-04,-2.715163640e-04,-4.829571035e-05,-3.198120743e-04,-1.552082798e-04,5.949971712e-05,-9.570856271e-05,-1.212320585e-04,-1.663218956e-05,-1.378642480e-04,-1.985565246e-04,4.310945140e-05,-1.554470731e-04,-7.167560708e-05,-6.233567284e-06,-7.790917436e-05,-7.496576492e-05,3.465899544e-05,-4.030676948e-05,-5.186620364e-04,1.553360846e-06,-5.171086756e-04,-9.931292967e-04,-8.911551217e-05,-1.082244809e-03,-4.384955043e-04,4.980278604e-06,-4.335152257e-04,-8.361854816e-04,-1.347507370e-04,-9.709362186e-04,-5.210440465e-05,6.653615689e-06,-4.545078896e-05,-1.937668386e-04,-7.102582158e-05,-2.647926602e-04,-1.807231808e-04,-4.003040715e-05,-2.207535880e-04,-2.138877244e-04,-7.473486322e-05,-2.886225876e-04,-1.880249583e-04,-1.428860336e-05,-2.023135616e-04,1.111543837e-05,2.989029539e-05,4.100573376e-05,-9.421689690e-05,-5.070096694e-05,-1.449178638e-04,-2.245330200e-05,9.004013133e-07,-2.155290069e-05,-6.088286701e-05,-3.248636060e-05,-9.336922760e-05,-1.460829583e-04,-1.086812289e-04,-2.547641872e-04,-6.079251693e-05,-4.301175177e-05,-1.038042687e-04,-8.273427946e-05,-5.908272746e-05,-1.418170069e-04
-7.2,-1.733768174e-04,-1.517688715e-04,-3.251456889e-04,1.474002453e-04,3.110163366e-05,1.785018790e-04,-8.020044000e-04,-2.456521150e-05,-8.265696115e-04,-4.200837236e-04,-1.788812709e-05,-4.379718507e-04,-3.097151968e-05,4.054402911e-05,9.572509437e-06,-1.977883759e-04,3.710797707e-05,-1.606803989e-04,-2.552964965e-04,5.921554025e-05,-1.960809562e-04,-2.956170502e-04,8.691963645e-05,-2.086974137e-04,-7.528698722e-05,6.711623306e-05,-8.170754153e-06,1.707149070e-05,5.715288113e-05,7.422437183e-05,-1.547708748e-04,6.933248019e-05,-8.543839460e-05,-3.739449729e-04,-5.179684796e-05,-4.257418208e-04,-5.422646098e-04,5.113008786e-05,-4.911345219e-04,-4.525127278e-04,-4.992249597e-05,-5.024352238e-04,-2.437969671e-04,-4.498248028e-05,-2.887794473e-04,-1.474484432e-04,5.765419053e-05,-8.979425266e-05,-9.674142802e-05,-1.683419009e-05,-1.135756181e-04,-1.981600022e-04,4.516661230e-05,-1.529933899e-04,-5.892492220e-05,-7.462954654e-06,-6.638787686e-05,-5.712776093e-05,3.545093632e-05,-2.167682462e-05,-5.258778480e-04,3.314044048e-06,-5.225638039e-04,-9.520209570e-04,-8.172473439e-05,-1.033745691e-03,-4.853223974e-04,6.815619070e-06,-4.785067784e-04,-8.165469062e-04,-1.240457904e-04,-9.405926966e-04,-3.302136774e-05,7.435599301e-06,-2.558576844e-05,-1.609211165e-04,-6.498575754e-05,-2.259068741e-04,-1.558624904e-04,-2.989686771e-05,-1.857593581e-04,-1.827962832e-04,-7.132360470e-05,-2.541198879e-04,-1.782085583e-04,-1.362409357e-05,-1.918326519e-04,-6.518794015e-06,3.222735753e-05,2.570856352e-05,-7.520659159e-05,-5.000193149e-05,-1.252085231e-04,-2.049440913e-05,-9.793262875e-07,-2.147373541e-05,-5.572695623e-05,-3.397587001e-05,-8.970282624e-05,-1.375662734e-04,-1.149652449e-04,-2.525315183e-04,-3.958240285e-05,-4.284848789e-05,-8.243089074e-05,-6.787278382e-05,-6.298552442e-05,-1.308583082e-04
-7.1,-1.516056605e-04,-1.486578514e-04,-3.002635119e-04,1.620626267e-04,3.269409002e-05,1.947567167e-04,-7.554511420e-04,-2.179281453e-05,-7.772439566e-04,-4.084783460e-04,-1.479273031e-05,-4.232710763e-04,-2.709988152e-05,3.923613674e-05,1.213625522e-05,-1.709615436e-04,3.571336941e-05,-1.352481742e-04,-2.242356085e-04,5.792973496e-05,-1.663058736e-04,-2.606830807e-04,8.323258388e-05,-1.774504968e-04,-3.516751817e-05,6.381883001e-05,2.865131184e-05,4.627255530e-05,5.335855664e-05,9.963111194e-05,-1.592894605e-04,6.670636188e-05,-9.258309863e-05,-3.346637448e-04,-5.048285307e-05,-3.851465978e-04,-5.036150865e-04,5.370400311e-05,-4.499110834e-04,-4.125504584e-04,-4.345301459e-05,-4.560034730e-04,-2.164209245e-04,-4.190785601e-05,-2.583287805e-04,-1.409601325e-04,5.560265254e-05,-8.535747999e-05,-7.345853841e-05,-1.698694872e-05,-9.044548713e-05,-1.990517565e-04,4.716587535e-05,-1.518858812e-04,-4.686911031e-05,-8.686102309e-06,-5.555521262e-05,-4.018161438e-05,3.606949862e-05,-4.112115756e-06,-5.321784694e-04,4.987659911e-06,-5.271908095e-04,-9.118308362e-04,-7.486236329e-05,-9.866931995e-04,-5.297756629e-04,8.598051351e-06,-5.211776115e-04,-7.956387841e-04,-1.136309624e-04,-9.092697465e-04,-1.495335314e-05,8.116437610e-06,-6.836915526e-06,-1.294842864e-04,-5.925811452e-05,-1.887424010e-04,-1.326300073e-04,-1.978693996e-05,-1.524169473e-04,-1.538728452e-04,-6.787905033e-05,-2.217518955e-04,-1.686201043e-04,-1.313771634e-05,-1.817578206e-04,-2.497343657e-05,3.441396594e-05,9.440529368e-06,-5.738660087e-05,-4.912742099e-05,-1.065140219e-04,-1.984227868e-05,-2.938407773e-06,-2.278068645e-05,-5.126696056e-05,-3.538716479e-05,-8.665412536e-05,-1.294048511e-04,-1.204535882e-04,-2.498584393e-04,-2.042236584e-05,-4.205946248e-05,-6.248182832e-05,-5.317357510e-05,-6.664886503e-05,-1.198224401e-04
-7,-1.306951017e-04,-1.458502243e-04,-2.765453260e-04,1.752202971e-04,3.408255047e-05,2.093028475e-04,-7.083160880e-04,-1.944271085e-05,-7.277587988e-04,-3.975091873e-04,-1.193592532e-05,-4.094451126e-04,-2.364015530e-05,3.788310253e-05,1.424294723e-05,-1.451249957e-04,3.422775106e-05,-1.108972446e-04,-1.930171836e-04,5.652775310e-05,-1.364894305e-04,-2.258798100e-04,7.940893908e-05,-1.464708709e-04,4.059395192e-06,6.035296597e-05,6.441236116e-05,7.460306209e-05,4.944702234e-05,1.240500844e-04,-1.634076502e-04,6.406338528e-05,-9.934426495e-05,-2.959079447e-04,-4.929650211e-05,-3.452044468e-04,-4.631292535e-04,5.465659865e-05,-4.084726548e-04,-3.733147761e-04,-3.741373246e-05,-4.107285086e-04,-1.893818127e-04,-3.908401530e-05,-2.284658280e-04,-1.356342938e-04,5.334759960e-05,-8.228669416e-05,-5.138538095e-05,-1.706054115e-05,-6.844592210e-05,-2.010631903e-04,4.907993952e-05,-1.519832508e-04,-3.547180177e-05,-9.881313045e-06,-4.535311482e-05,-2.407121201e-05,3.651025436e-05,1.243904235e-05,-5.373302201e-04,6.578831175e-06,-5.307513889e-04,-8.724160599e-04,-6.851190975e-05,-9.409279697e-04,-5.715032335e-04,1.032467681e-05,-5.611785567e-04,-7.733375739e-04,-1.035237710e-04,-8.768613449e-04,2.090922941e-06,8.673321870e-06,1.076424481e-05,-9.950240189e-05,-5.383831524e-05,-1.533407171e-04,-1.109680033e-04,-9.795469252e-06,-1.207634725e-04,-1.270756861e-04,-6.441070763e-05,-1.914863938e-04,-1.591863144e-04,-1.281739530e-05,-1.720037097e-04,-4.400720963e-05,3.641962169e-05,-7.587587942e-06,-4.074190848e-05,-4.805716047e-05,-8.879906895e-05,-2.040920457e-05,-4.929186233e-06,-2.533839080e-05,-4.740504960e-05,-3.669578523e-05,-8.410083483e-05,-1.214894058e-04,-1.250359156e-04,-2.465253214e-04,-3.275705010e-06,-4.063384492e-05,-4.390954993e-05,-3.861252618e-05,-7.000602961e-05,-1.086185558e-04
-6.9,-1.106191512e-04,-1.433184071e-04,-2.539375583e-04,1.869682834e-04,3.527415202e-05,2.222424355e-04,-6.606071775e-04,-1.749726357e-05,-6.781044410e-04,-3.869932908e-04,-9.300170819e-06,-3.962934616e-04,-2.050185757e-05,3.648792623e-05,1.598606866e-05,-1.202181713e-04,3.266507753e-05,-8.755309374e-05,-1.616597144e-04,5.500540587e-05,-1.066543085e-04,-1.911935324e-04,7.547005961e-05,-1.157234728e-04,4.242441919e-05,5.673312669e-05,9.915754588e-05,1.021119810e-04,4.543594800e-05,1.475479290e-04,-1.668879409e-04,6.140072768e-05,-1.054872132e-04,-2.577571312e-04,-4.820246749e-05,-3.059595987e-04,-4.207744634e-04,5.393721033e-05,-3.668372531e-04,-3.348580092e-04,-3.180975312e-05,-3.666677623e-04,-1.626732410e-04,-3.652080148e-05,-1.991940424e-04,-1.313517068e-04,5.089117597e-05,-8.046053083e-05,-3.051622885e-05,-1.702642263e-05,-4.754265148e-05,-2.040172134e-04,5.087973645e-05,-1.531374770e-04,-2.469494052e-05,-1.102754264e-05,-3.572248316e-05,-8.740607359e-06,3.676972675e-05,2.802911939e-05,-5.411174941e-04,8.091986867e-06,-5.330255072e-04,-8.336392636e-04,-6.265349278e-05,-8.962927564e-04,-6.101798581e-04,1.199265118e-05,-5.981872069e-04,-7.495425054e-04,-9.374050859e-05,-8.432830140e-04,1.810815603e-05,9.085726766e-06,2.719388280e-05,-7.101023673e-05,-4.871748433e-05,-1.197277211e-04,-9.080711829e-05,-2.100929986e-08,-9.082812759e-05,-1.023384183e-04,-6.093035443e-05,-1.632687727e-04,-1.498341846e-04,-1.264879516e-05,-1.624829798e-04,-6.337484068e-05,3.821297137e-05,-2.516186931e-05,-2.524887585e-05,-4.677317137e-05,-7.202204722e-05,-2.209893533e-05,-6.902092951e-06,-2.900102828e-05,-4.404349630e-05,-3.787803058e-05,-8.192152687e-05,-1.137070950e-04,-1.286166196e-04,-2.423237146e-04,1.191995802e-05,-3.857683814e-05,-2.665688012e-05,-2.417143058e-05,-7.299583268e-05,-9.716726326e-05
-6.8,-9.135417001e-05,-1.410310668e-04,-2.323852368e-04,1.973939562e-04,3.627635088e-05,2.336703070e-04,-6.123504437e-04,-1.593638900e-05,-6.282868327e-04,-3.767514030e-04,-6.866062273e-06,-3.836174653e-04,-1.760162150e-05,3.505346007e-05,1.745183856e-05,-9.618242415e-05,3.103897552e-05,-6.514344862e-05,-1.301882365e-04,5.335878120e-05,-7.682945530e-05,-1.566171052e-04,7.143720767e-05,-8.517989756e-05,7.995571233e-05,5.297540031e-05,1.329311126e-04,1.288434834e-04,4.134316227e-05,1.701866457e-04,-1.695132106e-04,5.871493483e-05,-1.107982757e-04,-2.202912640e-04,-4.716329812e-05,-2.674545621e-04,-3.765470862e-04,5.152863151e-05,-3.250184547e-04,-2.972242617e-04,-2.664202978e-05,-3.238662915e-04,-1.362895798e-04,-3.422516976e-05,-1.705147496e-04,-1.279837014e-04,4.823496166e-05,-7.974873975e-05,-1.083630671e-05,-1.685811014e-05,-2.769441685e-05,-2.077295111e-04,5.253499092e-05,-1.551945202e-04,-1.449766117e-05,-1.210462801e-05,-2.660228918e-05,5.865272184e-06,3.684551605e-05,4.271078823e-05,-5.433441194e-04,9.531247875e-06,-5.338128715e-04,-7.953696411e-04,-5.726385147e-05,-8.526334926e-04,-6.455090748e-04,1.359917348e-05,-6.319099013e-04,-7.241755809e-04,-8.429600110e-05,-8.084715820e-04,3.310103120e-05,9.336010960e-06,4.243704216e-05,-4.403023455e-05,-4.388275527e-05,-8.791298982e-05,-7.206697646e-05,9.436876277e-06,-6.263010018e-05,-7.957175062e-05,-5.745128824e-05,-1.370230389e-04,-1.404916651e-04,-1.261552265e-05,-1.531071877e-04,-8.282971943e-05,3.976348181e-05,-4.306623762e-05,-1.087460306e-05,-4.525999039e-05,-5.613459345e-05,-2.480620334e-05,-8.806457770e-06,-3.361266111e-05,-4.108370175e-05,-3.891178280e-05,-7.999548455e-05,-1.059387377e-04,-1.311192422e-04,-2.370579799e-04,2.525241351e-05,-3.590859446e-05,-1.065618094e-05,-9.836033936e-06,-7.556436728e-05,-8.540040122e-05
-6.7,-7.287992933e-05,-1.389537208e-04,-2.118336501e-04,2.065762213e-04,3.709665998e-05,2.436728813e-04,-5.635900247e-04,-1.473791082e-05,-5.783279355e-04,-3.666094045e-04,-4.612677157e-06,-3.712220816e-04,-1.486373416e-05,3.358232139e-05,1.871858723e-05,-7.296188782e-05,2.936272938e-05,-4.359915843e-05,-9.863469062e-05,5.158434382e-05,-4.705034680e-05,-1.221499333e-04,6.733077325e-05,-5.481916009e-05,1.166779417e-04,4.909731666e-05,1.657752584e-04,1.548362766e-04,3.718659957e-05,1.920228762e-04,-1.710885783e-04,5.600199190e-05,-1.150865864e-04,-1.835898282e-04,-4.614002192e-05,-2.297298501e-04,-3.304768930e-04,4.744832106e-05,-2.830285719e-04,-2.604493606e-04,-2.190741632e-05,-2.823567770e-04,-1.102273565e-04,-3.220062716e-05,-1.424279836e-04,-1.253937572e-04,4.537994382e-05,-8.001381338e-05,7.678758574e-06,-1.653181812e-05,-8.853059550e-06,-2.120099360e-04,5.401471247e-05,-1.579952236e-04,-4.835705520e-06,-1.309361350e-05,-1.792931902e-05,1.979967258e-05,3.673636090e-05,5.653603348e-05,-5.438348371e-04,1.090031937e-05,-5.329345178e-04,-7.574838403e-04,-5.231648403e-05,-8.098003243e-04,-6.772251082e-04,1.514143982e-05,-6.620836683e-04,-6.971814659e-04,-7.520339749e-05,-7.723848634e-04,4.707779852e-05,9.409990609e-06,5.648778912e-05,-1.857255396e-05,-3.931783145e-05,-5.789038541e-05,-5.465738817e-05,1.848014687e-05,-3.617724130e-05,-5.866667654e-05,-5.398766286e-05,-1.126543394e-04,-1.310887050e-04,-1.269958516e-05,-1.437882902e-04,-1.021273907e-04,4.104314975e-05,-6.108424091e-05,2.422843862e-06,-4.350486814e-05,-4.108202428e-05,-2.841704768e-05,-1.059144033e-05,-3.900848801e-05,-3.842634791e-05,-3.977664994e-05,-7.820299785e-05,-9.805880985e-05,-1.324889458e-04,-2.305477557e-04,3.683266738e-05,-3.266235808e-05,4.170309298e-06,4.405414285e-06,-7.766638654e-05,-7.326097226e-05
-6.6,-5.518063318e-05,-1.370493049e-04,-1.922299381e-04,2.145846515e-04,3.774242363e-05,2.523270751e-04,-5.143882819e-04,-1.387792234e-05,-5.282662042e-04,-3.564003051e-04,-2.517986858e-06,-3.589182920e-04,-1.222120205e-05,3.207678930e-05,1.985558725e-05,-5.050488912e-05,2.764923097e-05,-2.285565815e-05,-6.703921215e-05,4.967899716e-05,-1.736021499e-05,-8.779846757e-05,6.316954762e-05,-2.462891995e-05,1.526107113e-04,4.511763708e-05,1.977283484e-04,1.801225713e-04,3.298423470e-05,2.131068060e-04,-1.714432586e-04,5.325741087e-05,-1.181858478e-04,-1.477316167e-04,-4.509293357e-05,-1.928245503e-04,-2.826310518e-04,4.174780955e-05,-2.408832423e-04,-2.245620960e-04,-1.759894536e-05,-2.421610414e-04,-8.448718485e-05,-3.044675536e-05,-1.149339402e-04,-1.234401847e-04,4.232681285e-05,-8.111337190e-05,2.506248327e-05,-1.602698642e-05,9.035496859e-06,-2.166643727e-04,5.528776016e-05,-1.613766125e-04,4.338461556e-06,-1.397712111e-05,-9.638659556e-06,3.311295743e-05,3.644207416e-05,6.955503159e-05,-5.424367619e-04,1.220237370e-05,-5.302343882e-04,-7.198664994e-04,-4.778198985e-05,-7.676484892e-04,-7.050946573e-04,1.661657535e-05,-6.884780819e-04,-6.685273499e-04,-6.647395264e-05,-7.350013025e-04,6.005081784e-05,9.297427417e-06,6.934824526e-05,5.363618425e-06,-3.500383099e-05,-2.964021257e-05,-3.848039194e-05,2.701443114e-05,-1.146596081e-05,-3.949889735e-05,-5.055388020e-05,-9.005277755e-05,-1.215586075e-04,-1.288198496e-05,-1.344405925e-04,-1.210295797e-04,4.202811443e-05,-7.900146528e-05,1.469352959e-05,-4.149801179e-05,-2.680448220e-05,-3.280976395e-05,-1.220706645e-05,-4.501683040e-05,-3.597257725e-05,-4.045366040e-05,-7.642623765e-05,-8.993842941e-05,-1.326928479e-04,-2.226312773e-04,4.679098260e-05,-2.888188630e-05,1.790909630e-05,1.856302686e-05,-7.926628734e-05,-6.070326047e-05
-6.5,-3.824576876e-05,-1.352787158e-04,-1.735244845e-04,2.214787219e-04,3.822064648e-05,2.596993684e-04,-4.648258950e-04,-1.333114125e-05,-4.781570363e-04,-3.459665967e-04,-5.593140733e-07,-3.465259107e-04,-9.617069636e-06,3.053870629e-05,2.092163665e-05,-2.876550943e-05,2.591081951e-05,-2.854689926e-06,-3.545184469e-05,4.764011254e-05,1.218826785e-05,-5.357694579e-05,5.897003370e-05,5.393087911e-06,1.877667027e-04,4.105608709e-05,2.288227898e-04,2.047269419e-04,2.875395856e-05,2.334809005e-04,-1.704322289e-04,5.047632324e-05,-1.199559057e-04,-1.127947381e-04,-4.398251773e-05,-1.567772558e-04,-2.331165028e-04,3.451023506e-05,-1.986062677e-04,-1.895861020e-04,-1.370614590e-05,-2.032922479e-04,-5.907557262e-05,-2.895883450e-05,-8.803440712e-05,-1.219794063e-04,3.907659848e-05,-8.290280778e-05,4.135634114e-05,-1.532666171e-05,2.602967943e-05,-2.214972553e-04,5.632369055e-05,-1.651735647e-04,1.307492018e-05,-1.473968822e-05,-1.664768039e-06,4.585166337e-05,3.596340528e-05,8.181506865e-05,-5.390205293e-04,1.343995839e-05,-5.255805710e-04,-6.824103398e-04,-4.362852808e-05,-7.260388679e-04,-7.289184130e-04,1.802157193e-05,-7.108968411e-04,-6.382026763e-04,-5.811677662e-05,-6.963194529e-04,7.203461333e-05,8.992420414e-06,8.102703375e-05,2.778802288e-05,-3.092027299e-05,-3.132250110e-06,-2.343327464e-05,3.495101835e-05,1.151774372e-05,-2.193403051e-05,-4.716386970e-05,-6.909790021e-05,-1.118394721e-04,-1.314325311e-05,-1.249827252e-04,-1.393081386e-04,4.270008961e-05,-9.660804902e-05,2.599460416e-05,-3.923290654e-05,-1.323830238e-05,-3.785593645e-05,-1.360539612e-05,-5.146133257e-05,-3.362552575e-05,-4.092500227e-05,-7.455052802e-05,-8.145034528e-05,-1.317186037e-04,-2.131689490e-04,5.527199633e-05,-2.461845056e-05,3.065354577e-05,3.264570981e-05,-8.033867998e-05,-4.769297016e-05
-6.4,-2.207064631e-05,-1.336013564e-04,-1.556720027e-04,2.273074718e-04,3.853785894e-05,2.658453307e-04,-4.150015946e-04,-1.307123979e-05,-4.280728344e-04,-3.351625536e-04,1.286184938e-06,-3.338763686e-04,-7.005463916e-06,2.896939771e-05,2.196393379e-05,-7.704754134e-06,2.415901238e-05,1.645425825e-05,-3.933819189e-06,4.546556602e-05,4.153174683e-05,-1.950790476e-05,5.474581198e-05,3.523790722e-05,2.221500752e-04,3.693304945e-05,2.590831247e-04,2.286654824e-04,2.451339677e-05,2.531788792e-04,-1.679374004e-04,4.765358823e-05,-1.202838121e-04,-7.885623832e-05,-4.277042298e-05,-1.216266613e-04,-1.820799782e-04,2.584645107e-05,-1.562335272e-04,-1.555413307e-04,-1.021525233e-05,-1.657565830e-04,-3.400587877e-05,-2.772749469e-05,-6.173337347e-05,-1.208689656e-04,3.563147431e-05,-8.523749129e-05,5.660842373e-05,-1.441774974e-05,4.219067399e-05,-2.263146493e-04,5.709399617e-05,-1.692206531e-04,2.142531607e-05,-1.536804507e-05,6.057271002e-06,5.805791103e-05,3.530191440e-05,9.335982543e-05,-5.334808313e-04,1.461498600e-05,-5.188658453e-04,-6.450158487e-04,-3.982223033e-05,-6.848380790e-04,-7.485320989e-04,1.935325014e-05,-7.291788487e-04,-6.062185681e-04,-5.013854370e-05,-6.563571118e-04,8.304416527e-05,8.493698209e-06,9.153786348e-05,4.871741690e-05,-2.704600673e-05,2.167141017e-05,-9.412398445e-06,4.220925966e-05,3.279686122e-05,-5.833069837e-06,-4.383006943e-05,-4.966313926e-05,-1.018753270e-04,-1.346378936e-05,-1.153391163e-04,-1.567483866e-04,4.304761317e-05,-1.137007734e-04,3.638972723e-05,-3.670670991e-05,-3.169826792e-07,-4.342090008e-05,-1.474181867e-05,-5.816271875e-05,-3.129139575e-05,-4.117418001e-05,-7.246557576e-05,-7.247460937e-05,-1.295719730e-04,-2.020465824e-04,6.243006154e-05,-1.992782714e-05,4.250223439e-05,4.666142035e-05,-8.086842050e-05,-3.420700015e-05
-6.3,-6.656501243e-06,-1.319757095e-04,-1.386322108e-04,2.321099463e-04,3.869998407e-05,2.708099304e-04,-3.650310567e-04,-1.307112413e-05,-3.781021808e-04,-3.238559771e-04,3.041043049e-06,-3.208149340e-04,-4.351768998e-06,2.736963444e-05,2.301786544e-05,1.270915771e-05,2.240422055e-05,3.511337826e-05,2.744252827e-05,4.315383087e-05,7.059635914e-05,1.437796914e-05,5.050708455e-05,6.488505369e-05,2.557556980e-04,3.276923674e-05,2.885249347e-04,2.519456350e-04,2.027969865e-05,2.722253337e-04,-1.638679880e-04,4.478393324e-05,-1.190840548e-04,-4.599082437e-05,-4.142033030e-05,-8.741115468e-05,-1.297057463e-04,1.589068727e-05,-1.138150591e-04,-1.224441184e-04,-7.109246289e-06,-1.295533647e-04,-9.297942230e-06,-2.673830769e-05,-3.603624992e-05,-1.199694799e-04,3.199551395e-05,-8.797396593e-05,7.087256468e-05,-1.329117571e-05,5.758138897e-05,-2.309274562e-04,5.757354987e-05,-1.733539063e-04,2.944217114e-05,-1.585133477e-05,1.359083636e-05,6.976941308e-05,3.445987856e-05,1.042292916e-04,-5.257361016e-04,1.572881876e-05,-5.100072829e-04,-6.075905177e-04,-3.632751405e-05,-6.439180318e-04,-7.638068153e-04,2.060824603e-05,-7.431985693e-04,-5.726066911e-04,-4.254317725e-05,-6.151498683e-04,9.309417252e-05,7.804779955e-06,1.008989525e-04,6.817475903e-05,-2.335994022e-05,4.481481880e-05,3.682743283e-06,4.871984056e-05,5.240258384e-05,8.942736548e-06,-4.056208742e-05,-3.161935087e-05,-9.161641553e-05,-1.382398367e-05,-1.054403992e-04,-1.731514042e-04,4.306710537e-05,-1.300842988e-04,4.594941519e-05,-3.392063813e-05,1.202877706e-05,-4.936325533e-05,-1.557637579e-05,-6.493963112e-05,-2.887948267e-05,-4.118657598e-05,-7.006605865e-05,-6.290358747e-05,-1.262741424e-04,-1.891777299e-04,6.842580278e-05,-1.486761693e-05,5.355818585e-05,6.061768410e-05,-8.085007355e-05,-2.023238944e-05
-6.2,7.989991943e-06,-1.303599355e-04,-1.223699435e-04,2.359166803e-04,3.871219161e-05,2.746288720e-04,-3.150444495e-04,-1.330312957e-05,-3.283475790e-04,-3.119288956e-04,4.727049767e-06,-3.072018458e-04,-1.631426641e-06,2.573967842e-05,2.410825178e-05,3.250174053e-05,2.065554678e-05,5.315728731e-05,5.859588652e-05,4.070414196e-05,9.930002848e-05,4.804299450e-05,4.626051630e-05,9.430351080e-05,2.885695529e-04,2.858533474e-05,3.171548876e-04,2.745669307e-04,1.606930585e-05,2.906362365e-04,-1.581598951e-04,4.186212398e-05,-1.162977711e-04,-1.426822160e-05,-3.989857490e-05,-5.416679650e-05,-7.621131686e-05,4.796688614e-06,-7.141462824e-05,-9.030525913e-05,-4.367755403e-06,-9.467301453e-05,1.502381976e-05,-2.597132542e-05,-1.094750566e-05,-1.191449646e-04,2.817527879e-05,-9.096968578e-05,8.420848417e-05,-1.194197217e-05,7.226651200e-05,-2.351539966e-04,5.774184685e-05,-1.774121498e-04,3.717892510e-05,-1.618122755e-05,2.099769755e-05,8.102021157e-05,3.344020701e-05,1.144604186e-04,-5.157272434e-04,1.678240257e-05,-4.989448408e-04,-5.700475223e-04,-3.310738889e-05,-6.031549112e-04,-7.746485543e-04,2.178301946e-05,-7.528655348e-04,-5.374173621e-04,-3.533150933e-05,-5.727488714e-04,1.022000257e-04,6.933990743e-06,1.091340164e-04,8.619051588e-05,-1.984152998e-05,6.634898590e-05,1.594627105e-05,5.442867824e-05,7.037494929e-05,2.252875864e-05,-3.736525947e-05,-1.483650082e-05,-8.101836575e-05,-1.420420311e-05,-9.522256886e-05,-1.883349810e-04,4.276360218e-05,-1.455713788e-04,5.475237229e-05,-3.088021092e-05,2.387216136e-05,-5.553359555e-05,-1.607495154e-05,-7.160854709e-05,-2.630090245e-05,-4.095014392e-05,-6.725104637e-05,-5.264480585e-05,-1.218593842e-04,-1.745041900e-04,7.342435226e-05,-9.495045147e-06,6.392930711e-05,7.452260172e-05,-8.028687673e-05,-5.764275015e-06
-6.1,2.185784627e-05,-1.287124806e-04,-1.068546344e-04,2.387521741e-04,3.857878198e-05,2.773309561e-04,-2.651824779e-04,-1.373911920e-05,-2.789215971e-04,-2.992771581e-04,6.364875260e-06,-2.929122829e-04,1.172639371e-06,2.407941974e-05,2.525205911e-05,5.169432314e-05,1.892067875e-05,7.061500189e-05,8.943996059e-05,3.811670067e-05,1.275566613e-04,8.144464844e-05,4.200935741e-05,1.234540058e-04,3.205700581e-04,2.440159109e-05,3.449716492e-04,2.965225169e-04,1.189770507e-05,3.084202220e-04,-1.507742125e-04,3.888314238e-05,-1.118910701e-04,1.625082019e-05,-3.817455984e-05,-2.192373965e-05,-2.184172116e-05,-7.265273997e-06,-2.910699516e-05,-5.912656908e-05,-1.966917847e-06,-6.109348693e-05,3.893345589e-05,-2.540073327e-05,1.353272262e-05,-1.182615580e-04,2.418016404e-05,-9.408139395e-05,9.668303112e-05,-1.036933349e-05,8.631369763e-05,-2.388214201e-04,5.758376412e-05,-1.812376560e-04,4.469070432e-05,-1.635185250e-05,2.833885182e-05,9.184194311e-05,3.224636510e-05,1.240883082e-04,-5.034156601e-04,1.777639960e-05,-4.856392605e-04,-5.323039646e-04,-3.012384482e-05,-5.624278094e-04,-7.809970306e-04,2.287388502e-05,-7.581231456e-04,-5.007170794e-04,-2.850088741e-05,-5.292179668e-04,1.103805885e-04,5.894320946e-06,1.162749094e-04,1.028062360e-04,-1.647108959e-05,8.633514637e-05,2.746433262e-05,5.930046711e-05,8.676479973e-05,3.505624765e-05,-3.423955341e-05,8.166942416e-07,-7.004069211e-05,-1.458478245e-05,-8.462547456e-05,-2.021334787e-04,4.215096150e-05,-1.599825172e-04,6.288725477e-05,-2.759527617e-05,3.529197860e-05,-6.177311954e-05,-1.621025968e-05,-7.798337922e-05,-2.346635239e-05,-4.045604755e-05,-6.392239994e-05,-4.162073379e-05,-1.163734236e-04,-1.579941574e-04,7.759494941e-05,-3.865252400e-06,7.372969701e-05,8.838607587e-05,-7.918934031e-05,9.196735565e-06
-6,3.493331411e-05,-1.269926900e-04,-9.205937590e-05,2.406378737e-04,3.830317411e-05,2.789410478e-04,-2.155915072e-04,-1.435052022e-05,-2.299420274e-04,-2.858095679e-04,7.973711751e-06,-2.778358561e-04,4.073196525e-06,2.238855211e-05,2.646174863e-05,7.030646816e-05,1.720582575e-05,8.751229391e-05,1.198879893e-04,3.539285939e-05,1.552808487e-04,1.145380707e-04,3.775373993e-05,1.522918107e-04,3.517294663e-04,2.023735230e-05,3.719668186e-04,3.178009007e-04,7.779197594e-06,3.255800983e-04,-1.416952785e-04,3.584235965e-05,-1.058529188e-04,4.551887235e-05,-3.622117741e-05,9.297694944e-06,3.313625885e-05,-2.011059518e-05,1.302566367e-05,-2.889762390e-05,1.206273444e-07,-2.877699655e-05,6.240652015e-05,-2.499483631e-05,3.741168384e-05,-1.171856355e-04,2.002241883e-05,-9.716321671e-05,1.083717322e-04,-8.576688172e-06,9.979504398e-05,-2.417660891e-04,5.708987692e-05,-1.846762121e-04,5.203526535e-05,-1.635954314e-05,3.567572221e-05,1.022650587e-04,3.088235092e-05,1.331474096e-04,-4.887812481e-04,1.871130845e-05,-4.700699396e-04,-4.942792076e-04,-2.733827675e-05,-5.216174844e-04,-7.828242345e-04,2.387706267e-05,-7.589471718e-04,-4.625860063e-04,-2.204473137e-05,-4.846307377e-04,1.176617172e-04,4.703028257e-06,1.223647455e-04,1.180787511e-04,-1.322998088e-05,1.048487702e-04,3.831510635e-05,6.332091358e-05,1.016360199e-04,4.665324500e-05,-3.117933437e-05,1.547391063e-05,-5.864558360e-05,-1.494611751e-05,-7.359170111e-05,-2.143974273e-04,4.125143195e-05,-1.731459953e-04,7.045389970e-05,-2.407987958e-05,4.637402012e-05,-6.791299482e-05,-1.596268392e-05,-8.387567874e-05,-2.028397363e-05,-3.969924903e-05,-5.998322266e-05,-2.976632417e-05,-1.098724999e-04,-1.396388241e-04,8.111087576e-05,1.969939152e-06,8.308081492e-05,1.022207668e-04,-7.757378945e-05,2.464697740e-05
-5.9,4.720150097e-05,-1.251613992e-04,-7.795989820e-05,2.415949724e-04,3.788803148e-05,2.794830039e-04,-1.664187721e-04,-1.510834993e-05,-1.815271220e-04,-2.714474454e-04,9.570902140e-06,-2.618765433e-04,7.081341733e-06,2.066670862e-05,2.774805035e-05,8.835768716e-05,1.551566814e-05,1.038733553e-04,1.498560823e-04,3.253523534e-05,1.823913176e-04,1.472778866e-04,3.349110021e-05,1.807689868e-04,3.820144237e-04,1.611060412e-05,3.981250278e-04,3.383871612e-04,3.726742563e-06,3.421139038e-04,-1.309289011e-04,3.273571076e-05,-9.819319033e-05,7.350499814e-05,-3.401538495e-05,3.948961318e-05,8.843872024e-05,-3.354214885e-05,5.489657139e-05,4.054678018e-07,1.925501267e-06,2.330969068e-06,8.542177920e-05,-2.471649161e-05,6.070528759e-05,-1.157827836e-04,1.571685114e-05,-1.000659325e-04,1.193594439e-04,-6.571781509e-06,1.127876624e-04,-2.438335553e-04,5.625645716e-05,-1.875770981e-04,5.927337103e-05,-1.620249528e-05,4.307087575e-05,1.123193566e-04,2.935276590e-05,1.416721225e-04,-4.718210473e-04,1.958757132e-05,-4.522334760e-04,-4.558939234e-04,-2.471184106e-05,-4.806057645e-04,-7.801331716e-04,2.478873418e-05,-7.553444374e-04,-4.231159498e-04,-1.595211421e-05,-4.390680640e-04,1.240789566e-04,3.380854637e-06,1.274598112e-04,1.320826305e-04,-1.010071372e-05,1.219819167e-04,4.856952281e-05,6.649727706e-05,1.150667999e-04,5.744553612e-05,-2.817420669e-05,2.927132943e-05,-4.679779850e-05,-1.526889286e-05,-6.206669136e-05,-2.249936854e-04,4.009462293e-05,-1.848990625e-04,7.756313759e-05,-2.035212879e-05,5.721100880e-05,-7.377516970e-05,-1.532099888e-05,-8.909616858e-05,-1.665863813e-05,-3.867903261e-05,-5.533767073e-05,-1.702654214e-05,-1.024225366e-04,-1.194490787e-04,8.414855590e-05,7.962798069e-06,9.211135397e-05,1.160422504e-04,-7.546120726e-05,4.058104312e-05
-5.8,5.864779878e-05,-1.231814422e-04,-6.453364342e-05,2.416464500e-04,3.733550904e-05,2.789819590e-04,-1.178084842e-04,-1.598324810e-05,-1.337917323e-04,-2.561251107e-04,1.117159087e-05,-2.449535198e-04,1.020775174e-05,1.891351896e-05,2.912127070e-05,1.058677834e-04,1.385333242e-05,1.197211158e-04,1.792642468e-04,2.954774418e-05,2.088119910e-04,1.796185081e-04,2.921676532e-05,2.088352734e-04,4.113851837e-04,1.203758843e-05,4.234227721e-04,3.582630609e-04,-2.480790656e-07,3.580149819e-04,-1.185012480e-04,2.955987083e-05,-8.894137720e-05,1.001956208e-04,-3.153888095e-05,6.865673989e-05,1.437677728e-04,-4.735230189e-05,9.641547089e-05,2.881823124e-05,3.481058827e-06,3.229929007e-05,1.079608136e-04,-2.452400603e-05,8.343680753e-05,-1.139187927e-04,1.128041150e-05,-1.026383812e-04,1.297392472e-04,-4.366719537e-06,1.253725277e-04,-2.448786573e-04,5.508507462e-05,-1.897935827e-04,6.646806086e-05,-1.588047977e-05,5.058758110e-05,1.220334628e-04,2.766295076e-05,1.496964136e-04,-4.525489689e-04,2.040563305e-05,-4.321433358e-04,-4.170701899e-04,-2.220573789e-05,-4.392759277e-04,-7.729571721e-04,2.560509122e-05,-7.473520809e-04,-3.824091205e-04,-1.020747938e-05,-3.926165999e-04,1.296782429e-04,1.950875767e-06,1.316291187e-04,1.449094053e-04,-7.067030913e-06,1.378423744e-04,5.829175984e-05,6.885735909e-05,1.271491189e-04,6.755645132e-05,-2.521068142e-05,4.234576990e-05,-3.446601517e-05,-1.553445010e-05,-5.000046527e-05,-2.338066455e-04,3.871600951e-05,-1.950906360e-04,8.433464520e-05,-1.643410484e-05,6.790054036e-05,-7.917500093e-05,-1.428290963e-05,-9.345791056e-05,-1.249354060e-05,-3.739933914e-05,-4.989287974e-05,-3.355935407e-06,-9.409778640e-05,-9.745372181e-05,8.688519051e-05,1.406994910e-05,1.009551396e-04,1.298678332e-04,-7.287652854e-05,5.699130468e-05
-5.7,6.925906699e-05,-1.210180005e-04,-5.175893351e-05,2.408180010e-04,3.664759754e-05,2.774655985e-04,-6.989923643e-05,-1.694550194e-05,-8.684473838e-05,-2.397913155e-04,1.278845392e-05,-2.270028616e-04,1.346219974e-05,1.712860238e-05,3.059080212e-05,1.228556808e-04,1.222041073e-05,1.350760915e-04,2.080348402e-04,2.643557023e-05,2.344704105e-04,2.115126500e-04,2.492470106e-05,2.364373511e-04,4.397934760e-04,8.032534182e-06,4.478260102e-04,3.774058520e-04,-4.134976035e-06,3.732708760e-04,-1.044586489e-04,2.631240835e-05,-7.814624052e-05,1.255928349e-04,-2.877878565e-05,9.681404920e-05,1.988130552e-04,-6.132539917e-05,1.374876560e-04,5.638307813e-05,4.822593865e-06,6.120567199e-05,1.300055225e-04,-2.437242510e-05,1.056330974e-04,-1.114631102e-04,6.731889420e-06,-1.047312208e-04,1.396092989e-04,-1.977928435e-06,1.376313704e-04,-2.447660079e-04,5.358163206e-05,-1.911843759e-04,7.368255636e-05,-1.539471175e-05,5.828784460e-05,1.314333056e-04,2.581911274e-05,1.572524183e-04,-4.309966379e-04,2.116591607e-05,-4.098307218e-04,-3.777325897e-04,-1.978149014e-05,-3.975140799e-04,-7.613599207e-04,2.632237385e-05,-7.350375469e-04,-3.405776434e-04,-4.790571494e-06,-3.453682149e-04,1.345141331e-04,4.371307894e-07,1.349512639e-04,1.566633161e-04,-4.114108152e-06,1.525492080e-04,6.753890873e-05,7.044744045e-05,1.379863492e-04,7.710511520e-05,-2.227409228e-05,5.483102292e-05,-2.162547236e-05,-1.572528818e-05,-3.735076054e-05,-2.407404945e-04,3.715513938e-05,-2.035853551e-04,9.089270539e-05,-1.235169077e-05,7.854101463e-05,-8.392568965e-05,-1.285533201e-05,-9.678102166e-05,-7.694134495e-06,-3.586888210e-05,-4.356301659e-05,1.127898552e-05,-8.497891893e-05,-7.369993341e-05,8.949496171e-05,2.025202107e-05,1.097469828e-04,1.437138273e-04,-6.984832916e-05,7.386549812e-05
-5.6,7.902458401e-05,-1.186387599e-04,-3.961417591e-05,2.391378392e-04,3.582654589e-05,2.749643850e-04,-2.282272112e-05,-1.796506227e-05,-4.078778338e-05,-2.224113794e-04,1.443152348e-05,-2.079798559e-04,1.685151828e-05,1.531152835e-05,3.216304663e-05,1.393370327e-04,1.061702600e-05,1.499540587e-04,2.360889746e-04,2.320508715e-05,2.592940617e-04,2.429084422e-04,2.060830940e-05,2.635167516e-04,4.671794858e-04,4.107496835e-06,4.712869827e-04,3.957860107e-04,-7.924776349e-06,3.878612344e-04,-8.886820561e-05,2.299188613e-05,-6.587631949e-05,1.497107632e-04,-2.572830750e-05,1.239824557e-04,2.532515578e-04,-7.524046559e-05,1.780110922e-04,8.314282308e-05,5.986333814e-06,8.912915690e-05,1.515341849e-04,-2.421497808e-05,1.273192068e-04,-1.082942325e-04,2.091769766e-06,-1.062024627e-04,1.490679315e-04,5.740259464e-07,1.496419574e-04,-2.433710175e-04,5.175491963e-05,-1.916160979e-04,8.097686146e-05,-1.474788086e-05,6.622898060e-05,1.405399272e-04,2.382844108e-05,1.643683683e-04,-4.072150366e-04,2.186874448e-05,-3.853462921e-04,-3.378100072e-04,-1.740121476e-05,-3.552112220e-04,-7.454360375e-04,2.693691015e-05,-7.184991274e-04,-2.977435611e-04,3.234325114e-07,-2.974201286e-04,1.386459337e-04,-1.136796494e-06,1.375091372e-04,1.674543257e-04,-1.228888507e-06,1.662254372e-04,7.635972806e-05,7.132981223e-05,1.476895403e-04,8.620326541e-05,-1.935009211e-05,6.685317330e-05,-8.261374356e-06,-1.582563592e-05,-2.408701028e-05,-2.457220675e-04,3.545370515e-05,-2.102683624e-04,9.736030496e-05,-8.134162584e-06,8.922614238e-05,-8.784418055e-05,-1.105433763e-05,-9.889851817e-05,-2.173593231e-06,-3.410120422e-05,-3.627479745e-05,2.689499853e-05,-7.515098482e-05,-4.825598629e-05,9.214419207e-05,2.647268225e-05,1.186168743e-04,1.575916210e-04,-6.640872121e-05,9.118289981e-05
-5.5,8.793685935e-05,-1.160138995e-04,-2.807704018e-05,2.366356879e-04,3.487530832e-05,2.715109962e-04,2.329655374e-05,-1.901156880e-05,4.284984939e-06,-2.039695721e-04,1.610808899e-05,-1.878614831e-04,2.037661788e-05,1.346176686e-05,3.383838474e-05,1.553212082e-04,9.041938115e-06,1.643631463e-04,2.633419333e-04,1.986374585e-05,2.832056792e-04,2.737458599e-04,1.626117017e-05,2.900070300e-04,4.934686672e-04,2.722930100e-07,4.937409602e-04,4.133644426e-04,-1.160922513e-05,4.017552174e-04,-7.181885136e-05,1.959790853e-05,-5.222094283e-05,1.725709781e-04,-2.238734783e-05,1.501836303e-04,3.067462018e-04,-8.887377738e-05,2.178724244e-04,1.091340105e-04,7.008350687e-06,1.161423612e-04,1.725170087e-04,-2.400439814e-05,1.485126106e-04,-1.043058195e-04,-2.617866163e-06,-1.069236857e-04,1.582077603e-04,3.264784276e-06,1.614725446e-04,-2.405815516e-04,4.961509152e-05,-1.909664601e-04,8.840349517e-05,-1.394426770e-05,7.445922747e-05,1.493670263e-04,2.169929019e-05,1.710663164e-04,-3.812764639e-04,2.251429819e-05,-3.587621657e-04,-2.972377725e-04,-1.502780587e-05,-3.122655783e-04,-7.253118710e-04,2.744516345e-05,-6.978667075e-04,-2.540390465e-04,5.163671372e-06,-2.488753751e-04,1.421327323e-04,-2.749059390e-06,1.393836729e-04,1.773897982e-04,1.599579967e-06,1.789893781e-04,8.479301965e-05,7.158025202e-05,1.563732717e-04,9.495123464e-05,-1.642536577e-05,7.852586887e-05,5.627509706e-06,-1.582198606e-05,-1.019447635e-05,-2.487037162e-04,3.365364410e-05,-2.150500721e-04,1.038525012e-04,-3.813554800e-06,1.000389464e-04,-9.075795744e-05,-8.904697422e-06,-9.966265486e-05,4.141349210e-06,-3.211478243e-05,-2.797343322e-05,4.348616244e-05,-6.470173493e-05,-2.121557249e-05,9.498592568e-05,3.269731822e-05,1.276832439e-04,1.715029755e-04,-6.259310749e-05,1.089098680e-04
-5.4,9.599242088e-05,-1.131159572e-04,-1.712353635e-05,2.333413832e-04,3.379794022e-05,2.671393234e-04,6.834104227e-05,-2.005439689e-05,4.828664538e-05,-1.844711809e-04,1.782266607e-05,-1.666485148e-04,2.402933576e-05,1.157864861e-05,3.560798436e-05,1.708083595e-04,7.492709613e-06,1.783010691e-04,2.896987958e-04,1.641997092e-05,3.061187667e-04,3.039531849e-04,1.187773162e-05,3.158309166e-04,5.185691512e-04,-3.465465819e-06,5.151036854e-04,4.300897771e-04,-1.518078008e-05,4.149089970e-04,-5.342243473e-05,1.613113794e-05,-3.729129679e-05,1.941979172e-04,-1.876288011e-05,1.754350371e-04,3.589442568e-04,-1.020013395e-04,2.569429172e-04,1.343812920e-04,7.923588927e-06,1.423048809e-04,1.929120872e-04,-2.369399628e-05,1.692180909e-04,-9.941240644e-05,-7.373433803e-06,-1.067858402e-04,1.671097189e-04,6.066636037e-06,1.731763550e-04,-2.363002458e-04,4.717252714e-05,-1.891277186e-04,9.600301889e-05,-1.298986230e-05,8.301315660e-05,1.579186271e-04,1.944144198e-05,1.773600690e-04,-3.532763233e-04,2.310262709e-05,-3.301736962e-04,-2.559598347e-04,-1.262500972e-05,-2.685848444e-04,-7.011461377e-04,2.784378688e-05,-6.733023508e-04,-2.096065501e-04,9.763286871e-06,-1.998432632e-04,1.450283138e-04,-4.380493405e-06,1.406478204e-04,1.865663072e-04,4.379919452e-06,1.909462267e-04,9.286653085e-05,7.128533022e-05,1.641518611e-04,1.034341475e-04,-1.348778164e-05,8.994636587e-05,2.002563416e-05,-1.570348235e-05,4.322151804e-06,-2.496656887e-04,3.179541675e-05,-2.178702720e-04,1.104701862e-04,5.760584293e-07,1.110462446e-04,-9.251198098e-05,-6.439028644e-06,-9.895100962e-05,1.130502354e-05,-2.993302507e-05,-1.862800153e-05,6.101804726e-05,-5.372065676e-05,7.297390493e-06,9.815447017e-05,3.889175947e-05,1.370462296e-04,1.854348634e-04,-5.843942956e-05,1.269954339e-04
-5.3,1.031926904e-04,-1.099195956e-04,-6.726905230e-06,2.292835088e-04,3.259990330e-05,2.618834121e-04,1.122000330e-04,-2.106271636e-05,9.113731660e-05,-1.639436584e-04,1.957706217e-05,-1.443665962e-04,2.778994367e-05,9.661374188e-06,3.745131785e-05,1.857872969e-04,5.965971487e-06,1.917532683e-04,3.150514985e-04,1.288311597e-05,3.279346145e-04,3.334442981e-04,7.453965407e-06,3.408982635e-04,5.423705175e-04,-7.100236268e-06,5.352702813e-04,4.458964099e-04,-1.863243982e-05,4.272639701e-04,-3.381437657e-05,1.259329555e-05,-2.122108102e-05,2.146152277e-04,-1.486891918e-05,1.997463085e-04,4.094771866e-04,-1.144016034e-04,2.950755832e-04,1.588939636e-04,8.765227721e-06,1.676591913e-04,2.126628105e-04,-2.323855436e-05,1.894242562e-04,-9.355385680e-05,-1.214982451e-05,-1.057036813e-04,1.758379984e-04,8.948977091e-06,1.847869755e-04,-2.304472177e-04,4.443732282e-05,-1.860098949e-04,1.038001025e-04,-1.189244388e-05,9.190765862e-05,1.661874633e-04,1.706632008e-05,1.832537834e-04,-3.233341600e-04,2.363367689e-05,-2.997004832e-04,-2.139305369e-04,-1.015744551e-05,-2.240879825e-04,-6.731299443e-04,2.812969148e-05,-6.450002528e-04,-1.645984094e-04,1.415903307e-05,-1.504393763e-04,1.473768804e-04,-6.015058229e-06,1.413618221e-04,1.950630368e-04,7.118350215e-06,2.021813870e-04,1.005971650e-04,7.053936107e-05,1.711365261e-04,1.117196759e-04,-1.052650177e-05,1.011931741e-04,3.489865204e-05,-1.546208218e-05,1.943656986e-05,-2.486173179e-04,2.991654186e-05,-2.187007760e-04,1.172954220e-04,4.999220269e-06,1.222946423e-04,-9.297472056e-05,-3.696646192e-06,-9.667136675e-05,1.934856991e-05,-2.758388154e-05,-8.235311630e-06,7.942390845e-05,-4.229874895e-05,3.712515950e-05,1.017606495e-04,4.502141586e-05,1.467820654e-04,1.993545846e-04,-5.398682110e-05,1.453677635e-04
-5.2,1.095450991e-04,-1.064012538e-04,3.143845349e-06,2.244885292e-04,3.128828600e-05,2.557768152e-04,1.547703255e-04,-2.200553606e-05,1.327647895e-04,-1.424362052e-04,2.137058805e-05,-1.210656171e-04,3.162621499e-05,7.709118438e-06,3.933533343e-05,2.002349411e-04,4.457804519e-06,2.046927457e-04,3.392786003e-04,9.263500303e-06,3.485421006e-04,3.621178379e-04,2.987902946e-06,3.651057409e-04,5.647447212e-04,-1.062832174e-05,5.541163995e-04,4.607040224e-04,-2.195766839e-05,4.387463541e-04,-1.315334412e-05,8.987137013e-06,-4.166207106e-06,2.338441549e-04,-1.072598957e-05,2.231181654e-04,4.579637925e-04,-1.258586480e-04,3.321051445e-04,1.826659198e-04,9.564542053e-06,1.922304618e-04,2.316980155e-04,-2.259516965e-05,2.091028459e-04,-8.669760459e-05,-1.692019334e-05,-1.036177979e-04,1.844369385e-04,1.187882335e-05,1.963157618e-04,-2.229624680e-04,4.141932829e-05,-1.815431397e-04,1.118009282e-04,-1.066161317e-05,1.011393151e-04,1.741548002e-04,1.458703970e-05,1.887418399e-04,-2.915932098e-04,2.410728648e-05,-2.674859234e-04,-1.711153970e-04,-7.590603995e-06,-1.787060010e-04,-6.414856124e-04,2.830014811e-05,-6.131854643e-04,-1.191752609e-04,1.839075228e-05,-1.007845086e-04,1.492107929e-04,-7.639725482e-06,1.415710675e-04,2.029384645e-04,9.818838687e-06,2.127573032e-04,1.079930430e-04,6.944097235e-05,1.774340153e-04,1.198587420e-04,-7.532369032e-06,1.123263729e-04,5.019342721e-05,-1.509243782e-05,3.510098940e-05,-2.455961214e-04,2.805039199e-05,-2.175457294e-04,1.243893612e-04,9.419609842e-06,1.338089710e-04,-9.204200613e-05,-7.223038412e-07,-9.276430997e-05,2.827762101e-05,-2.509893203e-05,3.178688978e-06,9.860412683e-05,-3.052855266e-05,6.807557416e-05,1.058887935e-04,5.105093370e-05,1.569397272e-04,2.132065423e-04,-4.927403316e-05,1.639325092e-04
-5.1,1.150646138e-04,-1.025386621e-04,1.252595167e-05,2.189808845e-04,2.987194574e-05,2.488528302e-04,1.959583224e-04,-2.285170603e-05,1.731066164e-04,-1.200173105e-04,2.320043411e-05,-9.681687642e-05,3.549477255e-05,5.721240840e-06,4.121601339e-05,2.141179188e-04,2.964200412e-06,2.170821192e-04,3.622486067e-04,5.572504582e-06,3.678211113e-04,3.898590581e-04,-1.520040840e-06,3.883390173e-04,5.855496468e-04,-1.404760582e-05,5.715020410e-04,4.744191384e-04,-2.515046067e-05,4.492686777e-04,8.380583560e-06,5.316386097e-06,1.369696966e-05,2.519048213e-04,-6.360109661e-06,2.455447116e-04,5.040180115e-04,-1.361656455e-04,3.678523661e-04,2.056797410e-04,1.035129269e-05,2.160310336e-04,2.499357381e-04,-2.172411527e-05,2.282116228e-04,-7.883783981e-05,-2.165563257e-05,-1.004934724e-04,1.929306789e-04,1.482149663e-05,2.077521755e-04,-2.138070174e-04,3.812841931e-05,-1.756785981e-04,1.199925831e-04,-9.308741832e-06,1.106838413e-04,1.817921491e-04,1.201831871e-05,1.938104678e-04,-2.582178818e-04,2.452319758e-05,-2.336946843e-04,-1.274903527e-04,-4.890822305e-06,-1.323811750e-04,-6.064638575e-04,2.835294636e-05,-5.781109111e-04,-7.350280491e-05,2.250070537e-05,-5.100209955e-05,1.505515077e-04,-9.243927546e-06,1.413075802e-04,2.102316456e-04,1.248357569e-05,2.227152213e-04,1.150578590e-04,6.808925205e-05,1.831471111e-04,1.278898669e-04,-4.498487167e-06,1.233913797e-04,6.584041770e-05,-1.459148747e-05,5.124893024e-05,-2.406643697e-04,2.622525163e-05,-2.144391181e-04,1.317930487e-04,1.380050040e-05,1.455935491e-04,-8.963779679e-05,2.434962523e-06,-8.720283427e-05,3.807256977e-05,-2.251203228e-05,1.556053748e-05,1.184292123e-04,-1.850388759e-05,9.992532476e-05,1.105964279e-04,5.694414357e-05,1.675405715e-04,2.269119887e-04,-4.433826124e-05,1.825737274e-04
-5,1.197757228e-04,-9.831024723e-05,2.146547560e-05,2.127842515e-04,2.836156469e-05,2.411458162e-04,2.356836584e-04,-2.356987299e-05,2.121137854e-04,-9.677030187e-05,2.506216497e-05,-7.170813690e-05,3.934479088e-05,3.697555544e-06,4.304234642e-05,2.273962579e-04,1.481537182e-06,2.288777950e-04,3.838265947e-04,1.822673886e-06,3.856492686e-04,4.165443437e-04,-6.066954275e-06,4.104773894e-04,6.046349733e-04,-1.735727753e-05,5.872776957e-04,4.869387072e-04,-2.820552072e-05,4.587331865e-04,3.058942837e-05,1.585632294e-06,3.217506066e-05,2.688201966e-04,-1.801394755e-06,2.670188019e-04,5.472610431e-04,-1.451280203e-04,4.021330229e-04,2.279141035e-04,1.115446562e-05,2.390685691e-04,2.672901008e-04,-2.058963705e-05,2.467004638e-04,-6.999161272e-05,-2.632487976e-05,-9.631649249e-05,2.013256454e-04,1.774152646e-05,2.190671719e-04,-2.029621595e-04,3.457471669e-05,-1.683874428e-04,1.283445818e-04,-7.846783896e-06,1.204977979e-04,1.890647090e-04,9.376332104e-06,1.984410411e-04,-2.233892226e-04,2.488114691e-05,-1.985080757e-04,-8.303936972e-05,-2.025258069e-06,-8.506462779e-05,-5.683393594e-04,2.828660979e-05,-5.400527496e-04,-2.774706360e-05,2.653280305e-05,-1.214260549e-06,1.514138714e-04,-1.081874014e-05,1.405951313e-04,2.169679444e-04,1.511380595e-05,2.320817503e-04,1.217974549e-04,6.657953769e-05,1.883769926e-04,1.358462747e-04,-1.420579993e-06,1.344256947e-04,8.175787668e-05,-1.395784989e-05,6.780002678e-05,-2.339036474e-04,2.446362784e-05,-2.094400196e-04,1.395303560e-04,1.810533341e-05,1.576356894e-04,-8.571213063e-05,5.722814213e-06,-7.998931641e-05,4.869129330e-05,-1.985769700e-05,2.883359630e-05,1.387456773e-04,-6.319267150e-06,1.324264102e-04,1.159169044e-04,6.266388122e-05,1.785807856e-04,2.403720451e-04,-3.921475942e-05,2.011572857e-04
-4.9,1.237146576e-04,-9.369453214e-05,3.002012544e-05,2.059236927e-04,2.676960838e-05,2.326933011e-04,2.738837648e-04,-2.412842792e-05,2.497553369e-04,-7.278768289e-05,2.695023830e-05,-4.583744459e-05,4.312322324e-05,1.638582530e-06,4.476180577e-05,2.400283349e-04,6.993878298e-09,2.400353287e-04,4.038825356e-04,-1.972225282e-06,4.019103103e-04,4.420473242e-04,-1.064747173e-05,4.313998525e-04,6.218491730e-04,-2.055757385e-05,6.012915991e-04,4.981550014e-04,-3.111846749e-05,4.670365339e-04,5.326211076e-05,-2.199777639e-06,5.106233313e-05,2.846211840e-04,2.917566491e-06,2.875387505e-04,5.873353230e-04,-1.525657340e-04,4.347695890e-04,2.493521701e-04,1.200300699e-05,2.613551771e-04,2.836794021e-04,-1.916054442e-05,2.645188577e-04,-6.019298290e-05,-3.089417600e-05,-9.108715890e-05,2.096149745e-04,2.060367705e-05,2.302186515e-04,-1.904270312e-04,3.076866244e-05,-1.596583688e-04,1.368119731e-04,-6.289959851e-06,1.305220132e-04,1.959357604e-04,6.678524937e-06,2.026142854e-04,-1.872991495e-04,2.518103894e-05,-1.621181106e-04,-3.775099087e-05,1.038083516e-06,-3.671290735e-05,-5.274053479e-04,2.810063055e-05,-4.993047173e-04,1.793107797e-05,3.053180253e-05,4.846288049e-05,1.518124018e-04,-1.235591615e-05,1.394564857e-04,2.231671927e-04,1.771084966e-05,2.408780424e-04,1.282274026e-04,6.499929786e-05,1.932267005e-04,1.437633674e-04,1.703330774e-06,1.454666981e-04,9.785662052e-05,-1.319120221e-05,8.466541831e-05,-2.254087528e-04,2.278177820e-05,-2.026269746e-04,1.476116349e-04,2.229846946e-05,1.699101043e-04,-8.023775082e-05,9.086568285e-06,-7.115118254e-05,6.007336684e-05,-1.716946872e-05,4.290389812e-05,1.593834381e-04,5.930603007e-06,1.653140411e-04,1.218640310e-04,6.817145714e-05,1.900354881e-04,2.534731207e-04,-3.393710382e-05,2.195360169e-04
-4.8,1.269313505e-04,-8.866966533e-05,3.826168520e-05,1.984280199e-04,2.511018374e-05,2.235382036e-04,3.105182202e-04,-2.449552076e-05,2.860226994e-04,-4.816550050e-05,2.885846036e-05,-1.930704014e-05,4.678012137e-05,-4.542802652e-07,4.632584110e-05,2.519757306e-04,-1.461162266e-06,2.505145683e-04,4.222990346e-04,-5.797228952e-06,4.165018056e-04,4.662450032e-04,-1.525393498e-05,4.509910682e-04,6.370461429e-04,-2.364955819e-05,6.133965847e-04,5.079607261e-04,-3.388598945e-05,4.740747366e-04,7.617974519e-05,-6.033830122e-06,7.014591506e-05,2.993506072e-04,7.763357110e-06,3.071139643e-04,6.239171008e-04,-1.583148284e-04,4.656022724e-04,2.699882821e-04,1.292619352e-05,2.829144757e-04,2.990330059e-04,-1.741055365e-05,2.816224522e-04,-4.948700373e-05,-3.532736765e-05,-8.481437139e-05,2.177833730e-04,2.337390630e-05,2.411572793e-04,-1.762155607e-04,2.672112905e-05,-1.494944317e-04,1.453390092e-04,-4.653409445e-06,1.406855997e-04,2.023709605e-04,3.943355011e-06,2.063143156e-04,-1.501446318e-04,2.542311584e-05,-1.247215160e-04,8.385128298e-06,4.330216905e-06,1.271534520e-05,-4.839681377e-04,2.779567443e-05,-4.561724633e-04,6.338094945e-05,3.454251761e-05,9.792346706e-05,1.517672639e-04,-1.384690880e-05,1.379203551e-04,2.288512527e-04,2.027705693e-05,2.491283096e-04,1.343796187e-04,6.342471893e-05,1.978043376e-04,1.516839693e-04,4.874042292e-06,1.565580116e-04,1.140440195e-04,-1.229178583e-05,1.017522337e-04,-2.152824794e-04,2.118947713e-05,-1.940930022e-04,1.560367305e-04,2.634601917e-05,1.823827497e-04,-7.320716772e-05,1.247034147e-05,-6.073682625e-05,7.214443938e-05,-1.447854521e-05,5.766589417e-05,1.801630095e-04,1.815107645e-05,1.983140859e-04,1.284369859e-04,7.342591882e-05,2.018629048e-04,2.660931941e-04,-2.853771080e-05,2.375554833e-04
-4.7,1.294905865e-04,-8.321317835e-05,4.627740817e-05,1.903316911e-04,2.339880193e-05,2.137304931e-04,3.455717365e-04,-2.463921028e-05,3.209325262e-04,-2.299884055e-05,3.078033264e-05,7.781492086e-06,5.027273149e-05,-2.578680628e-06,4.769405087e-05,2.632068231e-04,-2.923447647e-06,2.602833754e-04,4.389766901e-04,-9.636294202e-06,4.293403959e-04,4.890225481e-04,-1.987663355e-05,4.691459145e-04,6.500903414e-04,-2.663494624e-05,6.234553951e-04,5.162533599e-04,-3.650591791e-05,4.797474419e-04,9.912063555e-05,-9.909917037e-06,8.921071851e-05,3.130646614e-04,1.270310875e-05,3.257677701e-04,6.567256772e-04,-1.622291496e-04,4.944965276e-04,2.898312789e-04,1.395343849e-05,3.037847173e-04,3.132954538e-04,-1.531848261e-05,2.979769712e-04,-3.792504700e-05,-3.958634642e-05,-7.751139342e-05,2.258110458e-04,2.602006386e-05,2.518311097e-04,-1.603541625e-04,2.244390924e-05,-1.379102532e-04,1.538623621e-04,-2.952897679e-06,1.509094644e-04,2.083416134e-04,1.189974802e-06,2.095315882e-04,-1.121229017e-04,2.560805558e-05,-8.651484609e-05,5.538066165e-05,7.880913972e-06,6.326157562e-05,-4.383424483e-04,2.737373022e-05,-4.109687181e-04,1.084658517e-04,3.860906827e-05,1.470749199e-04,1.513080457e-04,-1.528208752e-05,1.360259581e-04,2.340485486e-04,2.281650305e-05,2.568650517e-04,1.403062564e-04,6.191844028e-05,2.022246967e-04,1.596598521e-04,8.092718431e-06,1.677525705e-04,1.302262993e-04,-1.126007437e-05,1.189662250e-04,-2.036324330e-04,1.969011059e-05,-1.839423224e-04,1.647965168e-04,3.021662622e-05,1.950131431e-04,-6.463117881e-05,1.581839055e-05,-4.881278826e-05,8.481967256e-05,-1.181287526e-05,7.300679730e-05,2.009007927e-04,3.024798198e-05,2.311487747e-04,1.356240366e-04,7.838347081e-05,2.140075074e-04,2.781074059e-04,-2.304832221e-05,2.550590837e-04
-4.6,1.314719865e-04,-7.730203849e-05,5.416994806e-05,1.816758328e-04,2.165204819e-05,2.033278810e-04,3.790550677e-04,-2.452777138e-05,3.545272963e-04,2.620968662e-06,3.270928128e-05,3.533024994e-05,5.356763218e-05,-4.731322296e-06,4.883630988e-05,2.736985404e-04,-4.379187798e-06,2.693193526e-04,4.538363206e-04,-1.347251116e-05,4.403638094e-04,5.102760221e-04,-2.450407209e-05,4.857719500e-04,6.608599291e-04,-2.951596700e-05,6.313439621e-04,5.229380962e-04,-3.897721624e-05,4.839608799e-04,1.218643698e-04,-1.382089549e-05,1.080434743e-04,3.258316377e-04,1.770533820e-05,3.435369759e-04,6.855289762e-04,-1.641830820e-04,5.213458942e-04,3.089040367e-04,1.511355116e-05,3.240175879e-04,3.264273917e-04,-1.286842621e-05,3.135589655e-04,-2.556220043e-05,-4.363188011e-05,-6.919408054e-05,2.336758756e-04,2.851226627e-05,2.621881419e-04,-1.428810919e-04,1.795077005e-05,-1.249303218e-04,1.623132512e-04,-1.204591987e-06,1.611086592e-04,2.138263095e-04,-1.562095406e-06,2.122642141e-04,-7.342843874e-05,2.573700093e-05,-4.769143781e-05,1.032493240e-04,1.171833889e-05,1.149676628e-04,-3.908480636e-04,2.683819762e-05,-3.640098660e-04,1.530649331e-04,4.277417575e-05,1.958391089e-04,1.504744796e-04,-1.665028886e-05,1.338241908e-04,2.387946052e-04,2.533533921e-05,2.641299444e-04,1.460798287e-04,6.052872441e-05,2.066085531e-04,1.677494089e-04,1.136231406e-05,1.791117229e-04,1.463088449e-04,-1.009657871e-05,1.362122662e-04,-1.905703504e-04,1.828114561e-05,-1.722892048e-04,1.738727394e-04,3.388206861e-05,2.077548080e-04,-5.453902746e-05,1.907647278e-05,-3.546255468e-05,9.800561249e-05,-9.196797483e-06,8.880881501e-05,2.214112706e-04,4.212879838e-05,2.635400690e-04,1.434043857e-04,8.299742432e-05,2.264018101e-04,2.893918082e-04,-1.750033965e-05,2.718914685e-04
-4.5,1.329686981e-04,-7.091303171e-05,6.205566635e-05,1.725082378e-04,1.988715790e-05,1.923953957e-04,4.110036424e-04,-2.413013930e-05,3.868735031e-04,2.860735384e-05,3.463877997e-05,6.324613380e-05,5.664076151e-05,-6.908045936e-06,4.973271558e-05,2.834362392e-04,-5.826659302e-06,2.776095799e-04,4.668181821e-04,-1.728838833e-05,4.495297938e-04,5.299129835e-04,-2.912325210e-05,5.007897314e-04,6.692479105e-04,-3.229522015e-05,6.369526904e-04,5.279291088e-04,-4.129987214e-05,4.866292367e-04,1.441946417e-04,-1.775912226e-05,1.264355195e-04,3.377283646e-04,2.274016485e-05,3.604685294e-04,7.101458769e-04,-1.640752633e-04,5.460706136e-04,3.272396885e-04,1.643364629e-05,3.436733348e-04,3.384036826e-04,-1.004998240e-05,3.283537002e-04,-1.245681095e-05,-4.742481552e-05,-5.988162647e-05,2.413535648e-04,3.082304355e-05,2.721766083e-04,-1.238474688e-04,1.325875451e-05,-1.105887143e-04,1.706183194e-04,5.750823668e-07,1.711934018e-04,2.188107298e-04,-4.293255123e-06,2.145174747e-04,-3.425200197e-05,2.581154285e-05,-8.440459116e-06,1.520056112e-04,1.586863381e-05,1.678742450e-04,-3.418080312e-04,2.619391052e-05,-3.156141207e-04,1.970730903e-04,4.707849071e-05,2.441515810e-04,1.493140948e-04,-1.793870173e-05,1.313753931e-04,2.431288855e-04,2.784174452e-05,2.709706301e-04,1.517893433e-04,5.929017333e-05,2.110795167e-04,1.760122957e-04,1.468845515e-05,1.907007508e-04,1.621948289e-04,-8.801770046e-06,1.533930588e-04,-1.762135770e-04,1.695490112e-05,-1.592586759e-04,1.832364938e-04,3.731753946e-05,2.205540332e-04,-4.297989393e-05,2.219302399e-05,-2.078686993e-05,1.116002727e-04,-6.651103990e-06,1.049491687e-04,2.415058466e-04,5.370468787e-05,2.952105345e-04,1.517481961e-04,8.721880890e-05,2.389670050e-04,2.998248605e-04,-1.192494124e-05,2.878999192e-04
-4.4,1.340848944e-04,-6.402344265e-05,7.006145176e-05,1.628824168e-04,1.812151290e-05,1.810039297e-04,4.414742664e-04,-2.341645350e-05,4.180578129e-04,5.487804939e-05,3.656239495e-05,9.144044434e-05,5.947573097e-05,-9.103951479e-06,5.037177950e-05,2.924121147e-04,-7.263265172e-06,2.851488495e-04,4.778790224e-04,-2.106616562e-05,4.568128568e-04,5.478514464e-04,-3.371999733e-05,5.141314491e-04,6.751617553e-04,-3.497549318e-05,6.401862621e-04,5.311493073e-04,-4.347468861e-05,4.876746187e-04,1.659007822e-04,-2.171644558e-05,1.441843366e-04,3.488351941e-04,2.777906203e-05,3.766142562e-04,7.304463568e-04,-1.618327249e-04,5.686136320e-04,3.448758416e-04,1.793799955e-05,3.628138411e-04,3.492097367e-04,-6.858559302e-06,3.423511774e-04,1.328408531e-06,-5.092757041e-05,-4.959916188e-05,2.488160575e-04,3.292741924e-05,2.817434767e-04,-1.033192128e-04,8.389092072e-06,-9.493012074e-05,1.786995731e-04,2.369480072e-06,1.810690531e-04,2.232859383e-04,-6.984053518e-06,2.163018848e-04,5.218644031e-06,2.583364672e-05,3.105229075e-05,2.016619281e-04,2.035548078e-05,2.220174089e-04,-2.915481212e-04,2.544708801e-05,-2.661010332e-04,2.403993698e-04,5.155992556e-05,2.919592954e-04,1.478775756e-04,-1.913301065e-05,1.287445650e-04,2.470892607e-04,3.034547942e-05,2.774347401e-04,1.575332951e-04,5.822571312e-05,2.157590082e-04,1.845026705e-04,1.807958568e-05,2.025822562e-04,1.777831244e-04,-7.376097186e-06,1.704070272e-04,-1.606875978e-04,1.569947748e-05,-1.449881203e-04,1.928460933e-04,4.050157983e-05,2.333476732e-04,-3.002503503e-05,2.512006778e-05,-4.904967253e-06,1.254917845e-04,-4.193257956e-06,1.212985265e-04,2.609895610e-04,6.489282633e-05,3.258823873e-04,1.606154580e-04,9.099740933e-05,2.516128674e-04,3.092871363e-04,-6.352894562e-06,3.029342418e-04
-4.3,1.349324649e-04,-5.661192064e-05,7.832054427e-05,1.528560385e-04,1.637209892e-05,1.692281375e-04,4.705407975e-04,-2.235866398e-05,4.481821335e-04,8.135403808e-05,3.847379971e-05,1.198278378e-04,6.206140134e-05,-1.131351418e-05,5.074788715e-05,3.006230412e-04,-8.685658847e-06,2.919373824e-04,4.869885262e-04,-2.478810266e-05,4.622004235e-04,5.640181791e-04,-3.827933923e-05,5.257388399e-04,6.785225150e-04,-3.755954344e-05,6.409629715e-04,5.325293146e-04,-4.550302582e-05,4.870262888e-04,1.867784854e-04,-2.568416925e-05,1.610943161e-04,3.592309244e-04,3.279445285e-05,3.920253773e-04,7.463512476e-04,-1.574149700e-04,5.889362776e-04,3.618490148e-04,1.964717392e-05,3.814961887e-04,3.588377784e-04,-3.295751541e-06,3.555420268e-04,1.572500577e-05,-5.410575268e-05,-3.838074690e-05,2.560293239e-04,3.480306888e-05,2.908323928e-04,-8.137888043e-05,3.367381245e-06,-7.801149919e-05,1.864741048e-04,4.161673312e-06,1.906357781e-04,2.272460563e-04,-9.615383447e-06,2.176306728e-04,4.479731095e-05,2.580549785e-05,7.060280881e-05,2.522250144e-04,2.519964556e-05,2.774246600e-04,-2.403967718e-04,2.460521527e-05,-2.157915565e-04,2.829648659e-04,5.625296370e-05,3.392178296e-04,1.462135332e-04,-2.021772562e-05,1.259958075e-04,2.507064490e-04,3.285719536e-05,2.835636444e-04,1.634114333e-04,5.734913022e-05,2.207605635e-04,1.932632537e-04,2.154644496e-05,2.148096987e-04,1.929668932e-04,-5.820033722e-06,1.871468595e-04,-1.441280971e-04,1.449978339e-05,-1.296283137e-04,2.026454159e-04,4.341581587e-05,2.460612318e-04,-1.576954958e-05,2.781397419e-05,1.204442460e-05,1.395568310e-04,-1.837579089e-06,1.377192519e-04,2.796584565e-04,7.561828308e-05,3.552767396e-04,1.699548108e-04,9.428288809e-05,2.642376989e-04,3.176604258e-04,-8.140298714e-07,3.168463960e-04
-4.2,1.356275279e-04,-4.865938426e-05,8.696814362e-05,1.424893061e-04,1.465498187e-05,1.571442879e-04,4.982900364e-04,-2.093116452e-05,4.773588719e-04,1.079590051e-04,4.036680190e-05,1.483258070e-04,6.439005155e-05,-1.353065138e-05,5.085940017e-05,3.080690975e-04,-1.008981659e-05,2.979792810e-04,4.941270542e-04,-2.843671652e-05,4.656903377e-04,5.783475708e-04,-4.278596507e-05,5.355616057e-04,6.792647424e-04,-4.004989020e-05,6.392148522e-04,5.320067972e-04,-4.738659439e-05,4.846202028e-04,2.066306091e-04,-2.965303786e-05,1.769775712e-04,3.689894428e-04,3.775946713e-05,4.067489099e-04,7.578332584e-04,-1.508175092e-04,6.070157492e-04,3.781917493e-04,2.157770272e-05,3.997694520e-04,3.672849915e-04,6.303169403e-07,3.679153084e-04,3.065878354e-05,-5.692967675e-05,-2.627089321e-05,2.629521252e-04,3.643063818e-05,2.993827634e-04,-5.812644506e-05,-1.776773430e-06,-5.990321849e-05,1.938545353e-04,5.934379988e-06,1.997889153e-04,2.306864760e-04,-1.216867953e-05,2.185177965e-04,8.429863287e-05,2.572929527e-05,1.100279281e-04,3.036928495e-04,3.041853526e-05,3.341113847e-04,-1.886845220e-04,2.367687907e-05,-1.650076429e-04,3.247012311e-04,6.118796249e-05,3.858891936e-04,1.443649145e-04,-2.117661381e-05,1.231883007e-04,2.540012672e-04,3.538777962e-05,2.893890468e-04,1.695177872e-04,5.666735830e-05,2.261851455e-04,2.023222865e-04,2.510118458e-05,2.274234711e-04,2.076341657e-04,-4.134061648e-06,2.035001041e-04,-1.266811749e-04,1.333873607e-05,-1.133424388e-04,2.125639254e-04,4.604476878e-05,2.586086942e-04,-3.326551003e-07,3.023628480e-05,2.990362970e-05,1.536605812e-04,4.045808622e-07,1.540651621e-04,2.973004655e-04,8.581506468e-05,3.831155302e-04,1.797035130e-04,9.702591808e-05,2.767294311e-04,3.248277472e-04,4.663529143e-06,3.294912764e-04
-4.1,1.362874405e-04,-4.014982993e-05,9.613761061e-05,1.318438773e-04,1.298484360e-05,1.448287209e-04,5.248189152e-04,-1.911141541e-05,5.057074998e-04,1.346202443e-04,4.223539512e-05,1.768556394e-04,6.645727033e-05,-1.574873143e-05,5.070853890e-05,3.147538387e-04,-1.147112504e-05,3.032827137e-04,4.992860946e-04,-3.199497655e-05,4.672911180e-04,5.907821001e-04,-4.722473676e-05,5.435573633e-04,6.773381871e-04,-4.244866039e-05,6.348895267e-04,5.295271465e-04,-4.912737608e-05,4.803997704e-04,2.252689141e-04,-3.361328224e-05,1.916556318e-04,3.781794878e-04,4.264799320e-05,4.208274810e-04,7.649196376e-04,-1.420742176e-04,6.228454201e-04,3.939338505e-04,2.374243988e-05,4.176762904e-04,3.745547790e-04,4.904800213e-06,3.794595792e-04,4.605233652e-05,-5.937556742e-05,-1.332323090e-05,2.695372170e-04,3.779420508e-05,3.073314221e-04,-3.367813838e-05,-7.010363606e-06,-4.068850199e-05,2.007510102e-04,7.670020094e-06,2.084210303e-04,2.336034980e-04,-1.462611064e-05,2.189773874e-04,1.235391004e-04,2.560707787e-05,1.491461783e-04,3.560530298e-04,3.602581616e-05,3.920788460e-04,-1.367421942e-04,2.267158898e-05,-1.140706053e-04,3.655504881e-04,6.639054214e-05,4.319410302e-04,1.423688501e-04,-2.199313548e-05,1.203757146e-04,2.569868241e-04,3.794799118e-05,2.949348153e-04,1.759369149e-04,5.618215551e-05,2.321190704e-04,2.116944665e-04,2.875651884e-05,2.404509854e-04,2.216710242e-04,-2.318560008e-06,2.193524642e-04,-1.085010706e-04,1.219867970e-05,-9.630239093e-05,2.225191383e-04,4.837596848e-05,2.708951068e-04,1.614432604e-05,3.235465680e-05,4.849898284e-05,1.676593164e-04,2.524632734e-06,1.701839491e-04,3.137009045e-04,9.542647569e-05,4.091273802e-04,1.897893917e-04,9.917950840e-05,2.889689001e-04,3.306754538e-04,1.005422362e-05,3.407296775e-04
-4,1.370287410e-04,-3.107097702e-05,1.059577640e-04,1.209827616e-04,1.137456947e-05,1.323573311e-04,5.502334047e-04,-1.688051832e-05,5.333528863e-04,1.612712648e-04,4.407382243e-05,2.053450873e-04,6.826390449e-05,-1.796055568e-05,5.030334880e-05,3.206865494e-04,-1.282451600e-05,3.078620334e-04,5.024715521e-04,-3.544647442e-05,4.670250777e-04,6.012746683e-04,-5.158124663e-05,5.496934217e-04,6.727113146e-04,-4.475750016e-05,6.279538144e-04,5.250458511e-04,-5.072766930e-05,4.743181818e-04,2.425171416e-04,-3.755471972e-05,2.049624219e-04,3.868675951e-04,4.743496308e-05,4.343025582e-04,7.676957207e-04,-1.312582313e-04,6.364374894e-04,4.091073407e-04,2.615140252e-05,4.352587432e-04,3.806609006e-04,9.506116877e-06,3.901670175e-04,6.183011564e-05,-6.142632918e-05,4.037864529e-07,2.757354336e-04,3.888177087e-05,3.146172045e-04,-8.162988651e-06,-1.229760726e-05,-2.046059591e-05,2.070750834e-04,9.350984860e-06,2.164260683e-04,2.359956117e-04,-1.697071616e-05,2.190248955e-04,1.623402140e-04,2.544064796e-05,1.877808620e-04,4.092829749e-04,4.203112169e-05,4.513140966e-04,-8.489772378e-05,2.159959315e-05,-6.329813063e-05,4.054660652e-04,7.188117501e-05,4.773472402e-04,1.402604021e-04,-2.265090243e-05,1.176094996e-04,2.596757892e-04,4.054849164e-05,3.002242809e-04,1.827437871e-04,5.589131112e-05,2.386350982e-04,2.213854897e-04,3.252514232e-05,2.539106320e-04,2.349669345e-04,-3.736986035e-07,2.345932359e-04,-8.974579832e-05,1.106289618e-05,-7.868290213e-05,2.324213666e-04,5.040038583e-05,2.828217525e-04,3.350237213e-05,3.414375010e-05,6.764612223e-05,1.814056907e-04,4.516588590e-06,1.859222793e-04,3.286515410e-04,1.044051849e-04,4.330567259e-04,2.001348615e-04,1.007006011e-04,3.008354626e-04,3.350976355e-04,1.533588039e-05,3.504335159e-04
-3.9,1.379660591e-04,-2.141476947e-05,1.165512896e-04,1.099712110e-04,9.834858805e-06,1.198060698e-04,5.746487590e-04,-1.422371983e-05,5.604250392e-04,1.878555252e-04,4.587662753e-05,2.337321528e-04,6.981942362e-05,-2.015835891e-05,4.966106471e-05,3.258857734e-04,-1.414462935e-05,3.117411440e-04,5.037086406e-04,-3.877558241e-05,4.649330582e-04,6.097921162e-04,-5.584229292e-05,5.539498233e-04,6.653757891e-04,-4.697754710e-05,6.183982420e-04,5.185321434e-04,-5.219020405e-05,4.663419394e-04,2.582152251e-04,-4.146687629e-05,2.167483488e-04,3.951228117e-04,5.209677456e-05,4.472195863e-04,7.663083449e-04,-1.184816496e-04,6.478266953e-04,4.237530872e-04,2.881274012e-05,4.525658273e-04,3.856328790e-04,1.440615225e-05,4.000390313e-04,7.792479609e-05,-6.307185558e-05,1.485294050e-05,2.815017763e-04,3.968562360e-05,3.211873999e-04,1.828226149e-05,-1.760039577e-05,6.818657197e-07,2.127450209e-04,1.096009581e-05,2.237051167e-04,2.378660517e-04,-1.918651046e-05,2.186795412e-04,2.005332055e-04,2.523157314e-05,2.257647787e-04,4.633515399e-04,4.843985708e-05,5.117913970e-04,-3.347212891e-05,2.047167527e-05,-1.300045364e-05,4.444144262e-04,7.767500246e-05,5.220894287e-04,1.380790526e-04,-2.313431204e-05,1.149447405e-04,2.620906061e-04,4.320018683e-05,3.052907929e-04,1.900061916e-04,5.578951533e-05,2.457957069e-04,2.313986644e-04,3.641935289e-05,2.678180173e-04,2.474209670e-04,1.700503052e-06,2.491214701e-04,-7.057186764e-05,9.916970598e-06,-6.065489704e-05,2.421796262e-04,5.211299120e-05,2.942926174e-04,5.157086674e-05,3.558583638e-05,8.715670312e-05,1.947554852e-04,6.377051463e-06,2.011325366e-04,3.419612285e-04,1.127130920e-04,4.546743205e-04,2.106623317e-04,1.015516774e-04,3.122140091e-04,3.380019937e-04,2.049033339e-05,3.584923271e-04
-3.8,1.392116953e-04,-1.117777827e-05,1.280339170e-04,9.887818906e-05,8.373872689e-06,1.072520617e-04,5.981902038e-04,-1.113083575e-05,5.870593680e-04,2.143302409e-04,4.763866230e-05,2.619689032e-04,7.114545133e-05,-2.233386307e-05,4.881158826e-05,3.303829223e-04,-1.542600019e-05,3.149569222e-04,5.030464472e-04,-4.196761959e-05,4.610788276e-04,6.163187212e-04,-5.999613499e-05,5.563225862e-04,6.553506562e-04,-4.910946511e-05,6.062411911e-04,5.099730571e-04,-5.351827631e-05,4.564547808e-04,2.722240113e-04,-4.533911265e-05,2.268848987e-04,4.030211374e-04,5.661177571e-05,4.596329131e-04,7.609678166e-04,-1.038940218e-04,6.570737948e-04,4.379264870e-04,3.173348807e-05,4.696599750e-04,3.895205174e-04,1.957079403e-05,4.090913114e-04,9.428324076e-05,-6.430896455e-05,2.997427621e-05,2.868018271e-04,4.020246973e-05,3.270042969e-04,4.551855277e-05,-2.287843827e-05,2.264011450e-05,2.176914143e-04,1.248117117e-05,2.301725854e-04,2.392259068e-04,-2.125868084e-05,2.179672259e-04,2.379642297e-04,2.498118821e-05,2.629454179e-04,5.182211243e-04,5.525306014e-05,5.734741844e-04,1.722461169e-05,1.929891934e-05,3.652353104e-05,4.823765198e-04,8.378179768e-05,5.661583174e-04,1.358756879e-04,-2.342940604e-05,1.124462819e-04,2.642734138e-04,4.591467721e-05,3.101880910e-04,1.977879439e-04,5.586878166e-05,2.536567256e-04,2.417417118e-04,4.045058828e-05,2.821923001e-04,2.589474375e-04,3.903869662e-06,2.628513072e-04,-5.112940857e-05,8.749781406e-06,-4.237962716e-05,2.517071114e-04,5.351326267e-05,3.052203741e-04,7.017418929e-05,3.667099263e-05,1.068451819e-04,2.075742004e-04,8.105414664e-06,2.156796150e-04,3.534660879e-04,1.203207080e-04,4.737867959e-04,2.212997484e-04,1.017020237e-04,3.230017721e-04,3.393158202e-04,2.550362279e-05,3.648194430e-04
-3.7,1.408754238e-04,-3.615053827e-07,1.405139184e-04,8.777779275e-05,6.996974964e-06,9.477476771e-05,6.209930928e-04,-7.596592796e-06,6.133965000e-04,2.406692005e-04,4.935502245e-05,2.900242230e-04,7.227817167e-05,-2.447840298e-05,4.779976870e-05,3.342247991e-04,-1.666330247e-05,3.175614966e-04,5.005603794e-04,-4.500905821e-05,4.555513212e-04,6.208585375e-04,-6.403249171e-05,5.568260458e-04,6.426850687e-04,-5.115354322e-05,5.915315255e-04,4.993768991e-04,-5.471586825e-05,4.446610309e-04,2.844296731e-04,-4.916075726e-05,2.352689159e-04,4.106479792e-04,6.096067950e-05,4.716086587e-04,7.519467104e-04,-8.767908250e-05,6.642676279e-04,4.516999978e-04,3.491990318e-05,4.866199010e-04,3.923957149e-04,2.496084841e-05,4.173565633e-04,1.108705616e-04,-6.514115207e-05,4.572940950e-05,2.916167503e-04,4.043333668e-05,3.320500870e-04,7.340908489e-05,-2.808921894e-05,4.531986596e-05,2.218618558e-04,1.389961039e-05,2.357614662e-04,2.400967809e-04,-2.317395573e-05,2.169228252e-04,2.744987365e-04,2.469054353e-05,2.991892800e-04,5.738492208e-04,6.246722512e-05,6.363164459e-04,6.689697637e-05,1.809244320e-05,8.498941957e-05,5.193482803e-04,9.020598242e-05,6.095542627e-04,1.337176815e-04,-2.352475613e-05,1.101929254e-04,2.662927671e-04,4.870460788e-05,3.149973749e-04,2.061513571e-04,5.611843323e-05,2.622697903e-04,2.524320305e-04,4.462857799e-05,2.970606085e-04,2.694796990e-04,6.235563040e-06,2.757152620e-04,-3.155879265e-05,7.553991862e-06,-2.400480079e-05,2.609248097e-04,5.460557796e-05,3.155303877e-04,8.913744551e-05,3.739684733e-05,1.265342928e-04,2.197419196e-04,9.704196526e-06,2.294461161e-04,3.630374091e-04,1.272058478e-04,4.902432570e-04,2.319848429e-04,1.011285362e-04,3.331133791e-04,3.389905966e-04,3.036565378e-05,3.693562504e-04
-3.6,1.430641101e-04,1.102742715e-05,1.540915372e-04,7.675006646e-05,5.706596905e-06,8.245666336e-05,6.432017693e-04,-3.620889788e-06,6.395808795e-04,2.668638159e-04,5.102090323e-05,3.178847191e-04,7.326869787e-05,-2.658312907e-05,4.668556880e-05,3.374742504e-04,-1.785167453e-05,3.196225758e-04,4.963514406e-04,-4.788778559e-05,4.484636550e-04,6.234358448e-04,-6.794237475e-05,5.554934701e-04,6.274588313e-04,-5.310983104e-05,5.743490002e-04,4.867752641e-04,-5.578770651e-05,4.309875576e-04,2.947470121e-04,-5.292124019e-05,2.418257719e-04,4.180976989e-04,6.512672092e-05,4.832244198e-04,7.395743877e-04,-7.004984176e-05,6.695245460e-04,4.651614579e-04,3.837731851e-05,5.035387764e-04,3.943507034e-04,3.053319329e-05,4.248838967e-04,1.276712142e-04,-6.557834334e-05,6.209287084e-05,2.959456051e-04,4.038329252e-05,3.363288977e-04,1.018222308e-04,-3.318799363e-05,6.863423717e-05,2.252237287e-04,1.520289869e-05,2.404266274e-04,2.405119678e-04,-2.492105551e-05,2.155909123e-04,3.100239237e-04,2.436031808e-05,3.343842418e-04,6.301885720e-04,7.007400929e-05,7.002625813e-04,1.152659795e-04,1.686310943e-05,1.321290889e-04,5.553395520e-04,9.694666069e-05,6.522862127e-04,1.316903375e-04,-2.341215740e-05,1.082781801e-04,2.682453410e-04,5.158376285e-05,3.198291038e-04,2.151578950e-04,5.652497978e-05,2.716828748e-04,2.634990123e-04,4.896001396e-05,3.124590262e-04,2.789713503e-04,8.693481218e-06,2.876648315e-04,-1.198941011e-05,6.326050773e-06,-5.663359340e-06,2.697626088e-04,5.539939195e-05,3.251620007e-04,1.082902622e-04,3.776798301e-05,1.460582452e-04,2.311555058e-04,1.117926174e-05,2.423347676e-04,3.705859226e-04,1.333518223e-04,5.039377450e-04,2.426669853e-04,9.981612357e-05,3.424831089e-04,3.370040197e-04,3.506947498e-05,3.720734947e-04
-3.5,1.458808816e-04,2.297718582e-05,1.688580674e-04,6.588090365e-05,4.502206926e-06,7.038311058e-05,6.649667878e-04,7.910143910e-07,6.657578022e-04,2.929221052e-04,5.263139326e-05,3.455534985e-04,7.418110178e-05,-2.863927430e-05,4.554182748e-05,3.402087352e-04,-1.898709882e-05,3.212216363e-04,4.905422681e-04,-5.059339200e-05,4.399488761e-04,6.240934815e-04,-7.171785607e-05,5.523756255e-04,6.097806651e-04,-5.497825742e-05,5.548024077e-04,4.722231212e-04,-5.673920439e-05,4.154839168e-04,3.031211281e-04,-5.661020100e-05,2.465109271e-04,4.254702580e-04,6.909545329e-05,4.945657113e-04,7.242277717e-04,-5.124329041e-05,6.729844813e-04,4.784086140e-04,4.210958527e-05,5.205181993e-04,3.954929892e-04,3.624196126e-05,4.317349505e-04,1.446866287e-04,-6.563664666e-05,7.904998207e-05,2.998044839e-04,4.006101865e-05,3.398655025e-04,1.306322712e-04,-3.812799158e-05,9.250427966e-05,2.277646569e-04,1.638094587e-05,2.441456028e-04,2.405155640e-04,-2.649105204e-05,2.140245120e-04,3.444487885e-04,2.399074603e-05,3.684395346e-04,6.871856510e-04,7.805981332e-05,7.652454643e-04,1.620697053e-04,1.562121833e-05,1.776909236e-04,5.903713034e-04,1.039976508e-04,6.943689542e-04,1.298941761e-04,-2.308712429e-05,1.068070518e-04,2.702522661e-04,5.456682164e-05,3.248190878e-04,2.248665660e-04,5.707213499e-05,2.819387010e-04,2.749826857e-04,5.344688489e-05,3.284295706e-04,2.873949599e-04,1.127365051e-05,2.986686104e-04,7.459441674e-06,5.065762220e-06,1.252520389e-05,2.781582487e-04,5.590900486e-05,3.340672535e-04,1.274682786e-04,3.779514305e-05,1.652634216e-04,2.417280706e-04,1.253967333e-05,2.542677439e-04,3.760619989e-04,1.387454900e-04,5.148074889e-04,2.533061299e-04,9.775785811e-05,3.510639880e-04,3.333590498e-04,3.961045271e-05,3.729695025e-04
