Time,S1D1HbO,S1D1HbR,S1D1HbT,S2D2HbO,S2D2HbR,S2D2HbT,S3D3HbO,S3D3HbR,S3D3HbT,S4D4HbO,S4D4HbR,S4D4HbT,S5D5HbO,S5D5HbR,S5D5HbT,S6D6HbO,S6D6HbR,S6D6HbT,S7D7HbO,S7D7HbR,S7D7HbT,S8D8HbO,S8D8HbR,S8D8HbT,S9D9HbO,S9D9HbR,S9D9HbT,S10D10HbO,S10D10HbR,S10D10HbT,S11D11HbO,S11D11HbR,S11D11HbT,S12D12HbO,S12D12HbR,S12D12HbT,S13D13HbO,S13D13HbR,S13D13HbT,S14D14HbO,S14D14HbR,S14D14HbT,S15D15HbO,S15D15HbR,S15D15HbT,S16D16HbO,S16D16HbR,S16D16HbT,S17D17HbO,S17D17HbR,S17D17HbT,S18D18HbO,S18D18HbR,S18D18HbT,S19D19HbO,S19D19HbR,S19D19HbT,S20D20HbO,S20D20HbR,S20D20HbT,S21D21HbO,S21D21HbR,S21D21HbT,S22D22HbO,S22D22HbR,S22D22HbT,S23D23HbO,S23D23HbR,S23D23HbT,S24D24HbO,S24D24HbR,S24D24HbT,S25D25HbO,S25D25HbR,S25D25HbT,S26D26HbO,S26D26HbR,S26D26HbT,S27D27HbO,S27D27HbR,S27D27HbT,S28D28HbO,S28D28HbR,S28D28HbT,S29D29HbO,S29D29HbR,S29D29HbT,S30D30HbO,S30D30HbR,S30D30HbT,S31D31HbO,S31D31HbR,S31D31HbT,S32D32HbO,S32D32HbR,S32D32HbT,S33D33HbO,S33D33HbR,S33D33HbT,S34D34HbO,S34D34HbR,S34D34HbT,S35D35HbO,S35D35HbR,S35D35HbT,S36D36HbO,S36D36HbR,S36D36HbT,
-10,-1.515846371e-03,-5.397717154e-04,-2.055618086e-03,-1.729882720e-03,-2.265241245e-04,-1.956406845e-03,-1.389519025e-04,-1.432692797e-04,-2.822211822e-04,-1.538814444e-03,8.888612289e-05,-1.449928321e-03,-7.716666568e-04,3.952427297e-06,-7.677142295e-04,-1.718030509e-03,-3.729415136e-05,-1.755324660e-03,-1.014621304e-03,1.337765635e-05,-1.001243648e-03,-1.058839371e-03,-1.585730925e-04,-1.217412463e-03,-7.204962706e-04,-5.286190788e-05,-7.733581785e-04,-5.706009705e-04,-1.809993455e-05,-5.887009051e-04,-2.080398610e-03,-5.228372033e-05,-2.132682330e-03,7.879050411e-04,9.569146014e-06,7.974741871e-04,8.933674930e-04,2.952667221e-04,1.188634215e-03,4.820730542e-04,9.669780357e-05,5.787708578e-04,6.835618099e-04,5.572453724e-05,7.392863471e-04,4.318058781e-04,5.689835245e-05,4.887042306e-04,1.464533599e-05,7.716647393e-05,9.181180992e-05,1.015208227e-04,3.969619429e-05,1.412170170e-04,9.459094020e-05,7.147685364e-06,1.017386256e-04,-4.787595972e-04,2.667554109e-06,-4.760920431e-04,-2.261170643e-03,5.413019072e-05,-2.207040452e-03,-1.516918061e-03,-1.390197845e-05,-1.530820039e-03,-1.222899666e-03,-1.122677043e-04,-1.335167370e-03,-5.347121467e-04,6.736498052e-05,-4.673471662e-04,2.609835353e-04,-6.961874260e-05,1.913647927e-04,6.227944767e-04,4.321552687e-05,6.660100036e-04,4.753301673e-04,-3.078960595e-04,1.674341077e-04,2.145558027e-04,1.510148325e-04,3.655706352e-04,6.424396077e-04,5.036211978e-05,6.928017275e-04,-1.623138516e-05,5.054111374e-05,3.430972858e-05,7.909216284e-04,3.914810593e-05,8.300697343e-04,6.796071699e-04,3.944089292e-05,7.190480628e-04,4.813972140e-04,-1.069494545e-05,4.707022685e-04,4.755158175e-04,1.081815330e-04,5.836973505e-04,8.059944110e-04,1.284140185e-04,9.344084296e-04,4.491809392e-04,1.384073428e-04,5.875882821e-04
-9.9,-1.458750734e-03,-5.252760246e-04,-1.984026758e-03,-1.810389641e-03,-2.335303287e-04,-2.043919970e-03,-1.251252021e-04,-1.394376263e-04,-2.645628283e-04,-1.617956453e-03,8.436372132e-05,-1.533592731e-03,-8.512365260e-04,1.161280483e-06,-8.500752455e-04,-1.813161168e-03,-3.976630478e-05,-1.852927473e-03,-1.125192285e-03,9.417601868e-06,-1.115774683e-03,-1.223190387e-03,-1.592678540e-04,-1.382458241e-03,-8.713298053e-04,-5.560114251e-05,-9.269309478e-04,-7.278192102e-04,-1.459950611e-05,-7.424187163e-04,-2.196844780e-03,-4.600016022e-05,-2.242844940e-03,7.189043292e-04,1.031484701e-05,7.292191762e-04,7.789471096e-04,2.770473816e-04,1.055994491e-03,3.991496933e-04,8.801578125e-05,4.871654746e-04,6.095169060e-04,4.451160754e-05,6.540285135e-04,3.744859728e-04,5.123698673e-05,4.257229596e-04,-3.691989190e-05,7.359103970e-05,3.667114780e-05,6.283899059e-05,2.705633800e-05,8.989532859e-05,5.191553185e-05,1.529108134e-06,5.344463998e-05,-6.108269171e-04,-6.745217679e-07,-6.115014389e-04,-2.366180880e-03,5.066890496e-05,-2.315511975e-03,-1.674883879e-03,-3.125686099e-05,-1.706140740e-03,-1.302216576e-03,-1.117977809e-04,-1.414014357e-03,-6.154507694e-04,6.101241830e-05,-5.544383511e-04,1.511386161e-04,-6.038466782e-05,9.075394831e-05,5.317017649e-04,3.573642438e-05,5.674381893e-04,3.480728037e-04,-3.108112884e-04,3.726151527e-05,1.172667844e-04,1.462532216e-04,2.635200060e-04,5.691197167e-04,4.055875055e-05,6.096784673e-04,-1.096182005e-04,4.613217528e-05,-6.348602526e-05,7.004494144e-04,3.383268887e-05,7.342821033e-04,5.832187133e-04,2.766792313e-05,6.108866364e-04,4.067768058e-04,-1.725474863e-05,3.895220572e-04,4.060462973e-04,9.247066859e-05,4.985169658e-04,7.118136878e-04,1.190199350e-04,8.308336228e-04,3.788049577e-04,1.196210215e-04,4.984259792e-04
-9.8,-1.401072193e-03,-5.101841984e-04,-1.911256391e-03,-1.887767174e-03,-2.399836520e-04,-2.127750826e-03,-1.151703377e-04,-1.360135163e-04,-2.511838540e-04,-1.695967862e-03,7.973111797e-05,-1.616236744e-03,-9.299409503e-04,-1.473192082e-06,-9.314141424e-04,-1.905770844e-03,-4.169665039e-05,-1.947467494e-03,-1.233698063e-03,5.758247525e-06,-1.227939815e-03,-1.384088184e-03,-1.593857978e-04,-1.543473982e-03,-1.019959182e-03,-5.800273592e-05,-1.077961918e-03,-8.811972924e-04,-1.086913517e-05,-8.920664275e-04,-2.303925198e-03,-3.945424638e-05,-2.343379444e-03,6.474940626e-04,1.058306326e-05,6.580771259e-04,6.639107993e-04,2.578224743e-04,9.217332736e-04,3.147087476e-04,7.914570455e-05,3.938544522e-04,5.338118746e-04,3.346990455e-05,5.672817792e-04,3.144741772e-04,4.594403300e-05,3.604182102e-04,-8.981938243e-05,7.027629200e-05,-1.954309043e-05,2.226593259e-05,1.510054113e-05,3.736647373e-05,8.579822949e-06,-3.585748862e-06,4.994074087e-06,-7.416729338e-04,-3.816556330e-06,-7.454894901e-04,-2.463413161e-03,4.729257532e-05,-2.416120586e-03,-1.830561699e-03,-4.869301507e-05,-1.879254714e-03,-1.376587179e-03,-1.110879957e-04,-1.487675175e-03,-6.960204222e-04,5.428434463e-05,-6.417360775e-04,3.989634186e-05,-5.078707404e-05,-1.089073218e-05,4.376195288e-04,2.768732323e-05,4.653068521e-04,2.185628970e-04,-3.134353693e-04,-9.487247233e-05,1.795097954e-05,1.411407069e-04,1.590916865e-04,4.932996237e-04,3.095004231e-05,5.242496660e-04,-2.036717627e-04,4.232599582e-05,-1.613457669e-04,6.075730142e-04,2.871390812e-05,6.362869223e-04,4.855617749e-04,1.622863257e-05,5.017904075e-04,3.299301034e-04,-2.347053249e-05,3.064595709e-04,3.339933824e-04,7.789019693e-05,4.118835794e-04,6.152192411e-04,1.094995033e-04,7.247187444e-04,3.078123089e-04,1.011447529e-04,4.089570618e-04
-9.7,-1.342949884e-03,-4.945496657e-04,-1.837499550e-03,-1.961528711e-03,-2.458377181e-04,-2.207366429e-03,-1.088147926e-04,-1.330102980e-04,-2.418250906e-04,-1.772259385e-03,7.501081472e-05,-1.697248570e-03,-1.007281765e-03,-3.940307378e-06,-1.011222072e-03,-1.995199941e-03,-4.306451317e-05,-2.038264454e-03,-1.339502953e-03,2.427012767e-06,-1.337075940e-03,-1.540602129e-03,-1.589036290e-04,-1.699505758e-03,-1.165586468e-03,-6.003825391e-05,-1.225624722e-03,-1.029884683e-03,-6.911801976e-06,-1.036796485e-03,-2.400895109e-03,-3.267003268e-05,-2.433565142e-03,5.741333592e-04,1.039969182e-05,5.845330511e-04,5.488241756e-04,2.377679207e-04,7.865920962e-04,2.292318510e-04,7.010799430e-05,2.993398453e-04,4.567427682e-04,2.265160858e-05,4.793943768e-04,2.520468685e-04,4.102527901e-05,2.930721475e-04,-1.438471745e-04,6.721049455e-05,-7.663667994e-05,-1.993327480e-05,3.871128816e-06,-1.606214598e-05,-3.524920274e-05,-8.185996913e-06,-4.343519966e-05,-8.705344678e-04,-6.742135220e-06,-8.772766030e-04,-2.552106561e-03,4.400458035e-05,-2.508101981e-03,-1.982908445e-03,-6.613688625e-05,-2.049045331e-03,-1.445444476e-03,-1.101367674e-04,-1.555581243e-03,-7.758038303e-04,4.720360433e-05,-7.286002260e-04,-7.207872117e-05,-4.091587663e-05,-1.129945978e-04,3.410195350e-04,1.912110373e-05,3.601406387e-04,8.742103834e-05,-3.156585700e-04,-2.282375317e-04,-8.288535586e-05,1.356975526e-04,5.281219674e-05,4.153373087e-04,2.158043528e-05,4.369177440e-04,-2.978540014e-04,3.912172935e-05,-2.587322721e-04,5.127310027e-04,2.381241194e-05,5.365434147e-04,3.870895626e-04,5.201560292e-06,3.922911229e-04,2.512382898e-04,-2.932694412e-05,2.219113457e-04,2.596124311e-04,6.459551908e-05,3.242079502e-04,5.165509295e-04,9.993766053e-05,6.164885900e-04,2.365560904e-04,8.304982583e-05,3.196059162e-04
-9.6,-1.284507156e-03,-4.784283940e-04,-1.762935550e-03,-2.031180577e-03,-2.510447700e-04,-2.282225347e-03,-1.057343402e-04,-1.304340048e-04,-2.361683450e-04,-1.846229600e-03,7.022803162e-05,-1.776001568e-03,-1.082756067e-03,-6.229599384e-06,-1.088985666e-03,-2.080790789e-03,-4.385573603e-05,-2.124646525e-03,-1.441978274e-03,-5.511140611e-07,-1.442529388e-03,-1.691828242e-03,-1.578023705e-04,-1.849630613e-03,-1.307425655e-03,-6.168166982e-05,-1.369107324e-03,-1.173058610e-03,-2.733296457e-06,-1.175791906e-03,-2.487084743e-03,-2.567429919e-05,-2.512759042e-03,4.992975309e-04,9.803020906e-06,5.091005519e-04,4.343020093e-04,2.170414034e-04,6.513434128e-04,1.432094603e-04,6.092795801e-05,2.041374183e-04,3.786182037e-04,1.210804872e-05,3.907262524e-04,1.875107568e-04,3.648189882e-05,2.239926556e-04,-1.987852228e-04,6.438179614e-05,-1.344034266e-04,-6.346918187e-05,-6.596562692e-06,-7.006574456e-05,-7.940108542e-05,-1.226269505e-05,-9.166378048e-05,-9.966528757e-04,-9.436947879e-06,-1.006089824e-03,-2.631566556e-03,4.080877821e-05,-2.590757778e-03,-2.130892161e-03,-8.351387675e-05,-2.214406038e-03,-1.508254012e-03,-1.089434705e-04,-1.617197483e-03,-8.541765283e-04,3.979637741e-05,-8.143801509e-04,-1.840987358e-04,-3.086500586e-05,-2.149637417e-04,2.424135284e-04,1.009747312e-05,2.525110015e-04,-4.471376836e-05,-3.173622760e-04,-3.620760443e-04,-1.847276964e-04,1.299460045e-04,-5.478169189e-05,3.356069495e-04,1.249534202e-05,3.481022915e-04,-3.916196719e-04,3.651900075e-05,-3.551006711e-04,4.163731810e-04,1.915255542e-05,4.355257364e-04,2.882486227e-04,-5.329216543e-06,2.829194062e-04,1.711020635e-04,-3.481277506e-05,1.362892884e-04,1.831793713e-04,5.273693573e-05,2.359163070e-04,4.161654530e-04,9.042290318e-05,5.065883562e-04,1.653966362e-04,6.540291213e-05,2.307995483e-04
-9.5,-1.225853326e-03,-4.618784479e-04,-1.687731774e-03,-2.096229355e-03,-2.555560918e-04,-2.351785447e-03,-1.055624635e-04,-1.282832932e-04,-2.338457567e-04,-1.917275252e-03,6.541025380e-05,-1.851864998e-03,-1.155866554e-03,-8.331142652e-06,-1.164197697e-03,-2.161898923e-03,-4.406318013e-05,-2.205962103e-03,-1.540515925e-03,-3.154246741e-06,-1.543670171e-03,-1.836902195e-03,-1.560675670e-04,-1.992969762e-03,-1.444715820e-03,-6.290967692e-05,-1.507625497e-03,-1.309936586e-03,1.657989301e-06,-1.308278597e-03,-2.561911017e-03,-1.849647995e-05,-2.580407497e-03,4.234676036e-04,8.841313034e-06,4.323089167e-04,3.209932717e-04,1.957772942e-04,5.167705659e-04,5.712660893e-05,5.163470918e-05,1.087613181e-04,2.997513338e-04,1.887400835e-06,3.016387346e-04,1.211936109e-04,3.230996545e-05,1.535035764e-04,-2.544099150e-04,6.177828476e-05,-1.926316302e-04,-1.080349296e-04,-1.627576533e-05,-1.243106949e-04,-1.237065400e-04,-1.580870007e-05,-1.395152401e-04,-1.119285664e-03,-1.188888690e-05,-1.131174550e-03,-2.701177763e-03,3.770931257e-05,-2.663468450e-03,-2.273507223e-03,-1.007489681e-04,-2.374256191e-03,-1.564524262e-03,-1.075086705e-04,-1.672032932e-03,-9.305173094e-04,3.209210434e-05,-8.984252051e-04,-2.954665371e-04,-2.073200601e-05,-3.161985431e-04,1.423373805e-04,6.817580259e-07,1.430191386e-04,-1.771919523e-04,-3.184246953e-04,-4.956166476e-04,-2.870676540e-04,1.239102041e-04,-1.631574499e-04,2.544908170e-04,3.740293053e-06,2.582311101e-04,-4.844263547e-04,3.451650105e-05,-4.499098537e-04,3.189527450e-04,1.476159876e-05,3.337143438e-04,1.894732727e-04,-1.527686571e-05,1.741964070e-04,8.993207213e-05,-3.992052459e-05,5.001154755e-05,1.049849834e-04,4.245356351e-05,1.474385469e-04,3.144283972e-04,8.104718380e-05,3.954755810e-04,9.469507468e-05,4.826512434e-05,1.429601990e-04
-9.4,-1.167086114e-03,-4.449595055e-04,-1.612045619e-03,-2.156190028e-03,-2.593226468e-04,-2.415512675e-03,-1.079015388e-04,-1.265495644e-04,-2.344511032e-04,-1.984802229e-03,6.058672295e-05,-1.924215507e-03,-1.226132565e-03,-1.023583544e-05,-1.236368401e-03,-2.237904866e-03,-4.368691887e-05,-2.281591785e-03,-1.634542333e-03,-5.364203756e-06,-1.639906537e-03,-1.975012336e-03,-1.536893086e-04,-2.128701645e-03,-1.576734381e-03,-6.370194317e-05,-1.640436324e-03,-1.439789188e-03,6.251326885e-06,-1.433537861e-03,-2.624888981e-03,-1.116851703e-05,-2.636057498e-03,3.471195180e-04,7.569840712e-06,3.546893588e-04,2.095627901e-04,1.740850306e-04,3.836478207e-04,-2.855059347e-05,4.226010216e-05,1.370950869e-05,2.204508661e-04,-7.967114783e-06,2.124837513e-04,5.343395074e-05,2.850017672e-05,8.193412747e-05,-3.104992587e-04,5.938782316e-05,-2.511114355e-04,-1.533152511e-04,-2.514899948e-05,-1.784642506e-04,-1.680028168e-04,-1.881877788e-05,-1.868215947e-04,-1.237718554e-03,-1.408807250e-05,-1.251806627e-03,-2.760416056e-03,3.471027534e-05,-2.725705780e-03,-2.409789741e-03,-1.177673304e-04,-2.527557071e-03,-1.613816587e-03,-1.058343563e-04,-1.719650943e-03,-1.004218773e-03,2.412337145e-05,-9.800954012e-04,-4.054905907e-04,-1.061772503e-05,-4.161083157e-04,4.133381298e-05,-9.056340643e-06,3.227747234e-05,-3.093621439e-04,-3.187275905e-04,-6.280897344e-04,-3.894173166e-04,1.176156482e-04,-2.718016684e-04,1.723714937e-04,-4.640093303e-06,1.677314004e-04,-5.757439751e-04,3.311009201e-05,-5.426338831e-04,2.209183204e-04,1.066883035e-05,2.315871507e-04,9.118051562e-05,-2.455487215e-05,6.662564347e-05,8.138211594e-06,-4.464559573e-05,-3.650738414e-05,2.532927032e-05,3.386778839e-05,5.919705872e-05,2.117048746e-04,7.190555582e-05,2.836104304e-04,2.480506714e-05,3.169153463e-05,5.649660177e-05
-9.3,-1.108294232e-03,-4.277321943e-04,-1.536026426e-03,-2.210594242e-03,-2.622958471e-04,-2.472890090e-03,-1.123343237e-04,-1.252172404e-04,-2.375515641e-04,-2.048235891e-03,5.578793768e-05,-1.992447954e-03,-1.293100086e-03,-1.193559168e-05,-1.305035677e-03,-2.308225027e-03,-4.273408017e-05,-2.350959107e-03,-1.723530331e-03,-7.166976632e-06,-1.730697308e-03,-2.105411140e-03,-1.506620993e-04,-2.256073240e-03,-1.702808497e-03,-6.404134289e-05,-1.766849840e-03,-1.561951370e-03,1.103386062e-05,-1.550917509e-03,-2.675641631e-03,-3.724675900e-06,-2.679366307e-03,2.707151390e-04,6.047820929e-06,2.767629600e-04,1.006698970e-04,1.520531529e-04,2.527230498e-04,-1.133846385e-04,3.283794131e-05,-8.054669723e-05,1.410135227e-04,-1.741822810e-05,1.235952946e-04,-1.542776678e-05,2.503791002e-05,9.610143242e-06,-3.668388903e-04,5.719784979e-05,-3.096410405e-04,-1.989956622e-04,-3.320797530e-05,-2.322036375e-04,-2.121384241e-04,-2.128975046e-05,-2.334281746e-04,-1.351276271e-03,-1.602680809e-05,-1.367303079e-03,-2.808858417e-03,3.181530866e-05,-2.777043109e-03,-2.538831548e-03,-1.344947771e-04,-2.673326326e-03,-1.655753395e-03,-1.039241177e-04,-1.759677513e-03,-1.074696674e-03,1.592579972e-05,-1.058770875e-03,-5.134985296e-04,-6.257340892e-07,-5.141242637e-04,-6.006182457e-05,-1.904403863e-05,-7.910586321e-05,-4.405794348e-04,-3.181630048e-04,-7.587424396e-04,-4.913202675e-04,1.110880973e-04,-3.802321702e-04,8.962641025e-05,-1.260317309e-05,7.702323716e-05,-6.650619569e-04,3.229092050e-05,-6.327710364e-04,1.227077363e-04,6.904496782e-06,1.296122331e-04,-6.232875568e-06,-3.308025934e-05,-3.931313491e-05,-7.387986772e-05,-4.898547925e-05,-1.228653470e-04,-5.548156259e-05,2.707995430e-05,-2.840160829e-05,1.083515528e-04,6.309512675e-05,1.714466795e-04,-4.393582402e-05,1.573148778e-05,-2.820433624e-05
-9.2,-1.049559508e-03,-4.102571920e-04,-1.459816700e-03,-2.258997749e-03,-2.644284504e-04,-2.523426199e-03,-1.184342421e-04,-1.242641584e-04,-2.426984005e-04,-2.107029393e-03,5.104520030e-05,-2.055984193e-03,-1.356348979e-03,-1.342342777e-05,-1.369772407e-03,-2.372320275e-03,-4.121839282e-05,-2.413538668e-03,-1.807006484e-03,-8.553023086e-06,-1.815559507e-03,-2.227423340e-03,-1.469847245e-04,-2.374408064e-03,-1.822322734e-03,-6.391416750e-05,-1.886236901e-03,-1.675830630e-03,1.599071656e-05,-1.659839913e-03,-2.713906619e-03,3.798669806e-06,-2.710107949e-03,1.946969779e-04,4.335783609e-06,1.990327615e-04,-5.053171893e-06,1.297582335e-04,1.247050616e-04,-1.969698188e-04,2.340362392e-05,-1.735661949e-04,6.172075198e-05,-2.643481373e-05,3.528593824e-05,-8.505430633e-05,2.190388947e-05,-6.315041686e-05,-4.232248619e-04,5.519529507e-05,-3.680295669e-04,-2.447699472e-04,-4.045279326e-05,-2.852227404e-04,-2.559758685e-04,-2.322051288e-05,-2.791963814e-04,-1.459330368e-03,-1.769949582e-05,-1.477029864e-03,-2.846189011e-03,2.902733217e-05,-2.817161679e-03,-2.659791226e-03,-1.508579090e-04,-2.810649135e-03,-1.690023323e-03,-1.017832218e-04,-1.791806545e-03,-1.141397016e-03,7.537947204e-06,-1.133859069e-03,-6.188468474e-04,9.138999319e-06,-6.097078481e-04,-1.613285977e-04,-2.920677102e-05,-1.905353687e-04,-5.702110625e-04,-3.166389204e-04,-8.868499829e-04,-5.923564072e-04,1.043520640e-04,-4.880043432e-04,6.626372566e-06,-2.010924690e-05,-1.348287433e-05,-7.518925674e-04,3.204403873e-05,-7.198485287e-04,2.474520687e-05,3.498567345e-06,2.824377422e-05,-1.023899895e-04,-4.077639802e-05,-1.431663876e-04,-1.557388305e-04,-5.293909287e-05,-2.086779234e-04,-1.371338855e-04,2.216324457e-05,-1.149706409e-04,4.712395611e-06,5.471346931e-05,5.942586492e-05,-1.112128534e-04,4.299113542e-07,-1.107829421e-04
-9.1,-9.909579225e-04,-3.925941497e-04,-1.383552072e-03,-2.300986115e-03,-2.656756661e-04,-2.566661781e-03,-1.257731521e-04,-1.236620322e-04,-2.494351843e-04,-2.160668984e-03,4.639023318e-05,-2.114278751e-03,-1.415496164e-03,-1.469346089e-05,-1.430189625e-03,-2.429701076e-03,-3.915948186e-05,-2.468860558e-03,-1.884552314e-03,-9.517360107e-06,-1.894069674e-03,-2.340449539e-03,-1.426602908e-04,-2.483109830e-03,-1.934722030e-03,-6.331028359e-05,-1.998032313e-03,-1.780911038e-03,2.110503867e-05,-1.759806000e-03,-2.739538800e-03,1.136330055e-05,-2.728175500e-03,1.194876989e-04,2.493891250e-06,1.219815901e-04,-1.070180875e-04,1.072750100e-04,2.569224995e-07,-2.789281301e-04,1.399425439e-05,-2.649338757e-04,-1.715864974e-05,-3.499141173e-05,-5.215006147e-05,-1.551117525e-04,1.907560417e-05,-1.360361483e-04,-4.794615549e-04,5.336663544e-05,-4.260949195e-04,-2.903444337e-04,-4.689044510e-05,-3.372348788e-04,-2.993912722e-04,-2.461196788e-05,-3.240032401e-04,-1.561303316e-03,-1.910253074e-05,-1.580405847e-03,-2.872200721e-03,2.634848361e-05,-2.845852238e-03,-2.771901267e-03,-1.667840075e-04,-2.938685275e-03,-1.716383036e-03,-9.941859644e-05,-1.815801633e-03,-1.203800482e-03,-9.988109007e-07,-1.204799293e-03,-7.209249816e-04,1.857244351e-05,-7.023525381e-04,-2.619577993e-04,-3.946926120e-05,-3.014270605e-04,-6.976382157e-04,-3.140829317e-04,-1.011721147e-03,-6.921392130e-04,9.742940020e-05,-5.947098128e-04,-7.626187033e-05,-2.712233188e-05,-1.033842022e-04,-8.357702129e-04,3.234751337e-05,-8.034226995e-04,-7.255739251e-05,4.794485406e-07,-7.207794397e-05,-1.969302603e-04,-4.757502024e-05,-2.445052805e-04,-2.370729676e-04,-5.650618768e-05,-2.935791553e-04,-2.193009923e-04,1.915939977e-05,-2.001415925e-04,-9.888052895e-05,4.685679972e-05,-5.202372922e-05,-1.767371007e-04,-1.417030886e-05,-1.909074095e-04
-9,-9.325594094e-04,-3.748005625e-04,-1.307359972e-03,-2.336178508e-03,-2.659964740e-04,-2.602174982e-03,-1.339262197e-04,-1.233769331e-04,-2.573031528e-04,-2.208676298e-03,4.185487637e-05,-2.166821421e-03,-1.470194919e-03,-1.574086343e-05,-1.485935782e-03,-2.479929332e-03,-3.658195946e-05,-2.516511292e-03,-1.955800277e-03,-1.005946754e-05,-1.965859745e-03,-2.443965723e-03,-1.376964729e-04,-2.581662195e-03,-2.039510878e-03,-6.222322818e-05,-2.101734106e-03,-1.876753602e-03,2.635798917e-05,-1.850395613e-03,-2.752508739e-03,1.892945925e-05,-2.733579280e-03,4.549362462e-05,5.812315985e-07,4.607485622e-05,-2.046904984e-04,8.468468645e-05,-1.200058120e-04,-3.589004439e-04,4.649018421e-06,-3.542514255e-04,-9.536131623e-05,-4.306735438e-05,-1.384286706e-04,-2.252652487e-04,1.652927777e-05,-2.087359710e-04,-5.353551010e-04,5.169804817e-05,-4.836570528e-04,-3.354385711e-04,-5.253279065e-05,-3.879713618e-04,-3.422707530e-04,-2.546696422e-05,-3.677377172e-04,-1.656669695e-03,-2.023415936e-05,-1.676903855e-03,-2.886792750e-03,2.378015406e-05,-2.863012596e-03,-2.874471748e-03,-1.822010242e-04,-3.056672772e-03,-1.734656401e-03,-9.683877211e-05,-1.831495173e-03,-1.261424924e-03,-9.640481233e-06,-1.271065406e-03,-8.191542854e-04,2.757466080e-05,-7.915796246e-04,-3.614436614e-04,-4.975609017e-05,-4.111997516e-04,-8.222549147e-04,-3.104437704e-04,-1.132698685e-03,-7.903065615e-04,9.033821322e-05,-6.999683483e-04,-1.586711323e-04,-3.361070828e-05,-1.922818406e-04,-9.162484801e-04,3.317170729e-05,-8.830767728e-04,-1.687962727e-04,-2.127321840e-06,-1.709235945e-04,-2.895044907e-04,-5.341755110e-05,-3.429220418e-04,-3.175311911e-04,-5.968680326e-05,-3.772179944e-04,-3.016356173e-04,1.807659069e-05,-2.835590266e-04,-2.021014638e-04,3.961769537e-05,-1.624837684e-04,-2.402449801e-04,-2.802520871e-05,-2.682701888e-04
-8.9,-8.744270568e-04,-3.569307234e-04,-1.231357780e-03,-2.364230310e-03,-2.653549900e-04,-2.629585300e-03,-1.424750242e-04,-1.233697840e-04,-2.658448082e-04,-2.250609080e-03,3.747084166e-05,-2.213138238e-03,-1.520132338e-03,-1.656184235e-05,-1.536694180e-03,-2.522618631e-03,-3.351443613e-05,-2.556133067e-03,-2.020427993e-03,-1.018307645e-05,-2.030611069e-03,-2.537520930e-03,-1.321058913e-04,-2.669626822e-03,-2.136251298e-03,-6.065027668e-05,-2.196901575e-03,-1.962994801e-03,3.172872534e-05,-1.931266076e-03,-2.752898528e-03,2.645617779e-05,-2.726442350e-03,-2.689075419e-05,-1.344561557e-06,-2.823531575e-05,-2.975965109e-04,6.208060259e-05,-2.355159083e-04,-4.365380746e-04,-4.590646863e-06,-4.411287214e-04,-1.726215028e-04,-5.064594739e-05,-2.232674502e-04,-2.951737289e-04,1.424199840e-05,-2.809317305e-04,-5.907053205e-04,5.017566842e-05,-5.405296520e-04,-3.797829296e-04,-5.739446788e-05,-4.371773975e-04,-3.845050193e-04,-2.579022172e-05,-4.102952410e-04,-1.744956459e-03,-2.109427700e-05,-1.766050736e-03,-2.889966070e-03,2.132294078e-05,-2.868643129e-03,-2.966892068e-03,-1.970379739e-04,-3.163930042e-03,-1.744732603e-03,-9.405383040e-05,-1.838786433e-03,-1.313827390e-03,-1.834077972e-05,-1.332168169e-03,-9.129850853e-04,3.605316933e-05,-8.769319160e-04,-4.592730972e-04,-5.999182164e-05,-5.192649188e-04,-9.434664215e-04,-3.056916458e-04,-1.249158067e-03,-8.865084539e-04,8.309150875e-05,-8.034169452e-04,-2.402303696e-04,-3.954732249e-05,-2.797776921e-04,-9.928982206e-04,3.447881264e-05,-9.584194079e-04,-2.635710525e-04,-4.300482278e-06,-2.678715348e-04,-3.797709594e-04,-5.825599095e-05,-4.380269504e-04,-3.967721815e-04,-6.248096212e-05,-4.592531436e-04,-3.837648841e-04,1.889014811e-05,-3.648747360e-04,-3.046228351e-04,3.308179738e-05,-2.715410377e-04,-3.014962937e-04,-4.108662805e-05,-3.425829218e-04
-8.8,-8.166167147e-04,-3.390348855e-04,-1.155651600e-03,-2.384835777e-03,-2.637216232e-04,-2.648557401e-03,-1.510108528e-04,-1.235968994e-04,-2.746077521e-04,-2.286062366e-03,3.326946249e-05,-2.252792904e-03,-1.565027573e-03,-1.715370571e-05,-1.582181279e-03,-2.557435031e-03,-2.998860054e-05,-2.587423632e-03,-2.078154586e-03,-9.895949607e-06,-2.088050536e-03,-2.620735697e-03,-1.259065798e-04,-2.746642277e-03,-2.224562172e-03,-5.859251457e-05,-2.283154686e-03,-2.039345412e-03,3.719438643e-05,-2.002151026e-03,-2.740896705e-03,3.390161613e-05,-2.706995089e-03,-9.728080837e-05,-3.228127128e-06,-1.005089355e-04,-3.853293119e-04,3.957082242e-05,-3.457584895e-04,-5.114992299e-04,-1.368145645e-05,-5.251806863e-04,-2.486667475e-04,-5.771407384e-05,-3.063808214e-04,-3.644874503e-04,1.219356157e-05,-3.522938887e-04,-6.452998745e-04,4.878593560e-05,-5.965139389e-04,-4.231168747e-04,-6.149110763e-05,-4.846079824e-04,-4.259844122e-04,-2.558821490e-05,-4.515726271e-04,-1.825744181e-03,-2.168413813e-05,-1.847428319e-03,-2.881818730e-03,1.897648334e-05,-2.862842246e-03,-3.048632628e-03,-2.112256397e-04,-3.259858268e-03,-1.746564647e-03,-9.107537372e-05,-1.837640020e-03,-1.360607056e-03,-2.705159580e-05,-1.387658652e-03,-1.001895647e-03,4.392577860e-05,-9.579698686e-04,-5.549207443e-04,-7.010108039e-05,-6.250218247e-04,-1.060689167e-03,-2.998186367e-04,-1.360507803e-03,-9.803954398e-04,7.569493468e-05,-9.047005052e-04,-3.205644563e-04,-4.491014894e-05,-3.654746053e-04,-1.065309362e-03,3.622311974e-05,-1.029086242e-03,-3.564820818e-04,-6.024638896e-06,-3.625067207e-04,-4.673944658e-04,-6.205340683e-05,-5.294478726e-04,-4.744608145e-04,-6.488878762e-05,-5.393496021e-04,-4.652901105e-04,2.154506738e-05,-4.437450432e-04,-4.061077258e-04,2.732348867e-05,-3.787842372e-04,-3.602729024e-04,-5.330001266e-05,-4.135729151e-04
-8.7,-7.591778003e-04,-3.211587325e-04,-1.080336533e-03,-2.397731576e-03,-2.610738537e-04,-2.658805430e-03,-1.591396458e-04,-1.240106116e-04,-2.831502574e-04,-2.314671428e-03,2.928138550e-05,-2.285390043e-03,-1.604632561e-03,-1.751503818e-05,-1.622147599e-03,-2.584099627e-03,-2.603844299e-05,-2.610138070e-03,-2.128741186e-03,-9.209723382e-06,-2.137950909e-03,-2.693302582e-03,-1.191225703e-04,-2.812425152e-03,-2.304121210e-03,-5.605488993e-05,-2.360176100e-03,-2.105590957e-03,4.273018330e-05,-2.062860774e-03,-2.716793607e-03,4.122345635e-05,-2.675570150e-03,-1.653042971e-04,-5.017848138e-06,-1.703221452e-04,-4.675563241e-04,1.727640782e-05,-4.502799163e-04,-5.834519100e-04,-2.257925611e-05,-6.060311661e-04,-3.232188057e-04,-6.426230765e-05,-3.874811134e-04,-4.328501705e-04,1.036761111e-05,-4.224825594e-04,-6.989127430e-04,4.751590171e-05,-6.513968413e-04,-4.651880531e-04,-6.483787014e-05,-5.300259232e-04,-4.665960988e-04,-2.486906908e-05,-4.914651679e-04,-1.898670125e-03,-2.200602879e-05,-1.920676154e-03,-2.862542254e-03,1.673927033e-05,-2.845802983e-03,-3.119247662e-03,-2.246972338e-04,-3.343944896e-03,-1.740169054e-03,-8.791650962e-05,-1.828085564e-03,-1.401409828e-03,-3.572352087e-05,-1.437133349e-03,-1.085395206e-03,5.112245994e-05,-1.034272746e-03,-6.478521640e-04,-8.000902729e-05,-7.278611913e-04,-1.173352736e-03,-2.928397566e-04,-1.466192493e-03,-1.071610448e-03,6.814400431e-05,-1.003466444e-03,-3.992978118e-04,-4.968252866e-05,-4.489803405e-04,-1.133096956e-03,3.835223129e-05,-1.094744725e-03,-4.471309345e-04,-7.292027804e-06,-4.544229623e-04,-5.520486067e-04,-6.478407431e-05,-6.168326810e-04,-5.502678485e-04,-6.691097287e-05,-6.171788213e-04,-5.457908481e-04,2.595832369e-05,-5.198325244e-04,-5.062055142e-04,2.240140841e-05,-4.838041058e-04,-4.163790275e-04,-6.460374435e-05,-4.809827719e-04
-8.6,-7.021555485e-04,-3.033431975e-04,-1.005498746e-03,-2.402701362e-03,-2.573966115e-04,-2.660097974e-03,-1.664889187e-04,-1.245600063e-04,-2.910489250e-04,-2.336116700e-03,2.553618649e-05,-2.310580513e-03,-1.638735486e-03,-1.764595298e-05,-1.656381439e-03,-2.602392908e-03,-2.169962847e-05,-2.624092536e-03,-2.171995397e-03,-8.139810172e-06,-2.180135207e-03,-2.754988857e-03,-1.117845012e-04,-2.866773359e-03,-2.374669374e-03,-5.304619517e-05,-2.427715569e-03,-2.161594019e-03,4.830967491e-05,-2.113284344e-03,-2.680977657e-03,4.837939276e-05,-2.632598264e-03,-2.306083448e-04,-6.667503070e-06,-2.372758479e-04,-5.440251923e-04,-4.674998949e-06,-5.487001913e-04,-6.520821710e-04,-3.124032673e-05,-6.833224977e-04,-3.959992858e-04,-7.028543688e-05,-4.662847227e-04,-4.999057741e-04,8.751960055e-06,-4.911538141e-04,-7.513072364e-04,4.635338445e-05,-7.049538519e-04,-5.057546338e-04,-6.744817612e-05,-5.732028099e-04,-5.062240377e-04,-2.364257291e-05,-5.298666106e-04,-1.963432980e-03,-2.206307424e-05,-1.985496054e-03,-2.832419396e-03,1.460846381e-05,-2.817810932e-03,-3.178379476e-03,-2.373887908e-04,-3.415768266e-03,-1.725626810e-03,-8.459185091e-05,-1.810218661e-03,-1.435934568e-03,-4.430633011e-05,-1.480240898e-03,-1.163031194e-03,5.758621674e-05,-1.105444977e-03,-7.375346816e-04,-8.964241192e-05,-8.271770936e-04,-1.280903443e-03,-2.847946724e-04,-1.565698115e-03,-1.159785522e-03,6.042196488e-05,-1.099363557e-03,-4.760613028e-04,-5.385343038e-05,-5.299147332e-04,-1.195910082e-03,4.080884508e-05,-1.155101237e-03,-5.351240332e-04,-8.104258351e-06,-5.432282915e-04,-6.334205039e-04,-6.643340634e-05,-6.998539102e-04,-6.238731626e-04,-6.854928855e-05,-6.924224511e-04,-6.248319149e-04,3.202018673e-05,-5.928117282e-04,-6.045519993e-04,1.835491804e-05,-5.861970813e-04,-4.696434657e-04,-7.492995003e-05,-5.445734158e-04
-8.5,-6.455944887e-04,-2.856245763e-04,-9.312190650e-04,-2.399581085e-03,-2.526823146e-04,-2.652263400e-03,-1.727160286e-04,-1.251917744e-04,-2.979078030e-04,-2.350130077e-03,2.206193263e-05,-2.328068145e-03,-1.667166223e-03,-1.754834383e-05,-1.684714567e-03,-2.612160086e-03,-1.700901002e-05,-2.629169096e-03,-2.207778266e-03,-6.705303764e-06,-2.214483570e-03,-2.805640728e-03,-1.039299409e-04,-2.909570668e-03,-2.436016713e-03,-4.957895843e-05,-2.485595672e-03,-2.207297800e-03,5.390521397e-05,-2.153392586e-03,-2.633932423e-03,5.532770026e-05,-2.578604722e-03,-2.928693993e-04,-8.137412669e-06,-3.010068120e-04,-6.145674564e-04,-2.615823090e-05,-6.407256873e-04,-7.171052093e-04,-3.962274277e-05,-7.567279521e-04,-4.667381025e-04,-7.578319606e-05,-5.425212985e-04,-5.653080277e-04,7.338423070e-06,-5.579696047e-04,-8.022426155e-04,4.528703834e-05,-7.569555772e-04,-5.445898270e-04,-6.933265861e-05,-6.139224856e-04,-5.447513874e-04,-2.192043509e-05,-5.666718225e-04,-2.019798377e-03,-2.185929892e-05,-2.041657675e-03,-2.791822709e-03,1.257971524e-05,-2.779242994e-03,-3.225763539e-03,-2.492393300e-04,-3.475002869e-03,-1.703084987e-03,-8.111753452e-05,-1.784202521e-03,-1.463940162e-03,-5.274937441e-05,-1.516689536e-03,-1.234399460e-03,6.327323483e-05,-1.171126225e-03,-8.234534636e-04,-9.893102857e-05,-9.223844922e-04,-1.382808943e-03,-2.757494861e-04,-1.658558429e-03,-1.244543781e-03,5.249930293e-05,-1.192044478e-03,-5.505009675e-04,-5.741758009e-05,-6.079185476e-04,-1.253441453e-03,4.353252774e-05,-1.209908926e-03,-6.200786528e-04,-8.473666110e-06,-6.285523189e-04,-7.112167558e-04,-6.699789512e-05,-7.782146509e-04,-6.949715861e-04,-6.980686212e-05,-7.647784482e-04,-7.019733000e-04,3.959540179e-05,-6.623778983e-04,-7.007738682e-04,1.520209371e-05,-6.855717745e-04,-5.199235074e-04,-8.420630872e-05,-6.041298161e-04
-8.4,-5.895425790e-04,-2.680348411e-04,-8.575774201e-04,-2.388264400e-03,-2.469306403e-04,-2.635195040e-03,-1.775166628e-04,-1.258511637e-04,-3.033678265e-04,-2.356501526e-03,1.888472523e-05,-2.337616801e-03,-1.689802354e-03,-1.722605415e-05,-1.707028408e-03,-2.613316100e-03,-1.200430054e-05,-2.625320400e-03,-2.236011605e-03,-4.928812690e-06,-2.240940418e-03,-2.845187994e-03,-9.560310600e-05,-2.940791100e-03,-2.488048041e-03,-4.566927215e-05,-2.533717313e-03,-2.242729706e-03,5.948846017e-05,-2.183241246e-03,-2.576233678e-03,6.202781550e-05,-2.514205863e-03,-3.518036698e-04,-9.394806121e-06,-3.611984759e-04,-6.790990638e-04,-4.705934488e-05,-7.261584087e-04,-7.782760507e-04,-4.768758774e-05,-8.259636384e-04,-5.351824468e-04,-8.076079696e-05,-6.159432437e-04,-6.287313833e-04,6.122622376e-06,-6.226087609e-04,-8.514826467e-04,4.430647823e-05,-8.071761685e-04,-5.814873781e-04,-7.049849581e-05,-6.519858740e-04,-5.820643731e-04,-1.971689724e-05,-6.017812703e-04,-2.067603959e-03,-2.139982808e-05,-2.089003787e-03,-2.741212787e-03,1.064698168e-05,-2.730565806e-03,-3.261233235e-03,-2.601909422e-04,-3.521424177e-03,-1.672758027e-03,-7.751122918e-05,-1.750269256e-03,-1.485252036e-03,-6.100190508e-05,-1.546253941e-03,-1.299155401e-03,6.815269043e-05,-1.231002711e-03,-9.051292833e-04,-1.078092348e-04,-1.012938518e-03,-1.478563929e-03,-2.657974833e-04,-1.744361412e-03,-1.325505449e-03,4.433518255e-05,-1.281170267e-03,-6.222866598e-04,-6.037539714e-05,-6.826620569e-04,-1.305435531e-03,4.646117253e-05,-1.258974359e-03,-7.016301174e-04,-8.423881225e-06,-7.100539986e-04,-7.851691071e-04,-6.648531062e-05,-8.516544178e-04,-7.632797182e-04,-7.068815654e-05,-8.339678747e-04,-7.767823320e-04,4.852517724e-05,-7.282571548e-04,-7.944958248e-04,1.293910665e-05,-7.815567182e-04,-5.671096108e-04,-9.235834745e-05,-6.594679582e-04
-8.3,-5.340552121e-04,-2.506020953e-04,-7.846573073e-04,-2.368707384e-03,-2.401481458e-04,-2.608855530e-03,-1.806323239e-04,-1.264829835e-04,-3.071153074e-04,-2.355084740e-03,1.602824026e-05,-2.339056499e-03,-1.706574136e-03,-1.668492241e-05,-1.723259059e-03,-2.605848772e-03,-6.723946046e-06,-2.612572718e-03,-2.256683172e-03,-2.836170966e-06,-2.259519343e-03,-2.873647575e-03,-8.685394354e-05,-2.960501518e-03,-2.530726566e-03,-4.133658582e-05,-2.572063152e-03,-2.268003310e-03,6.503085852e-05,-2.202972451e-03,-2.508545290e-03,6.844087694e-05,-2.440104413e-03,-4.071750120e-04,-1.041367284e-05,-4.175886848e-04,-7.376162911e-04,-6.728259827e-05,-8.048988894e-04,-8.353964647e-04,-5.539983505e-05,-8.907962998e-04,-6.011038317e-04,-8.522872008e-05,-6.863325518e-04,-6.898802639e-04,5.103939104e-06,-6.847763248e-04,-8.988037475e-04,4.340238332e-05,-8.554013642e-04,-6.162665173e-04,-7.094934774e-05,-6.872158650e-04,-6.180562684e-04,-1.704968202e-05,-6.351059504e-04,-2.106762587e-03,-2.069100663e-05,-2.127453593e-03,-2.681134643e-03,8.802443642e-06,-2.672332199e-03,-3.284722695e-03,-2.701889078e-04,-3.554911603e-03,-1.634927411e-03,-7.379207054e-05,-1.708719481e-03,-1.499766563e-03,-6.901336623e-05,-1.568779930e-03,-1.357023428e-03,7.220644719e-05,-1.284816981e-03,-9.821338630e-04,-1.162172557e-04,-1.098351119e-03,-1.567697088e-03,-2.550578323e-04,-1.822754921e-03,-1.402295551e-03,3.588065357e-05,-1.366414897e-03,-6.911185892e-04,-6.273262749e-05,-7.538512167e-04,-1.351693222e-03,4.953219197e-05,-1.302161030e-03,-7.794385480e-04,-7.989411464e-06,-7.874279595e-04,-8.550383768e-04,-6.491509443e-05,-9.199534713e-04,-8.285419071e-04,-7.119864559e-05,-8.997405527e-04,-8.488451244e-04,5.862959785e-05,-7.902155266e-04,-8.853477189e-04,1.154049962e-05,-8.738072193e-04,-6.111291802e-04,-9.931177272e-05,-7.104409529e-04
-8.2,-4.791982002e-04,-2.333511159e-04,-7.125493161e-04,-2.340931671e-03,-2.323478906e-04,-2.573279561e-03,-1.818555584e-04,-1.270326063e-04,-3.088881648e-04,-2.345800503e-03,1.351327687e-05,-2.332287226e-03,-1.717466628e-03,-1.593271177e-05,-1.733399339e-03,-2.589818692e-03,-1.207171596e-06,-2.591025864e-03,-2.269847082e-03,-4.560126663e-07,-2.270303095e-03,-2.891123850e-03,-7.773682822e-05,-2.968860678e-03,-2.564093495e-03,-3.660345705e-05,-2.600696952e-03,-2.283316952e-03,7.050403034e-05,-2.212812922e-03,-2.431612446e-03,7.453021388e-05,-2.357082232e-03,-4.587975580e-04,-1.117444009e-05,-4.699719981e-04,-7.901866443e-04,-8.675504905e-05,-8.769416934e-04,-8.883151918e-04,-6.272861697e-05,-9.510438088e-04,-6.643006914e-04,-8.920152718e-05,-7.535022186e-04,-7.484942006e-04,4.285515594e-06,-7.442086850e-04,-9.440000021e-04,4.256633760e-05,-9.014336645e-04,-6.487746702e-04,-7.068621676e-05,-7.194608870e-04,-6.526300169e-04,-1.394107737e-05,-6.665710943e-04,-2.137262162e-03,-1.974031018e-05,-2.157002473e-03,-2.612210573e-03,7.036646433e-06,-2.605173927e-03,-3.296266088e-03,-2.791818218e-04,-3.575447910e-03,-1.589938407e-03,-6.998047696e-05,-1.659918884e-03,-1.507451917e-03,-7.673372999e-05,-1.584185647e-03,-1.407801920e-03,7.542879030e-05,-1.332373130e-03,-1.054098768e-03,-1.241020325e-04,-1.178200800e-03,-1.649778196e-03,-2.436720417e-04,-1.893450238e-03,-1.474550604e-03,2.708342092e-05,-1.447467183e-03,-7.567298126e-04,-6.449963015e-05,-8.212294427e-04,-1.392071664e-03,5.268364356e-05,-1.339388021e-03,-8.531931394e-04,-7.214317667e-06,-8.604074570e-04,-9.206155734e-04,-6.231844138e-05,-9.829340148e-04,-8.905333293e-04,-7.134425121e-05,-9.618775805e-04,-9.177729967e-04,6.970951730e-05,-8.480634794e-04,-9.729691253e-04,1.096004406e-05,-9.620090812e-04,-6.519475389e-04,-1.049944386e-04,-7.569419775e-04
-8.1,-4.250488893e-04,-2.163038899e-04,-6.413527792e-04,-2.305025133e-03,-2.235491481e-04,-2.528574281e-03,-1.810317232e-04,-1.274469036e-04,-3.084786267e-04,-2.328636543e-03,1.135735792e-05,-2.317279185e-03,-1.722517453e-03,-1.497894331e-05,-1.737496397e-03,-2.565354955e-03,4.505964888e-06,-2.560848990e-03,-2.275617614e-03,2.180774794e-06,-2.273436840e-03,-2.897804087e-03,-6.830917008e-05,-2.966113257e-03,-2.588262324e-03,-3.149525428e-05,-2.619757578e-03,-2.288947684e-03,7.588007818e-05,-2.213067606e-03,-2.346251013e-03,8.026179297e-05,-2.265989220e-03,-5.065318946e-04,-1.166347331e-05,-5.181953679e-04,-8.369362322e-04,-1.054275175e-04,-9.423637497e-04,-9.369203555e-04,-6.964668079e-05,-1.006567036e-03,-7.245948960e-04,-9.269600009e-05,-8.172908961e-04,-8.043467319e-04,3.674247957e-06,-8.006724840e-04,-9.868828593e-04,4.179034706e-05,-9.450925122e-04,-6.788863346e-04,-6.970937487e-05,-7.485957095e-04,-6.856981559e-04,-1.041886856e-05,-6.961170244e-04,-2.159161124e-03,-1.855612618e-05,-2.177717250e-03,-2.535128476e-03,5.338882212e-06,-2.529789593e-03,-3.295992316e-03,-2.871216660e-04,-3.583113982e-03,-1.538193080e-03,-6.609785248e-05,-1.604290932e-03,-1.508344584e-03,-8.411396605e-05,-1.592458550e-03,-1.451361331e-03,7.782642853e-05,-1.373534902e-03,-1.120714781e-03,-1.314173209e-04,-1.252132102e-03,-1.724422693e-03,-2.317988984e-04,-1.956221591e-03,-1.541921986e-03,1.789380691e-05,-1.524028179e-03,-8.188836036e-04,-6.569049166e-05,-8.845740953e-04,-1.426478642e-03,5.585536417e-05,-1.370623278e-03,-9.226124715e-04,-6.150219133e-06,-9.287626907e-04,-9.817196461e-04,-5.873761362e-05,-1.040457260e-03,-9.490582378e-04,-7.113082928e-05,-1.020189067e-03,-9.832012483e-04,8.154776202e-05,-9.016534863e-04,-1.057010030e-03,1.113231659e-05,-1.045877713e-03,-6.895648882e-04,-1.093377017e-04,-7.989025899e-04
-8,-3.716949495e-04,-1.994800543e-04,-5.711750039e-04,-2.261139737e-03,-2.137771711e-04,-2.474916908e-03,-1.780567609e-04,-1.276750419e-04,-3.057318028e-04,-2.303643422e-03,9.574447145e-06,-2.294068975e-03,-1.721809932e-03,-1.383464881e-05,-1.735644581e-03,-2.532647074e-03,1.037467409e-05,-2.522272400e-03,-2.274156957e-03,5.041664366e-06,-2.269115292e-03,-2.893948823e-03,-5.863015312e-05,-2.952578977e-03,-2.603408412e-03,-2.603984092e-05,-2.629448253e-03,-2.285240761e-03,8.113181757e-05,-2.204108943e-03,-2.253332884e-03,8.560461519e-05,-2.167728269e-03,-5.502761799e-04,-1.187221125e-05,-5.621483912e-04,-8.780358437e-04,-1.232708664e-04,-1.001306710e-03,-9.811263399e-04,-7.612922870e-05,-1.057255569e-03,-7.818231606e-04,-9.572922125e-05,-8.775523818e-04,-8.572378503e-04,3.280800821e-06,-8.539570494e-04,-1.027275362e-03,4.106634252e-05,-9.862090191e-04,-7.064976841e-04,-6.802093547e-05,-7.745186196e-04,-7.171794533e-04,-6.516864637e-06,-7.236963180e-04,-2.172580003e-03,-1.714760621e-05,-2.189727609e-03,-2.450626101e-03,3.697694980e-06,-2.446928406e-03,-3.284115554e-03,-2.939638821e-04,-3.578079436e-03,-1.480139990e-03,-6.216623177e-05,-1.542306222e-03,-1.502542207e-03,-9.110663991e-05,-1.593648847e-03,-1.487635197e-03,7.941887636e-05,-1.408216321e-03,-1.181721568e-03,-1.381229301e-04,-1.319844498e-03,-1.791291795e-03,-2.196086997e-04,-2.010900494e-03,-1.604075156e-03,8.271043781e-06,-1.595804113e-03,-8.773667342e-04,-6.632227454e-05,-9.436890087e-04,-1.454863182e-03,5.898998405e-05,-1.395873198e-03,-9.874412018e-04,-4.853910112e-06,-9.922951119e-04,-1.038192172e-03,-5.422471757e-05,-1.092416890e-03,-1.003943063e-03,-7.056412334e-05,-1.074507186e-03,-1.044781585e-03,9.391032468e-05,-9.508712604e-04,-1.137128095e-03,1.197518235e-05,-1.125152913e-03,-7.240096647e-04,-1.122772718e-04,-8.362869366e-04
-7.9,-3.192312608e-04,-1.828972264e-04,-5.021284872e-04,-2.209487034e-03,-2.030629245e-04,-2.412549958e-03,-1.728719877e-04,-1.276691097e-04,-3.005410974e-04,-2.270927603e-03,8.174791642e-06,-2.262752811e-03,-1.715463299e-03,-1.251208650e-05,-1.727975385e-03,-2.491934863e-03,1.635766108e-05,-2.475577202e-03,-2.265660322e-03,8.093070919e-06,-2.257567251e-03,-2.879879185e-03,-4.875972824e-05,-2.928638913e-03,-2.609756373e-03,-2.026728641e-05,-2.630023659e-03,-2.272596541e-03,8.623293083e-05,-2.186363610e-03,-2.153768699e-03,9.053104557e-05,-2.063237653e-03,-5.899559206e-04,-1.179600100e-05,-6.017519216e-04,-9.136883199e-04,-1.402683160e-04,-1.053956636e-03,-1.020860310e-03,-8.215274248e-05,-1.103013052e-03,-8.358270469e-04,-9.831716145e-05,-9.341442084e-04,-9.069828044e-04,3.119580231e-06,-9.038632242e-04,-1.065003555e-03,4.038601550e-05,-1.024617539e-03,-7.315184546e-04,-6.562734591e-05,-7.971458005e-04,-7.469931399e-04,-2.274904973e-06,-7.492680449e-04,-2.177691082e-03,-1.552467848e-05,-2.193215761e-03,-2.359473445e-03,2.101393117e-06,-2.357372052e-03,-3.260923544e-03,-2.996675931e-04,-3.560591137e-03,-1.416262368e-03,-5.820792586e-05,-1.474470294e-03,-1.490194896e-03,-9.766654405e-05,-1.587861440e-03,-1.516607065e-03,8.023889477e-05,-1.436368170e-03,-1.236892091e-03,-1.441835001e-04,-1.381075591e-03,-1.850089570e-03,-2.072769867e-04,-2.057366556e-03,-1.660686788e-03,-1.811145192e-06,-1.662497933e-03,-9.319816592e-04,-6.641458903e-05,-9.983962482e-04,-1.477205521e-03,6.203365961e-05,-1.415171861e-03,-1.047445292e-03,-3.384908560e-06,-1.050830200e-03,-1.089890385e-03,-4.884078936e-05,-1.138731175e-03,-1.055026634e-03,-6.965048021e-05,-1.124677114e-03,-1.102172958e-03,1.065485425e-04,-9.956244156e-04,-1.212984451e-03,1.339290640e-05,-1.199591545e-03,-7.553300927e-04,-1.137541783e-04,-8.690842710e-04
-7.8,-2.677560939e-04,-1.665712853e-04,-4.343273792e-04,-2.150332445e-03,-1.914427535e-04,-2.341775199e-03,-1.654581601e-04,-1.273846233e-04,-2.928427834e-04,-2.230643985e-03,7.164820926e-06,-2.223479164e-03,-1.703623024e-03,-1.102449595e-05,-1.714647520e-03,-2.443498720e-03,2.241330241e-05,-2.421085418e-03,-2.250342891e-03,1.130080838e-05,-2.239042083e-03,-2.855964215e-03,-3.875785946e-05,-2.894722075e-03,-2.607568338e-03,-1.420961765e-05,-2.621777955e-03,-2.251457337e-03,9.115806703e-05,-2.160299270e-03,-2.048490089e-03,9.501707820e-05,-1.953473011e-03,-6.255163757e-04,-1.143303339e-05,-6.369494091e-04,-9.441196698e-04,-1.564062969e-04,-1.100525967e-03,-1.056053368e-03,-8.769440826e-05,-1.143747776e-03,-8.864456422e-04,-1.004741029e-04,-9.869197451e-04,-9.534018953e-04,3.208459720e-06,-9.501934355e-04,-1.099889048e-03,3.974097640e-05,-1.060148071e-03,-7.538641444e-04,-6.254138455e-05,-8.164055290e-04,-7.750528872e-04,2.261615071e-06,-7.727912721e-04,-2.174708709e-03,-1.369808479e-05,-2.188406794e-03,-2.262456065e-03,5.385682227e-07,-2.261917497e-03,-3.226766070e-03,-3.041960218e-04,-3.530962091e-03,-1.347066885e-03,-5.424519016e-05,-1.401312075e-03,-1.471497259e-03,-1.037512879e-04,-1.575248547e-03,-1.538298143e-03,8.033236194e-05,-1.457965781e-03,-1.286019022e-03,-1.495675039e-04,-1.435586525e-03,-1.900560902e-03,-1.949777992e-04,-2.095538701e-03,-1.711443881e-03,-1.236026424e-05,-1.723804145e-03,-9.825406777e-04,-6.598947829e-05,-1.048530156e-03,-1.493509196e-03,6.493638643e-05,-1.428572809e-03,-1.102408217e-03,-1.803220737e-06,-1.104211438e-03,-1.136680685e-03,-4.265572401e-05,-1.179336409e-03,-1.102151108e-03,-6.839831202e-05,-1.170549420e-03,-1.155035905e-03,1.192030990e-04,-1.035832806e-03,-1.284240263e-03,1.527929904e-05,-1.268960964e-03,-7.835860516e-04,-1.137165207e-04,-8.973025723e-04
-7.7,-2.173677942e-04,-1.505167209e-04,-3.678845150e-04,-2.083989525e-03,-1.789580401e-04,-2.262947565e-03,-1.558309320e-04,-1.267809994e-04,-2.826119314e-04,-2.182989971e-03,6.547035517e-06,-2.176442936e-03,-1.686453756e-03,-9.385951961e-06,-1.695839708e-03,-2.387652175e-03,2.849970380e-05,-2.359152471e-03,-2.228431581e-03,1.463040793e-05,-2.213801174e-03,-2.822610517e-03,-2.868398076e-05,-2.851294497e-03,-2.597135124e-03,-7.900577297e-06,-2.605035701e-03,-2.222296282e-03,9.588297673e-05,-2.126413305e-03,-1.938433486e-03,9.904257635e-05,-1.839390910e-03,-6.569197533e-04,-1.078374780e-05,-6.677035011e-04,-9.695747324e-04,-1.716667748e-04,-1.141241507e-03,-1.086638595e-03,-9.273243633e-05,-1.179371032e-03,-9.335131665e-04,-1.022129217e-04,-1.035726088e-03,-9.963148562e-04,3.568086125e-06,-9.927467701e-04,-1.131745518e-03,3.912295436e-05,-1.092622564e-03,-7.734515271e-04,-5.878353264e-05,-8.322350598e-04,-8.012627048e-04,7.042589495e-06,-7.942201154e-04,-2.163882047e-03,-1.167927276e-05,-2.175561320e-03,-2.160361397e-03,-1.001359941e-06,-2.161362757e-03,-3.182045270e-03,-3.075170618e-04,-3.489562332e-03,-1.273074596e-03,-5.029991182e-05,-1.323374508e-03,-1.446682505e-03,-1.093218276e-04,-1.556004333e-03,-1.552759393e-03,7.975718416e-05,-1.473002209e-03,-1.328908650e-03,-1.542469251e-04,-1.483155575e-03,-1.942493207e-03,-1.828770297e-04,-2.125370237e-03,-1.756047597e-03,-2.336221730e-05,-1.779409814e-03,-1.028863674e-03,-6.507155360e-05,-1.093935227e-03,-1.503796379e-03,6.765169000e-05,-1.436144689e-03,-1.152129738e-03,-1.674394619e-07,-1.152297177e-03,-1.178434779e-03,-3.574857970e-05,-1.214183359e-03,-1.145156357e-03,-6.681984244e-05,-1.211976200e-03,-1.203033008e-03,1.316099107e-04,-1.071423098e-03,-1.350555678e-03,1.752050331e-05,-1.333035175e-03,-8.088428495e-04,-1.121221500e-04,-9.209649995e-04
-7.6,-1.681625911e-04,-1.347471300e-04,-3.029097211e-04,-2.010814882e-03,-1.656549274e-04,-2.176469809e-03,-1.440386123e-04,-1.258220385e-04,-2.698606508e-04,-2.128201923e-03,6.319883485e-06,-2.121882039e-03,-1.664135877e-03,-7.611313879e-06,-1.671747191e-03,-2.324737435e-03,3.457475453e-05,-2.290162681e-03,-2.200162403e-03,1.804736230e-05,-2.182115041e-03,-2.780255086e-03,-1.859666079e-05,-2.798851746e-03,-2.578771006e-03,-1.375347555e-06,-2.580146354e-03,-2.185609255e-03,1.003847650e-04,-2.085224490e-03,-1.824526764e-03,1.025915272e-04,-1.721935237e-03,-6.841473078e-04,-9.850725246e-06,-6.939980330e-04,-9.903170581e-04,-1.860224180e-04,-1.176339476e-03,-1.112555405e-03,-9.724720736e-05,-1.209802613e-03,-9.768616388e-04,-1.035459867e-04,-1.080407626e-03,-1.035540939e-03,4.220769138e-06,-1.031320170e-03,-1.160379835e-03,3.852381666e-05,-1.121856018e-03,-7.901990204e-04,-5.438248255e-05,-8.445815029e-04,-8.255158851e-04,1.201428827e-05,-8.135015968e-04,-2.145490723e-03,-9.480169175e-06,-2.154970892e-03,-2.053968942e-03,-2.527653010e-06,-2.056496595e-03,-3.127208366e-03,-3.096040441e-04,-3.436812410e-03,-1.194814653e-03,-4.639332362e-05,-1.241207977e-03,-1.416018896e-03,-1.143429370e-04,-1.530361833e-03,-1.560069430e-03,7.858144581e-05,-1.481487984e-03,-1.365383631e-03,-1.581976185e-04,-1.523581249e-03,-1.975721787e-03,-1.711268459e-04,-2.146848633e-03,-1.794221377e-03,-3.478006783e-05,-1.829001445e-03,-1.070779510e-03,-6.368835776e-05,-1.134467868e-03,-1.508106522e-03,7.013566232e-05,-1.437970860e-03,-1.196427728e-03,1.466832461e-06,-1.194960896e-03,-1.215029830e-03,-2.820736268e-05,-1.243237193e-03,-1.183878931e-03,-6.493238434e-05,-1.248811316e-03,-1.245835302e-03,1.435068105e-04,-1.102328492e-03,-1.411591937e-03,1.999753698e-05,-1.391594400e-03,-8.311674414e-04,-1.089421769e-04,-9.401096183e-04
-7.5,-1.202336314e-04,-1.192757904e-04,-2.395094218e-04,-1.931203977e-03,-1.515841668e-04,-2.082788144e-03,-1.301620137e-04,-1.244764141e-04,-2.546384279e-04,-2.066553821e-03,6.477671120e-06,-2.060076150e-03,-1.636865367e-03,-5.716212085e-06,-1.642581579e-03,-2.255123679e-03,4.059631350e-05,-2.214527366e-03,-2.165782443e-03,2.151737846e-05,-2.144265065e-03,-2.729361212e-03,-8.553381431e-06,-2.737914593e-03,-2.552811674e-03,5.329762186e-06,-2.547481912e-03,-2.141909863e-03,1.046422477e-04,-2.037267615e-03,-1.707679157e-03,1.056522911e-04,-1.602026866e-03,-7.072051659e-04,-8.638801871e-06,-7.158439678e-04,-1.006633219e-03,-1.994336676e-04,-1.206066887e-03,-1.133758068e-03,-1.012228621e-04,-1.234980930e-03,-1.016327373e-03,-1.044863108e-04,-1.120813684e-03,-1.070903928e-03,5.189127100e-06,-1.065714801e-03,-1.185597129e-03,3.793537946e-05,-1.147661750e-03,-8.040315416e-04,-4.937452361e-05,-8.534060652e-04,-8.476969944e-04,1.712055799e-05,-8.305764364e-04,-2.119842865e-03,-7.113020840e-06,-2.126955886e-03,-1.944044088e-03,-4.047934608e-06,-1.948092022e-03,-3.062742456e-03,-3.104367575e-04,-3.373179214e-03,-1.112820591e-03,-4.254575448e-05,-1.155366346e-03,-1.379808063e-03,-1.187836115e-04,-1.498591674e-03,-1.560337642e-03,7.688125952e-05,-1.483456382e-03,-1.395292829e-03,-1.614001106e-04,-1.556692939e-03,-2.000136951e-03,-1.598618883e-04,-2.159998840e-03,-1.825721129e-03,-4.655459474e-05,-1.872275723e-03,-1.108130218e-03,-6.187086489e-05,-1.170001083e-03,-1.506497891e-03,7.234573558e-05,-1.434152155e-03,-1.235142471e-03,3.048197832e-06,-1.232094274e-03,-1.246352452e-03,-2.012797070e-05,-1.266480423e-03,-1.218155228e-03,-6.275871148e-05,-1.280913939e-03,-1.283132679e-03,1.546394548e-04,-1.128493225e-03,-1.467016797e-03,2.258903584e-05,-1.444427762e-03,-8.506267050e-04,-1.041653062e-04,-9.547920112e-04
-7.4,-7.367106466e-05,-1.041161290e-04,-1.777871936e-04,-1.845587624e-03,-1.368010821e-04,-1.982388706e-03,-1.143155787e-04,-1.227181408e-04,-2.370337195e-04,-1.998357387e-03,7.010549418e-06,-1.991346837e-03,-1.604855881e-03,-3.717007309e-06,-1.608572888e-03,-2.179207200e-03,4.652254111e-05,-2.132684659e-03,-2.125554604e-03,2.500668335e-05,-2.100547921e-03,-2.670416723e-03,1.389761712e-06,-2.669026962e-03,-2.519614213e-03,1.217763199e-05,-2.507436581e-03,-2.091726617e-03,1.086363076e-04,-1.983090309e-03,-1.588774041e-03,1.082177704e-04,-1.480556270e-03,-7.261318684e-04,-7.155140223e-06,-7.332870086e-04,-1.018841299e-03,-2.118461275e-04,-1.230687426e-03,-1.150225755e-03,-1.046487646e-04,-1.254874520e-03,-1.051759432e-03,-1.050486339e-04,-1.156808066e-03,-1.102240245e-03,6.494683906e-06,-1.095745562e-03,-1.207208615e-03,3.734915607e-05,-1.169859459e-03,-8.148881779e-04,-4.380195486e-05,-8.586901327e-04,-8.676861860e-04,2.230404427e-05,-8.453821417e-04,-2.087274480e-03,-4.590404962e-06,-2.091864885e-03,-1.831334499e-03,-5.568053076e-06,-1.836902552e-03,-2.989170687e-03,-3.100025524e-04,-3.299173239e-03,-1.027628353e-03,-3.877640398e-05,-1.066404757e-03,-1.338384091e-03,-1.226174027e-04,-1.461001493e-03,-1.553710468e-03,7.473849182e-05,-1.478971976e-03,-1.418525015e-03,-1.638405491e-04,-1.582365564e-03,-2.015690943e-03,-1.491974617e-04,-2.164888405e-03,-1.850345277e-03,-5.860679227e-05,-1.908952069e-03,-1.140776695e-03,-5.965386906e-05,-1.200430564e-03,-1.499050992e-03,7.423975857e-05,-1.424811233e-03,-1.268142000e-03,4.530233879e-06,-1.263611766e-03,-1.272305020e-03,-1.161261252e-05,-1.283917633e-03,-1.247827530e-03,-6.032673465e-05,-1.308154265e-03,-1.314645966e-03,1.647660003e-04,-1.149879966e-03,-1.516512703e-03,2.517447068e-05,-1.491338232e-03,-8.672870193e-04,-9.780278180e-05,-9.650898011e-04
-7.3,-2.856281458e-05,-8.928195428e-05,-1.178447689e-04,-1.754428773e-03,-1.213656123e-04,-1.875794385e-03,-9.664871067e-05,-1.205269938e-04,-2.171757044e-04,-1.923962646e-03,7.904578146e-06,-1.916058068e-03,-1.568341567e-03,-1.630691024e-06,-1.569972258e-03,-2.097412076e-03,5.231232771e-05,-2.045099748e-03,-2.079762686e-03,2.848237551e-05,-2.051280311e-03,-2.603933181e-03,1.117845358e-05,-2.592754728e-03,-2.479557442e-03,1.913063471e-05,-2.460426807e-03,-2.035600917e-03,1.123501555e-04,-1.923250762e-03,-1.468663530e-03,1.102854444e-04,-1.358378085e-03,-7.410049745e-04,-5.409173179e-06,-7.464141476e-04,-1.027300460e-03,-2.231882306e-04,-1.250488691e-03,-1.161971215e-03,-1.075203754e-04,-1.269491590e-03,-1.083027818e-03,-1.052501778e-04,-1.188277996e-03,-1.129407749e-03,8.156503392e-06,-1.121251246e-03,-1.225040561e-03,3.675624762e-05,-1.188284313e-03,-8.227303552e-04,-3.771120776e-05,-8.604415629e-04,-8.853646896e-04,2.750735119e-05,-8.578573385e-04,-2.048148858e-03,-1.925299442e-06,-2.050074157e-03,-1.716567540e-03,-7.092023589e-06,-1.723659564e-03,-2.907048873e-03,-3.082971648e-04,-3.215346038e-03,-9.397748441e-04,-3.510311310e-05,-9.748779572e-04,-1.292111962e-03,-1.258226988e-04,-1.417934660e-03,-1.540377896e-03,7.223825160e-05,-1.468139644e-03,-1.435022589e-03,-1.655115412e-04,-1.600534130e-03,-2.022403011e-03,-1.392295538e-04,-2.161632565e-03,-1.867942921e-03,-7.084215544e-05,-1.938785076e-03,-1.168604258e-03,-5.707600770e-05,-1.225680266e-03,-1.485872225e-03,7.577573846e-05,-1.410096486e-03,-1.295326994e-03,5.871895755e-06,-1.289455098e-03,-1.292812079e-03,-2.768094475e-06,-1.295580174e-03,-1.272750963e-03,-5.766895222e-05,-1.330419915e-03,-1.340138925e-03,1.736617514e-04,-1.166477173e-03,-1.559786228e-03,2.763771002e-05,-1.532148518e-03,-8.812142793e-04,-8.989318953e-05,-9.711074688e-04
-7.2,1.500454398e-05,-7.478744948e-05,-5.978290549e-05,-1.658219015e-03,-1.053423955e-04,-1.763561410e-03,-7.734608270e-05,-1.178888535e-04,-1.952349362e-04,-1.843757692e-03,9.141841687e-06,-1.834615850e-03,-1.527578878e-03,5.252769914e-07,-1.527053601e-03,-2.010189768e-03,5.792579367e-05,-1.952263974e-03,-2.028714104e-03,3.191280375e-05,-1.996801300e-03,-2.530443934e-03,2.076046255e-05,-2.509683471e-03,-2.433040599e-03,2.615093614e-05,-2.406889663e-03,-1.974084043e-03,1.157694566e-04,-1.858314587e-03,-1.348163418e-03,1.118572851e-04,-1.236306133e-03,-7.519438761e-04,-3.412437715e-06,-7.553563138e-04,-1.032415842e-03,-2.333707814e-04,-1.265786623e-03,-1.169044835e-03,-1.098393519e-04,-1.278884187e-03,-1.110028847e-03,-1.051108647e-04,-1.215139712e-03,-1.152292555e-03,1.018990036e-05,-1.142102655e-03,-1.238942180e-03,3.614742646e-05,-1.202794754e-03,-8.275479859e-04,-3.115143431e-05,-8.586994202e-04,-9.006200605e-04,3.267402445e-05,-8.679460360e-04,-2.002854410e-03,8.689310423e-07,-2.001985479e-03,-1.600446890e-03,-8.621962273e-06,-1.609068852e-03,-2.816961245e-03,-3.053250525e-04,-3.122286297e-03,-8.497956135e-04,-3.154211985e-05,-8.813377334e-04,-1.241383983e-03,-1.283829882e-04,-1.369766971e-03,-1.520577080e-03,6.946610335e-05,-1.451110977e-03,-1.444791268e-03,-1.664126479e-04,-1.611203916e-03,-2.020360911e-03,-1.300362455e-04,-2.150397156e-03,-1.878418649e-03,-8.315589040e-05,-1.961574539e-03,-1.191526062e-03,-5.417933953e-05,-1.245705402e-03,-1.467095646e-03,7.691231915e-05,-1.390183326e-03,-1.316633839e-03,7.037833515e-06,-1.309596006e-03,-1.307824725e-03,6.295871775e-06,-1.301528853e-03,-1.292799052e-03,-5.482189693e-05,-1.347620949e-03,-1.359428480e-03,1.811248460e-04,-1.178303634e-03,-1.596576603e-03,2.987069390e-05,-1.566705909e-03,-8.924734033e-04,-8.050589915e-05,-9.729793024e-04
-7.1,5.694558527e-05,-6.064698047e-05,-3.701395205e-06,-1.557474116e-03,-8.880083443e-05,-1.646274951e-03,-5.662558440e-05,-1.147959369e-04,-1.714215213e-04,-1.758166205e-03,1.070061381e-05,-1.747465591e-03,-1.482845474e-03,2.733199479e-06,-1.480112275e-03,-1.918015936e-03,6.332483069e-05,-1.854691106e-03,-1.972737569e-03,3.526798033e-05,-1.937469588e-03,-2.450498869e-03,3.008569835e-05,-2.420413170e-03,-2.380478458e-03,3.320078817e-05,-2.347277670e-03,-1.907731360e-03,1.188822959e-04,-1.788849064e-03,-1.228046845e-03,1.129395864e-04,-1.115107258e-03,-7.591065026e-04,-1.178282008e-06,-7.602847846e-04,-1.034633350e-03,-2.422897351e-04,-1.276923085e-03,-1.171531334e-03,-1.116128589e-04,-1.283144193e-03,-1.132685204e-03,-1.046529219e-04,-1.237338126e-03,-1.170811327e-03,1.260536318e-05,-1.158205963e-03,-1.248789808e-03,3.551329658e-05,-1.213276512e-03,-8.293615912e-04,-2.417374652e-05,-8.535353377e-04,-9.133496129e-04,3.774924213e-05,-8.756003708e-04,-1.951799308e-03,3.778593903e-06,-1.948020714e-03,-1.483646532e-03,-1.015803167e-05,-1.493804564e-03,-2.719513745e-03,-3.010993483e-04,-3.020613094e-03,-7.582202844e-04,-2.810781350e-05,-7.863280979e-04,-1.186613192e-03,-1.302870991e-04,-1.316900291e-03,-1.494590201e-03,6.650517183e-05,-1.428085029e-03,-1.447901760e-03,-1.665503426e-04,-1.614452102e-03,-2.009716920e-03,-1.216799402e-04,-2.131396860e-03,-1.881732776e-03,-9.543755087e-05,-1.977170327e-03,-1.209482482e-03,-5.100853971e-05,-1.260491022e-03,-1.442880789e-03,7.760987210e-05,-1.365270917e-03,-1.332034453e-03,7.998855310e-06,-1.324035598e-03,-1.317321436e-03,1.546838220e-05,-1.301853054e-03,-1.307865814e-03,-5.182543761e-05,-1.359691252e-03,-1.372390139e-03,1.869820273e-04,-1.185408111e-03,-1.626660991e-03,3.177702019e-05,-1.594883971e-03,-9.011262850e-04,-6.974197761e-05,-9.708682626e-04
-7,9.717727803e-05,-4.687478390e-05,5.030249413e-05,-1.452727949e-03,-7.181502970e-05,-1.524542978e-03,-3.473287886e-05,-1.112468596e-04,-1.459797385e-04,-1.667641584e-03,1.255560625e-05,-1.655085977e-03,-1.434434894e-03,4.975446863e-06,-1.429459447e-03,-1.821383384e-03,6.847361541e-05,-1.752909769e-03,-1.912174457e-03,3.852002459e-05,-1.873654432e-03,-2.364654740e-03,3.910595858e-05,-2.325548782e-03,-2.322292060e-03,4.024276573e-05,-2.282049294e-03,-1.837092798e-03,1.216789354e-04,-1.715413862e-03,-1.109035628e-03,1.135427120e-04,-9.954929158e-04,-7.626793210e-04,1.278614696e-06,-7.614007063e-04,-1.034422640e-03,-2.498314778e-04,-1.284254117e-03,-1.169538705e-03,-1.128522145e-04,-1.282390920e-03,-1.150939863e-03,-1.038999381e-04,-1.254839801e-03,-1.184907433e-03,1.540788548e-05,-1.169499547e-03,-1.254485557e-03,3.484449284e-05,-1.219641064e-03,-8.282194868e-04,-1.683079452e-05,-8.450502813e-04,-9.234606660e-04,4.268015930e-05,-8.807805067e-04,-1.895402273e-03,6.789624836e-06,-1.888612648e-03,-1.366801306e-03,-1.169846500e-05,-1.378499771e-03,-2.615324081e-03,-2.956416468e-04,-2.910965728e-03,-6.655651565e-04,-2.481250286e-05,-6.903776593e-04,-1.128223705e-03,-1.315293630e-04,-1.259753068e-03,-1.462734787e-03,6.343339428e-05,-1.399301393e-03,-1.444480816e-03,-1.659373858e-04,-1.610418201e-03,-1.990677268e-03,-1.142095695e-04,-2.104886837e-03,-1.877896108e-03,-1.075739974e-04,-1.985470105e-03,-1.222436195e-03,-4.760980637e-05,-1.270046001e-03,-1.413405976e-03,7.783195546e-05,-1.335574020e-03,-1.341532369e-03,8.732585742e-06,-1.332799783e-03,-1.321305028e-03,2.463918243e-05,-1.296665846e-03,-1.317863503e-03,-4.872169866e-05,-1.366585202e-03,-1.378955721e-03,1.910923422e-04,-1.187863379e-03,-1.649855242e-03,3.327502502e-05,-1.616580217e-03,-9.072271322e-04,-5.773234995e-05,-9.649594821e-04
-6.9,1.356219041e-04,-3.348461871e-05,1.021372854e-04,-1.344524777e-03,-5.446343498e-05,-1.398988212e-03,-1.193276549e-05,-1.072464973e-04,-1.191792628e-04,-1.572657808e-03,1.467831306e-05,-1.557979495e-03,-1.382647392e-03,7.234799534e-06,-1.375412592e-03,-1.720791802e-03,7.333902375e-05,-1.647452778e-03,-1.847365392e-03,4.164356815e-05,-1.805721824e-03,-2.273462166e-03,4.777441555e-05,-2.225687750e-03,-2.258896355e-03,4.723989512e-05,-2.211656460e-03,-1.762700510e-03,1.241513777e-04,-1.638549132e-03,-9.917895547e-04,1.136807467e-04,-8.781088080e-04,-7.628629727e-04,3.942879527e-06,-7.589200932e-04,-1.032252139e-03,-2.558779682e-04,-1.288130107e-03,-1.163182926e-03,-1.135712625e-04,-1.276754189e-03,-1.164746242e-03,-1.028754659e-04,-1.267621708e-03,-1.194541871e-03,1.859671845e-05,-1.175945152e-03,-1.255951064e-03,3.413197694e-05,-1.221819087e-03,-8.241904866e-04,-9.176442033e-06,-8.333669287e-04,-9.308672943e-04,4.741598164e-05,-8.834513126e-04,-1.834080827e-03,9.887399479e-06,-1.824193427e-03,-1.250495132e-03,-1.323967152e-05,-1.263734803e-03,-2.505009556e-03,-2.889816920e-04,-2.793991248e-03,-5.723239588e-04,-2.166620659e-05,-5.939901654e-04,-1.066639498e-03,-1.321096650e-04,-1.198749163e-03,-1.425347726e-03,6.032114447e-05,-1.365026581e-03,-1.434693369e-03,-1.645917631e-04,-1.599285133e-03,-1.963486692e-03,-1.076615928e-04,-2.071148284e-03,-1.866959642e-03,-1.194509600e-04,-1.986410602e-03,-1.230365008e-03,-4.402959117e-05,-1.274394599e-03,-1.378859061e-03,7.754682023e-05,-1.301312240e-03,-1.345156387e-03,9.224184942e-06,-1.335932202e-03,-1.319797152e-03,3.370073511e-05,-1.286096417e-03,-1.322717170e-03,-4.555368614e-05,-1.368270856e-03,-1.379104431e-03,1.933478205e-04,-1.185756611e-03,-1.666010834e-03,3.429980103e-05,-1.631711033e-03,-9.108151838e-04,-4.463411144e-05,-9.554492952e-04
-6.8,1.722109455e-04,-2.048945925e-05,1.517214862e-04,-1.233410795e-03,-3.682817478e-05,-1.270238970e-03,1.150083699e-05,-1.028056919e-04,-9.130485486e-05,-1.473698920e-03,1.703739072e-05,-1.456661529e-03,-1.327779404e-03,9.494734893e-06,-1.318284670e-03,-1.616736739e-03,7.789091335e-05,-1.538845825e-03,-1.778636293e-03,4.461602609e-05,-1.734020267e-03,-2.177452510e-03,5.604513183e-05,-2.121407378e-03,-2.190687745e-03,5.415568993e-05,-2.136532055e-03,-1.685056260e-03,1.262928632e-04,-1.558763396e-03,-8.768953580e-04,1.133710827e-04,-7.635242753e-04,-7.598582048e-04,6.799026939e-06,-7.530591779e-04,-1.028563691e-03,-2.603097605e-04,-1.288873452e-03,-1.152574311e-03,-1.137849964e-04,-1.266359307e-03,-1.174059181e-03,-1.016013521e-04,-1.275660533e-03,-1.199682550e-03,2.216521966e-05,-1.177517331e-03,-1.253119335e-03,3.336734422e-05,-1.219751991e-03,-8.173541497e-04,-1.265508072e-06,-8.186196578e-04,-9.354849327e-04,5.190792496e-05,-8.835770077e-04,-1.768239718e-03,1.305648599e-05,-1.755183232e-03,-1.135249668e-03,-1.477635269e-05,-1.150026021e-03,-2.389175169e-03,-2.811568931e-04,-2.670332062e-03,-4.789588717e-04,-1.867648541e-05,-4.976353571e-04,-1.002274094e-03,-1.320333754e-04,-1.134307469e-03,-1.382767685e-03,5.722939330e-05,-1.325538292e-03,-1.418722554e-03,-1.625354419e-04,-1.581257996e-03,-1.928412847e-03,-1.020591700e-04,-2.030472017e-03,-1.849002130e-03,-1.309543091e-04,-1.979956439e-03,-1.233255679e-03,-4.031331976e-05,-1.273568999e-03,-1.339429098e-03,7.672875029e-05,-1.262700348e-03,-1.342954365e-03,9.466887839e-06,-1.333487477e-03,-1.312832955e-03,4.255053238e-05,-1.270282423e-03,-1.322358752e-03,-4.236404947e-05,-1.364722802e-03,-1.372852418e-03,1.936722694e-04,-1.179180149e-03,-1.675010525e-03,3.480399552e-05,-1.640206529e-03,-9.119068643e-04,-3.062603158e-05,-9.425328959e-04
-6.7,2.068887055e-04,-7.901269346e-06,1.989874362e-04,-1.119926225e-03,-1.899409548e-05,-1.138920321e-03,3.529384196e-05,-9.794088995e-05,-6.264704799e-05,-1.371249648e-03,1.959899382e-05,-1.351650654e-03,-1.270114784e-03,1.173957744e-05,-1.258375207e-03,-1.509700569e-03,8.210229716e-05,-1.427598272e-03,-1.706288320e-03,4.741769327e-05,-1.658870627e-03,-2.077128112e-03,6.387297041e-05,-2.013255142e-03,-2.118034614e-03,6.095416696e-05,-2.057080447e-03,-1.604621327e-03,1.280974701e-04,-1.476523857e-03,-7.648576561e-04,1.126340088e-04,-6.522236473e-04,-7.538563303e-04,9.831687088e-06,-7.440246432e-04,-1.023752834e-03,-2.630077425e-04,-1.286760576e-03,-1.137810347e-03,-1.135087369e-04,-1.251319084e-03,-1.178830527e-03,-1.000962327e-04,-1.278926760e-03,-1.200296067e-03,2.610042280e-05,-1.174195645e-03,-1.245928306e-03,3.254292929e-05,-1.213385377e-03,-8.077914254e-04,6.846320584e-06,-8.009451048e-04,-9.372251579e-04,5.610919003e-05,-8.811159679e-04,-1.698262169e-03,1.628042069e-05,-1.681981748e-03,-1.021516240e-03,-1.630159332e-05,-1.037817834e-03,-2.268404322e-03,-2.722117498e-04,-2.540616072e-03,-3.858938870e-04,-1.584835183e-05,-4.017422388e-04,-9.355232557e-04,-1.313111793e-04,-1.066834435e-03,-1.335321551e-03,5.420854582e-05,-1.281113005e-03,-1.396755414e-03,-1.597932510e-04,-1.556548664e-03,-1.885735031e-03,-9.741031784e-05,-1.983145349e-03,-1.824120230e-03,-1.419714399e-04,-1.966091670e-03,-1.231101027e-03,-3.650431005e-05,-1.267605337e-03,-1.295301953e-03,7.535931342e-05,-1.219942639e-03,-1.334989492e-03,9.462222347e-06,-1.325527270e-03,-1.300458103e-03,5.109346736e-05,-1.249364635e-03,-1.316723609e-03,-3.919418080e-05,-1.355917790e-03,-1.360246079e-03,1.920201235e-04,-1.168225956e-03,-1.676765538e-03,3.475765319e-05,-1.642007885e-03,-9.104904785e-04,-1.590359676e-05,-9.263940753e-04
-6.6,2.396147189e-04,4.269131417e-06,2.438838503e-04,-1.004598995e-03,-1.047689144e-06,-1.005646684e-03,5.917822280e-05,-9.267375428e-05,-3.349553149e-05,-1.265788919e-03,2.232704359e-05,-1.243461876e-03,-1.209919882e-03,1.395450747e-05,-1.195965374e-03,-1.400147131e-03,8.594946955e-05,-1.314197661e-03,-1.630594128e-03,5.003169729e-05,-1.580562430e-03,-1.972957639e-03,7.121402716e-05,-1.901743611e-03,-2.041272603e-03,6.759988780e-05,-1.973672715e-03,-1.521810753e-03,1.295598840e-04,-1.392250869e-03,-6.560936619e-04,1.114923383e-04,-5.446013236e-04,-7.450358467e-04,1.302527099e-05,-7.320105757e-04,-1.018156720e-03,-2.638558976e-04,-1.282012617e-03,-1.118976609e-03,-1.127578907e-04,-1.231734499e-03,-1.179010616e-03,-9.837471770e-05,-1.277385333e-03,-1.196344546e-03,3.038232461e-05,-1.165962222e-03,-1.234318405e-03,3.165165168e-05,-1.202666754e-03,-7.955780300e-04,1.510219364e-05,-7.804758363e-04,-9.359927164e-04,5.997506858e-05,-8.760176479e-04,-1.624505471e-03,1.954153347e-05,-1.604963937e-03,-9.096726826e-04,-1.780699438e-05,-9.274796770e-04,-2.143253236e-03,-2.621974997e-04,-2.405450736e-03,-2.935117046e-04,-1.318427947e-05,-3.066959840e-04,-8.667615267e-04,-1.299588219e-04,-9.967203486e-04,-1.283318165e-03,5.129803324e-05,-1.232020132e-03,-1.368978226e-03,-1.563921900e-04,-1.525370416e-03,-1.835738866e-03,-9.370641311e-05,-1.929445280e-03,-1.792425097e-03,-1.523922277e-04,-1.944817325e-03,-1.223901015e-03,-3.264307079e-05,-1.256544086e-03,-1.246661164e-03,7.342867565e-05,-1.173232488e-03,-1.321340222e-03,9.219920853e-06,-1.312120301e-03,-1.282728865e-03,5.924386333e-05,-1.223485002e-03,-1.305751175e-03,-3.608337863e-05,-1.341834554e-03,-1.341361612e-03,1.883765574e-04,-1.152985055e-03,-1.671215647e-03,3.414718813e-05,-1.637068459e-03,-9.065255461e-04,-6.735832213e-07,-9.071991293e-04
-6.5,2.703646339e-04,1.601213105e-05,2.863767649e-04,-8.879404420e-04,1.692397313e-05,-8.710164688e-04,8.289508893e-05,-8.703072393e-05,-4.135635003e-06,-1.157786715e-03,2.518346850e-05,-1.132603247e-03,-1.147442993e-03,1.612548909e-05,-1.131317503e-03,-1.288520339e-03,8.941211826e-05,-1.199108221e-03,-1.551800542e-03,5.244386017e-05,-1.499356682e-03,-1.865376589e-03,7.802647506e-05,-1.787350114e-03,-1.960704900e-03,7.405801705e-05,-1.886646883e-03,-1.436992409e-03,1.306752803e-04,-1.306317129e-03,-5.509324909e-04,1.099710493e-04,-4.409614416e-04,-7.335644739e-04,1.636308485e-05,-7.172013890e-04,-1.012049556e-03,-2.627460985e-04,-1.274795654e-03,-1.096154485e-03,-1.115482232e-04,-1.207702708e-03,-1.174554923e-03,-9.644742994e-05,-1.271002353e-03,-1.187788243e-03,3.498321028e-05,-1.152805032e-03,-1.218234831e-03,3.068678634e-05,-1.187548045e-03,-7.807817936e-04,2.344342860e-05,-7.573383650e-04,-9.316859487e-04,6.346327301e-05,-8.682226757e-04,-1.547301141e-03,2.282084287e-05,-1.524480299e-03,-8.000253104e-04,-1.928293282e-05,-8.193082432e-04,-2.014249087e-03,-2.511722001e-04,-2.265421287e-03,-2.021543602e-04,-1.068429851e-05,-2.128386587e-04,-7.963422826e-04,-1.279968037e-04,-9.243390863e-04,-1.227049792e-03,4.852660276e-05,-1.178523189e-03,-1.335580988e-03,-1.523613317e-04,-1.487942320e-03,-1.778716894e-03,-9.092138617e-05,-1.869638281e-03,-1.754046224e-03,-1.621093097e-04,-1.916155533e-03,-1.211667260e-03,-2.876702652e-05,-1.240434287e-03,-1.193693563e-03,7.093689680e-05,-1.122756666e-03,-1.302103579e-03,8.757529822e-06,-1.293346049e-03,-1.259714887e-03,6.692685867e-05,-1.192788029e-03,-1.289389780e-03,-3.306783496e-05,-1.322457615e-03,-1.316310876e-03,1.827588680e-04,-1.133552008e-03,-1.658331929e-03,3.297340381e-05,-1.625358525e-03,-8.999472913e-04,1.485165972e-05,-8.850956316e-04
-6.4,2.991297060e-04,2.731938144e-05,3.264490874e-04,-7.704429735e-04,3.483417664e-05,-7.356087969e-04,1.061950463e-04,-8.104249931e-05,2.515254698e-05,-1.047703877e-03,2.812846870e-05,-1.019575408e-03,-1.082917552e-03,1.823918029e-05,-1.064678372e-03,-1.175246152e-03,9.247337759e-05,-1.082772774e-03,-1.470136220e-03,5.464249516e-05,-1.415493725e-03,-1.754791916e-03,8.427163239e-05,-1.670520284e-03,-1.876606648e-03,8.029438063e-05,-1.796312267e-03,-1.350490289e-03,1.314392479e-04,-1.219051041e-03,-4.496188915e-04,1.080968944e-04,-3.415219971e-04,-7.196047819e-04,1.982612722e-05,-6.997786547e-04,-1.005644569e-03,-2.595844163e-04,-1.265228985e-03,-1.069433048e-03,-1.098964941e-04,-1.179329542e-03,-1.165434111e-03,-9.432163135e-05,-1.259755743e-03,-1.174593142e-03,3.986725232e-05,-1.134725890e-03,-1.197633944e-03,2.964182627e-05,-1.167992118e-03,-7.634640848e-04,3.180879748e-05,-7.316552873e-04,-9.242007079e-04,6.653446869e-05,-8.576662392e-04,-1.466958741e-03,2.609804926e-05,-1.440860692e-03,-6.928151184e-04,-2.071892335e-05,-7.135340417e-04,-1.881891244e-03,-2.392011130e-04,-2.121092357e-03,-1.121269605e-04,-8.346147265e-06,-1.204731078e-04,-7.246002170e-04,-1.254500759e-04,-8.500502929e-04,-1.166799671e-03,4.591312670e-05,-1.120886544e-03,-1.296768424e-03,-1.477321666e-04,-1.444500591e-03,-1.714974718e-03,-8.901099763e-05,-1.803985716e-03,-1.709140317e-03,-1.710183214e-04,-1.880158638e-03,-1.194429806e-03,-2.491051948e-05,-1.219340325e-03,-1.136597701e-03,6.789495861e-05,-1.068702742e-03,-1.277400595e-03,8.099672604e-06,-1.269300923e-03,-1.231503960e-03,7.407919963e-05,-1.157424760e-03,-1.267604525e-03,-3.017958621e-05,-1.297784111e-03,-1.285252279e-03,1.752185347e-04,-1.110033744e-03,-1.638121580e-03,3.124911940e-05,-1.606872460e-03,-8.906758289e-04,3.046005439e-05,-8.602157745e-04
-6.3,3.259152553e-04,3.818391642e-05,3.640991718e-04,-6.525793502e-04,5.259729799e-05,-5.999820522e-04,1.288367786e-04,-7.474345998e-05,5.409331861e-05,-9.359939356e-04,3.112083349e-05,-9.048731021e-04,-1.016567762e-03,2.028285295e-05,-9.962849088e-04,-1.060736608e-03,9.511975404e-05,-9.656168536e-04,-1.385822030e-03,5.661815269e-05,-1.329203878e-03,-1.641589027e-03,8.991505013e-05,-1.551673977e-03,-1.789231856e-03,8.627554101e-05,-1.702956315e-03,-1.262590665e-03,1.318477541e-04,-1.130742911e-03,-3.523204159e-04,1.058979824e-04,-2.464224335e-04,-7.033212053e-04,2.339180197e-05,-6.799294033e-04,-9.991001270e-04,-2.542981363e-04,-1.253398263e-03,-1.038921931e-03,-1.078211642e-04,-1.146743095e-03,-1.151645142e-03,-9.200212751e-05,-1.243647269e-03,-1.156741627e-03,4.499039103e-05,-1.111751236e-03,-1.172492022e-03,2.851033276e-05,-1.143981689e-03,-7.436842175e-04,4.013395308e-05,-7.035502644e-04,-9.134369450e-04,6.915291151e-05,-8.442840335e-04,-1.383771763e-03,2.935160941e-05,-1.354420154e-03,-5.882266425e-04,-2.210396173e-05,-6.103306043e-04,-1.746654574e-03,-2.263570468e-04,-1.973011621e-03,-2.370337729e-05,-6.165465761e-06,-2.986884305e-05,-6.518548223e-04,-1.223478071e-04,-7.742026294e-04,-1.102852883e-03,4.346768838e-05,-1.059385195e-03,-1.252774214e-03,-1.425390106e-04,-1.395313224e-03,-1.644841209e-03,-8.791194646e-05,-1.732753156e-03,-1.657901879e-03,-1.790187947e-04,-1.836920674e-03,-1.172244734e-03,-2.110482555e-05,-1.193349560e-03,-1.075592518e-03,6.432531101e-05,-1.011267207e-03,-1.247382191e-03,7.276940679e-06,-1.240105250e-03,-1.198207783e-03,8.064962267e-05,-1.117558161e-03,-1.240386710e-03,-2.744563763e-05,-1.267832347e-03,-1.248404175e-03,1.658434356e-04,-1.082560740e-03,-1.610634349e-03,2.899756334e-05,-1.581636786e-03,-8.786285820e-04,4.594569565e-05,-8.326828863e-04
-6.2,3.507385331e-04,4.860038253e-05,3.993389156e-04,-5.348030982e-04,7.012938278e-05,-4.646737155e-04,1.505851058e-04,-6.817103778e-05,8.241406798e-05,-8.231056930e-04,3.411832065e-05,-7.889873723e-04,-9.486148546e-04,2.224433355e-05,-9.263705211e-04,-9.453943892e-04,9.734094492e-05,-8.480534443e-04,-1.299081359e-03,5.836335468e-05,-1.240718005e-03,-1.526139084e-03,9.492747454e-05,-1.431211610e-03,-1.698820816e-03,9.196892158e-05,-1.606851894e-03,-1.173549324e-03,1.318971724e-04,-1.041652152e-03,-2.591365191e-04,1.034033653e-04,-1.557331538e-04,-6.848860496e-04,2.703266382e-05,-6.578533857e-04,-9.925266727e-04,-2.468424198e-04,-1.239369093e-03,-1.004761920e-03,-1.053428316e-04,-1.110104752e-03,-1.133220827e-03,-8.949232886e-05,-1.222713156e-03,-1.134243563e-03,5.030046988e-05,-1.083943093e-03,-1.142814012e-03,2.728559145e-05,-1.115528420e-03,-7.215048856e-04,4.835096182e-05,-6.731539238e-04,-8.993065071e-04,7.128707896e-05,-8.280194281e-04,-1.298023686e-03,3.255881682e-05,-1.265464869e-03,-4.863975526e-04,-2.342677652e-05,-5.098243292e-04,-1.608993418e-03,-2.127203527e-04,-1.821713771e-03,6.286756550e-05,-4.136033737e-06,5.873153176e-05,-5.784133110e-04,-1.187232744e-04,-6.971365853e-04,-1.035507332e-03,4.119274269e-05,-9.943145891e-04,-1.203874668e-03,-1.368191208e-04,-1.340693789e-03,-1.568679294e-03,-8.754142536e-05,-1.656220720e-03,-1.600572481e-03,-1.860159083e-04,-1.786588390e-03,-1.145200904e-03,-1.737797305e-05,-1.162578877e-03,-1.010923719e-03,6.026183904e-05,-9.506618797e-04,-1.212233666e-03,6.324416190e-06,-1.205909250e-03,-1.159967108e-03,8.659882028e-05,-1.073368287e-03,-1.207763036e-03,-2.488726343e-05,-1.232650300e-03,-1.206056815e-03,1.547595864e-04,-1.051297229e-03,-1.575969510e-03,2.625207787e-05,-1.549717432e-03,-8.637330678e-04,6.111426886e-05,-8.026187990e-04
-6.1,3.736265659e-04,5.856541177e-05,4.321919776e-04,-4.175493854e-04,8.734866702e-05,-3.302007184e-04,1.712099731e-04,-6.136505125e-05,1.098449219e-04,-7.094850438e-04,3.707811024e-05,-6.724069336e-04,-8.792819614e-04,2.411199659e-05,-8.551699648e-04,-8.296160943e-04,9.912965542e-05,-7.304864389e-04,-1.210147341e-03,5.987238145e-05,-1.150274959e-03,-1.408804483e-03,9.928566774e-05,-1.309518816e-03,-1.605605755e-03,9.734298107e-05,-1.508262774e-03,-1.083597781e-03,1.315843340e-04,-9.520134473e-04,-1.701077457e-04,1.006426389e-04,-6.946510681e-05,-6.644819484e-04,3.071533098e-05,-6.337666174e-04,-9.859910063e-04,-2.372052811e-04,-1.223196287e-03,-9.671299184e-04,-1.024841315e-04,-1.069614050e-03,-1.110235131e-03,-8.679529759e-05,-1.197030429e-03,-1.107144882e-03,5.573768594e-05,-1.051407196e-03,-1.108640044e-03,2.596019805e-05,-1.082679846e-03,-6.969965433e-04,5.638811072e-05,-6.406084325e-04,-8.817403928e-04,7.291020039e-05,-8.088301924e-04,-1.209992212e-03,3.569583798e-05,-1.174296374e-03,-3.874267882e-04,-2.467603208e-05,-4.121028203e-04,-1.469344462e-03,-1.983784744e-04,-1.667722937e-03,1.473570902e-04,-2.250044525e-06,1.451070457e-04,-5.045715058e-04,-1.146138439e-04,-6.191853497e-04,-9.650816235e-04,3.908433511e-05,-9.259972884e-04,-1.150397593e-03,-1.306123322e-04,-1.281009925e-03,-1.486892990e-03,-8.779787434e-05,-1.574690864e-03,-1.537446163e-03,-1.919228152e-04,-1.729368978e-03,-1.113423765e-03,-1.375429482e-05,-1.127178060e-03,-9.428657889e-04,5.574935886e-05,-8.871164300e-04,-1.172176036e-03,5.279945892e-06,-1.166896090e-03,-1.116954131e-03,9.189883900e-05,-1.025055292e-03,-1.169802337e-03,-2.251945671e-05,-1.192321794e-03,-1.158578208e-03,1.421313368e-04,-1.016446872e-03,-1.534281009e-03,2.305654839e-05,-1.511224460e-03,-8.459365827e-04,7.578710940e-05,-7.701494733e-04
-6,3.946146893e-04,6.807812580e-05,4.626928151e-04,-3.012354277e-04,1.041760661e-04,-1.970593616e-04,1.904877701e-04,-5.436697941e-05,1.361207907e-04,-5.955745067e-04,3.995735529e-05,-5.556171514e-04,-8.087956038e-04,2.587485522e-05,-7.829207486e-04,-7.137924241e-04,1.004814560e-04,-6.133109681e-04,-1.119264299e-03,6.114115165e-05,-1.058123148e-03,-1.289940629e-03,1.029731472e-04,-1.186967481e-03,-1.509812807e-03,1.023673986e-04,-1.407445408e-03,-9.929465912e-04,1.309065288e-04,-8.620400624e-04,-8.522320535e-05,9.764552590e-05,1.242232055e-05,-6.422985904e-04,3.439980302e-05,-6.078987874e-04,-9.795152139e-04,-2.254099884e-04,-1.204925202e-03,-9.262359266e-04,-9.926899521e-05,-1.025504922e-03,-1.082802249e-03,-8.391440716e-05,-1.166716656e-03,-1.075530821e-03,6.123548350e-05,-1.014295337e-03,-1.070047867e-03,2.452590380e-05,-1.045521963e-03,-6.702392229e-04,6.417033805e-05,-6.060688849e-04,-8.606938116e-04,7.400075371e-05,-7.866930579e-04,-1.119950099e-03,3.873776703e-05,-1.081212332e-03,-2.913793439e-04,-2.584054087e-05,-3.172198847e-04,-1.328126938e-03,-1.834251096e-04,-1.511552047e-03,2.295540520e-04,-4.983788355e-07,2.290556732e-04,-4.306118702e-04,-1.100608815e-04,-5.406727517e-04,-8.919168627e-04,3.713347063e-05,-8.547833920e-04,-1.092722114e-03,-1.239601327e-04,-1.216682247e-03,-1.399927738e-03,-8.856284182e-05,-1.488490580e-03,-1.468868680e-03,-1.966630820e-04,-1.665531762e-03,-1.077074547e-03,-1.025376106e-05,-1.087328308e-03,-8.717187621e-04,5.084295826e-05,-8.208758038e-04,-1.127463103e-03,4.182475544e-06,-1.123280628e-03,-1.069370530e-03,9.653184553e-05,-9.728386846e-04,-1.126617583e-03,-2.035060046e-05,-1.146968183e-03,-1.106410122e-03,1.281589295e-04,-9.782511925e-04,-1.485778179e-03,1.946565899e-05,-1.466312520e-03,-8.252104396e-04,8.980366760e-05,-7.354067720e-04
-5.9,4.137463288e-04,7.714070013e-05,4.908870289e-04,-1.862596033e-04,1.205355646e-04,-6.572403873e-05,2.082056756e-04,-4.721914759e-05,1.609865280e-04,-4.818095908e-04,4.271382598e-05,-4.390957648e-04,-7.373828579e-04,2.752274762e-05,-7.098601103e-04,-5.983043505e-04,1.013945993e-04,-4.969097512e-04,-1.026682544e-03,6.216716518e-05,-9.645153786e-04,-1.169893220e-03,1.059808470e-04,-1.063912373e-03,-1.411659751e-03,1.070132333e-04,-1.304646518e-03,-9.017850738e-04,1.298614462e-04,-7.719236276e-04,-4.425344167e-06,9.444143620e-05,9.001609204e-05,-6.185234860e-04,3.803941543e-05,-5.804840706e-04,-9.730701788e-04,-2.115145712e-04,-1.184584750e-03,-8.823125829e-04,-9.572143507e-05,-9.780340179e-04,-1.051069620e-03,-8.085335716e-05,-1.131922977e-03,-1.039522487e-03,6.672195426e-05,-9.728005324e-04,-1.027150219e-03,2.297380919e-05,-1.004176410e-03,-6.413213075e-04,7.162032373e-05,-5.697009837e-04,-8.361480644e-04,7.454309092e-05,-7.616049735e-04,-1.028162519e-03,4.165884693e-05,-9.865036717e-04,-1.982872836e-04,-2.690945428e-05,-2.251967378e-04,-1.185739848e-03,-1.679590763e-04,-1.353698924e-03,3.092653196e-04,1.129168184e-06,3.103944878e-04,-3.567993100e-04,-1.051094021e-04,-4.619087120e-04,-8.163707717e-04,3.532752604e-05,-7.810432456e-04,-1.031267646e-03,-1.169042107e-04,-1.148171857e-03,-1.308264098e-03,-8.970301700e-05,-1.397967115e-03,-1.395229354e-03,-2.001729705e-04,-1.595402324e-03,-1.036345015e-03,-6.891254767e-06,-1.043236269e-03,-7.978010556e-04,4.560747204e-05,-7.521935836e-04,-1.078374741e-03,3.070728966e-06,-1.075304012e-03,-1.017441452e-03,1.004885036e-04,-9.169529482e-04,-1.078362534e-03,-1.838237420e-05,-1.096744908e-03,-1.050053018e-03,1.130729875e-04,-9.369800306e-04,-1.430720803e-03,1.554446585e-05,-1.415176337e-03,-8.015488141e-04,1.030229935e-04,-6.985258206e-04
-5.8,4.310739510e-04,8.575883793e-05,5.168327889e-04,-7.299922515e-05,1.363544621e-04,6.335523699e-05,2.241682708e-04,-3.996384607e-05,1.842044247e-04,-3.686126674e-04,4.530658752e-05,-3.233060799e-04,-6.652652135e-04,2.904654183e-05,-6.362186717e-04,-4.835162951e-04,1.018697358e-04,-3.816465592e-04,-9.326488143e-04,6.294942858e-05,-8.696993857e-04,-1.048992264e-03,1.083075274e-04,-9.406847367e-04,-1.311351139e-03,1.112530659e-04,-1.200098073e-03,-8.102786789e-04,1.284471437e-04,-6.818315352e-04,7.238750731e-05,9.105904004e-05,1.634465474e-04,-5.933297731e-04,4.158146668e-05,-5.517483064e-04,-9.665669341e-04,-1.956088989e-04,-1.162175833e-03,-8.356014793e-04,-9.186428409e-05,-9.274657634e-04,-1.015207794e-03,-7.761570991e-05,-1.092823504e-03,-9.992683913e-04,7.212154519e-05,-9.271468461e-04,-9.800882240e-04,2.129468606e-05,-9.587935380e-04,-6.103359121e-04,7.865980044e-05,-5.316761116e-04,-8.081094738e-04,7.452807135e-05,-7.335814025e-04,-9.348826820e-04,4.443294556e-05,-8.904497364e-04,-1.081486268e-04,-2.787236870e-05,-1.360209955e-04,-1.042557732e-03,-1.520829499e-04,-1.194640682e-03,3.863176357e-04,2.643723426e-06,3.889613591e-04,-2.833767611e-04,-9.980738744e-05,-3.831841485e-04,-7.388059685e-04,3.365136790e-05,-7.051546006e-04,-9.664752632e-04,-1.094848073e-04,-1.075960070e-03,-1.212407544e-03,-9.107182561e-05,-1.303479370e-03,-1.316947014e-03,-2.024035963e-04,-1.519350610e-03,-9.914501441e-04,-3.676077868e-06,-9.951262220e-04,-7.214415096e-04,4.011707773e-05,-6.813244319e-04,-1.025208554e-03,1.982255428e-06,-1.023226299e-03,-9.614080072e-04,1.037665420e-04,-8.576414652e-04,-1.025224903e-03,-1.660989482e-05,-1.041834798e-03,-9.900426980e-04,9.712633339e-05,-8.929163646e-04,-1.369409851e-03,1.136713321e-05,-1.358042718e-03,-7.749645102e-04,1.153249129e-04,-6.596395973e-04
-5.7,4.466603999e-04,9.394197467e-05,5.406023745e-04,3.819219337e-05,1.515635261e-04,1.897557194e-04,2.382043714e-04,-3.264246087e-05,2.055619106e-04,-2.563864110e-04,4.769663940e-05,-2.086897716e-04,-5.926518241e-04,3.043826627e-05,-5.622135579e-04,-3.697689854e-04,1.019095935e-04,-2.678593918e-04,-8.373968841e-04,6.348831226e-05,-7.739085718e-04,-9.275456147e-04,1.099597369e-04,-8.175858778e-04,-1.209073773e-03,1.150611626e-04,-1.094012611e-03,-7.185664304e-04,1.266621341e-04,-5.919042962e-04,1.453591247e-04,8.752590231e-05,2.328850270e-04,-5.668659282e-04,4.496833766e-05,-5.218975905e-04,-9.598498685e-04,-1.778112148e-04,-1.137661083e-03,-7.863419425e-04,-8.771836722e-05,-8.740603098e-04,-9.754014106e-04,-7.420439468e-05,-1.049605805e-03,-9.549351748e-04,7.735670971e-05,-8.775784651e-04,-9.290239598e-04,1.947926758e-05,-9.095446922e-04,-5.773765908e-04,8.521074277e-05,-4.921658481e-04,-7.766067702e-04,7.395330812e-05,-7.026534620e-04,-8.403482052e-04,4.703416478e-05,-7.933140405e-04,-2.092677378e-05,-2.871937615e-05,-4.964614993e-05,-8.989273660e-04,-1.359015101e-04,-1.034828876e-03,4.605590402e-04,4.057203974e-06,4.646162441e-04,-2.105626270e-04,-9.420488117e-05,-3.047675081e-04,-6.595773372e-04,3.208798708e-05,-6.274893501e-04,-8.987886455e-04,-1.017394776e-04,-1.000528123e-03,-1.112877903e-03,-9.251113292e-05,-1.205389036e-03,-1.234454289e-03,-2.033229276e-04,-1.437777216e-03,-9.426216395e-04,-6.119895209e-07,-9.432336290e-04,-6.429736029e-04,3.445460777e-05,-6.085189952e-04,-9.682725788e-04,9.526844547e-07,-9.673198944e-04,-9.015213315e-04,1.063700129e-04,-7.951513187e-04,-9.674192224e-04,-1.502221755e-05,-9.824414400e-04,-9.269245043e-04,8.058410292e-05,-8.463404014e-04,-1.302177140e-03,7.014921567e-06,-1.295162218e-03,-7.454845688e-04,1.266110340e-04,-6.188735347e-04
-5.6,4.605796469e-04,1.017031498e-04,5.622827967e-04,1.469871222e-04,1.660971727e-04,3.130842949e-04,2.501720256e-04,-2.529469692e-05,2.248773287e-04,-1.455089128e-04,4.984750113e-05,-9.566141170e-05,-5.197347965e-04,3.169113929e-05,-4.880436572e-04,-2.573745238e-04,1.015187309e-04,-1.558557929e-04,-7.411421513e-04,6.378535086e-05,-6.773568005e-04,-8.058348426e-04,1.109513985e-04,-6.948834441e-04,-1.104995041e-03,1.184136772e-04,-9.865813640e-04,-6.267606277e-04,1.245056010e-04,-5.022550267e-04,2.146721031e-04,8.386818568e-05,2.985402888e-04,-5.392510101e-04,4.813884778e-05,-4.911121623e-04,-9.526942176e-04,-1.582661369e-04,-1.110960354e-03,-7.347659965e-04,-8.330238160e-05,-8.180683781e-04,-9.318442665e-04,-7.062153837e-05,-1.002465805e-03,-9.067016138e-04,8.234933427e-05,-8.243522796e-04,-8.741353501e-04,1.751859083e-05,-8.566167593e-04,-5.425345811e-04,9.119671274e-05,-4.513378683e-04,-7.416887818e-04,7.282287846e-05,-6.688659034e-04,-7.447798082e-04,4.943728865e-05,-6.953425195e-04,6.344749615e-05,-2.944117479e-05,3.400632135e-05,-7.551672229e-04,-1.195200309e-04,-8.746872538e-04,5.318584965e-04,5.382166281e-06,5.372406628e-04,-1.385510064e-04,-8.835306802e-05,-2.269040744e-04,-5.790233424e-04,3.061882636e-05,-5.484045161e-04,-8.286408272e-04,-9.370266206e-05,-9.223434893e-04,-1.010200866e-03,-9.385405329e-05,-1.104054919e-03,-1.148184627e-03,-2.029173979e-04,-1.351102025e-03,-8.901040502e-04,2.302085647e-06,-8.878019645e-04,-5.627330615e-04,2.870999269e-05,-5.340230688e-04,-9.078807024e-04,1.505169186e-08,-9.078656507e-04,-8.380397485e-04,1.083091684e-04,-7.297305801e-04,-9.051821691e-04,-1.360321630e-05,-9.187853854e-04,-8.612309449e-04,6.371350131e-05,-7.975174436e-04,-1.229377140e-03,2.573754645e-06,-1.226803385e-03,-7.131476577e-04,1.368051986e-04,-5.763424591e-04
-5.5,4.729163357e-04,1.090586477e-04,5.819749834e-04,2.530849759e-04,1.798937909e-04,4.329787668e-04,2.599606511e-04,-1.795793561e-05,2.420027154e-04,-3.633151435e-05,5.172576608e-05,1.539425173e-05,-4.466878335e-04,3.279953440e-05,-4.138882991e-04,-1.466148226e-04,1.007034202e-04,-4.591140235e-05,-6.440816261e-04,6.384301273e-05,-5.802386134e-04,-6.841148667e-04,1.113033174e-04,-5.728115493e-04,-9.992650365e-04,1.212888688e-04,-8.779761677e-04,-5.349497760e-04,1.219776681e-04,-4.129721080e-04,2.805422253e-04,8.011040201e-05,3.606526273e-04,-5.105762649e-04,5.102962736e-05,-4.595466376e-04,-9.448091135e-04,-1.371440500e-04,-1.081953163e-03,-6.810998601e-04,-7.863353182e-05,-7.597333919e-04,-8.847391360e-04,-6.686870427e-05,-9.516078403e-04,-8.547577394e-04,8.702206733e-05,-7.677356721e-04,-8.156147938e-04,1.540450695e-05,-8.002102868e-04,-5.058990355e-04,9.654481524e-05,-4.093542202e-04,-7.034238572e-04,7.114679989e-05,-6.322770573e-04,-6.483827987e-04,5.161788068e-05,-5.967649180e-04,1.450707978e-04,-3.002929805e-05,1.150414998e-04,-6.115702520e-04,-1.030424172e-04,-7.146126692e-04,6.001033116e-04,6.631611956e-06,6.067349236e-04,-6.751457839e-05,-8.230346678e-05,-1.498180452e-04,-4.974634969e-04,2.922406800e-05,-4.682394289e-04,-7.564490435e-04,-8.540599541e-05,-8.418550389e-04,-9.049024295e-04,-9.492915723e-05,-9.998315867e-04,-1.058564186e-03,-2.011929897e-04,-1.259757176e-03,-8.341538198e-04,5.070818740e-06,-8.290830011e-04,-4.810584264e-04,2.297749693e-05,-4.580809295e-04,-8.443510462e-04,-8.008336799e-07,-8.451518798e-04,-7.712287974e-04,1.096004067e-04,-6.616283908e-04,-8.387716644e-04,-1.233256770e-05,-8.511042321e-04,-7.934661803e-04,4.677452920e-05,-7.466916511e-04,-1.151382550e-03,-1.868384681e-06,-1.153250934e-03,-6.780038971e-04,1.458527215e-04,-5.321511756e-04
-5.4,4.837639906e-04,1.160275354e-04,5.997915260e-04,3.562116667e-04,1.928962170e-04,5.491078837e-04,2.674903533e-04,-1.066674844e-05,2.568236049e-04,7.082069227e-05,5.330160600e-05,1.241222983e-04,-3.736681678e-04,3.375891479e-05,-3.399092530e-04,-3.774326791e-05,9.947166265e-05,6.172839474e-05,-5.463985682e-04,6.366446351e-05,-4.827341047e-04,-5.626172021e-04,1.110428483e-04,-4.515743538e-04,-8.920219746e-04,1.236673054e-04,-7.683546693e-04,-4.432044825e-04,1.190796546e-04,-3.241248279e-04,3.432104048e-04,7.627519845e-05,4.194856032e-04,-4.809118097e-04,5.357643375e-05,-4.273353760e-04,-9.358468897e-04,-1.146401674e-04,-1.050487057e-03,-6.255699724e-04,-7.372873353e-05,-6.992987059e-04,-8.343013284e-04,-6.294736253e-05,-8.972486910e-04,-7.993086499e-04,9.129973915e-05,-7.080089107e-04,-7.536711709e-04,1.313026718e-05,-7.405409038e-04,-4.675600981e-04,1.011882189e-04,-3.663718792e-04,-6.619015084e-04,6.894064386e-05,-5.929608645e-04,-5.513510240e-04,5.355216763e-05,-4.977988563e-04,2.240592068e-04,-3.047638856e-05,1.935828183e-04,-4.684093601e-04,-8.656920931e-05,-5.549785694e-04,6.651947142e-04,7.818761755e-06,6.730134759e-04,2.390544391e-06,-7.610718823e-05,-7.371664384e-05,-4.152014888e-04,2.788292621e-05,-3.873185626e-04,-6.826165550e-04,-7.687910497e-05,-7.594956600e-04,-7.975058435e-04,-9.556555653e-05,-8.930714000e-04,-9.660085846e-04,-1.981758229e-04,-1.164184408e-03,-7.750406639e-04,7.701100294e-06,-7.673395636e-04,-3.982934638e-04,1.735205217e-05,-3.809414116e-04,-7.780066090e-04,-1.468952639e-06,-7.794755617e-04,-7.013630284e-04,1.102657482e-04,-5.910972802e-04,-7.684692824e-04,-1.118663828e-05,-7.796559206e-04,-7.240979577e-04,3.001235641e-05,-6.940856013e-04,-1.068583243e-03,-6.224372099e-06,-1.074807615e-03,-6.401167182e-04,1.537179487e-04,-4.863987695e-04
-5.3,4.932221333e-04,1.226311326e-04,6.158532659e-04,4.561179247e-04,2.050522754e-04,6.611702001e-04,2.727091810e-04,-3.452586396e-06,2.692565946e-04,1.756464987e-04,5.454916785e-05,2.301956666e-04,-3.008207795e-04,3.456574881e-05,-2.662550307e-04,6.901132492e-05,9.783332612e-05,1.668446510e-04,-4.482698239e-04,6.325338151e-05,-3.850164424e-04,-4.415555378e-04,1.102037396e-04,-3.313517983e-04,-7.833994771e-04,1.255320546e-04,-6.578674225e-04,-3.515852279e-04,1.158143094e-04,-2.357709186e-04,4.029329395e-04,7.238318313e-05,4.753161226e-04,-4.503160040e-04,5.571548060e-05,-3.946005234e-04,-9.254183190e-04,-9.097191733e-05,-1.016390236e-03,-5.684106622e-04,-6.860595230e-05,-6.370166145e-04,-7.807641301e-04,-5.885927144e-05,-8.396234016e-04,-7.405811621e-04,9.511089073e-05,-6.454702714e-04,-6.885338300e-04,1.069093734e-05,-6.778428926e-04,-4.276136634e-04,1.050688714e-04,-3.225447920e-04,-6.172357196e-04,6.622536122e-05,-5.510103584e-04,-4.538723766e-04,5.521701993e-05,-3.986553567e-04,3.005388772e-04,-3.077640376e-05,2.697624734e-04,-3.259441966e-04,-7.019558275e-05,-3.961397794e-04,7.270424825e-04,8.956817834e-06,7.359993003e-04,7.101907717e-05,-6.981414448e-05,1.204932688e-06,-3.325317366e-04,2.657385451e-05,-3.059578821e-04,-6.075383969e-04,-6.815072516e-05,-6.756891221e-04,-6.885298985e-04,-9.559815850e-05,-7.841280570e-04,-8.709231314e-04,-1.939123353e-04,-1.064835467e-03,-7.130501109e-04,1.020095287e-05,-7.028491580e-04,-3.147901192e-04,1.192556297e-05,-3.028645562e-04,-7.091769571e-04,-1.967570282e-06,-7.111445274e-04,-6.287283821e-04,1.103317053e-04,-5.183966768e-04,-6.945841675e-04,-1.013942719e-05,-7.047235947e-04,-6.535556046e-04,1.365153337e-05,-6.399040713e-04,-9.813870066e-04,-1.041134388e-05,-9.917983505e-04,-5.995655685e-04,1.603803295e-04,-4.391852390e-04
-5.2,5.013927882e-04,1.288923968e-04,6.302851850e-04,5.525768299e-04,2.163152857e-04,7.688921155e-04,2.755895219e-04,3.656350262e-06,2.792458722e-04,2.778655983e-04,5.544683036e-05,3.333124287e-04,-2.282833260e-04,3.521742912e-05,-1.930658968e-04,1.734399692e-04,9.580036120e-05,2.692403304e-04,-3.498733345e-04,6.261388778e-05,-2.872594467e-04,-3.211317452e-04,1.088259486e-04,-2.123057966e-04,-6.735338876e-04,1.268688727e-04,-5.466650149e-04,-2.601504458e-04,1.121860182e-04,-1.479644276e-04,4.599713390e-04,6.845278892e-05,5.284241279e-04,-4.188446663e-04,5.738482701e-05,-3.614598393e-04,-9.131120022e-04,-6.637454004e-05,-9.794865422e-04,-5.098704608e-04,-6.328516575e-05,-5.731556266e-04,-7.243839054e-04,-5.460653588e-05,-7.789904413e-04,-6.788305705e-04,9.838925229e-05,-5.804413182e-04,-6.204566446e-04,8.083503200e-06,-6.123731414e-04,-3.861665353e-04,1.081401035e-04,-2.780264318e-04,-5.695686508e-04,6.302717245e-05,-5.065414784e-04,-3.561343015e-04,5.659015585e-05,-2.995441456e-04,3.746368964e-04,-3.092472738e-05,3.437121690e-04,-1.844274824e-04,-5.400956536e-05,-2.384370477e-04,7.855598776e-04,1.005872483e-05,7.956186025e-04,1.382314428e-04,-6.347223242e-05,7.475921041e-05,-2.497464498e-04,2.527474965e-05,-2.244717001e-04,-5.316071896e-04,-5.924989625e-05,-5.908570858e-04,-5.784873082e-04,-9.487249757e-05,-6.733598058e-04,-7.737042396e-04,-1.884690798e-04,-9.621733194e-04,-6.484856161e-04,1.257894146e-05,-6.359066746e-04,-2.309101883e-04,6.783948182e-06,-2.241262401e-04,-6.381994480e-04,-2.279676708e-06,-6.404791247e-04,-5.536240184e-04,1.098278115e-04,-4.437962069e-04,-6.174564493e-04,-9.163676461e-06,-6.266201258e-04,-5.822317729e-04,-2.107774705e-06,-5.843395476e-04,-8.902203179e-04,-1.435417877e-05,-9.045744967e-04,-5.564479974e-04,1.658298177e-04,-3.906181797e-04
-5.1,5.083769501e-04,1.348352743e-04,6.432122244e-04,6.453812945e-04,2.266444674e-04,8.720257618e-04,2.761250191e-04,1.063509409e-05,2.867601132e-04,3.772164129e-04,5.597733971e-05,4.331937527e-04,-1.561899414e-04,3.571224365e-05,-1.204776978e-04,2.753498514e-04,9.338698120e-05,3.687368326e-04,-2.513930775e-04,6.175058622e-05,-1.896424913e-04,-2.015401899e-04,1.069551210e-04,-9.458506883e-05,-5.625696077e-04,1.276663701e-04,-4.349032376e-04,-1.689630492e-04,1.082009096e-04,-6.076213960e-05,5.145832785e-04,6.450014948e-05,5.790834280e-04,-3.865574547e-04,5.852590320e-05,-3.280315515e-04,-8.985145060e-04,-4.109574585e-05,-9.396102519e-04,-4.502141635e-04,-5.778859821e-05,-5.080027617e-04,-6.654424086e-04,-5.019134752e-05,-7.156337561e-04,-6.143445058e-04,1.010750345e-04,-5.132694713e-04,-5.497200366e-04,5.306788412e-06,-5.444132482e-04,-3.433405981e-04,1.103687387e-04,-2.329718593e-04,-5.190732857e-04,5.937742539e-05,-4.596958604e-04,-2.583273515e-04,5.765045173e-05,-2.006768997e-04,4.464742908e-04,-3.091823942e-05,4.155560514e-04,-4.410920462e-05,-3.809057706e-05,-8.219978168e-05,8.406602887e-04,1.113694862e-05,8.517972373e-04,2.038908352e-04,-5.712664154e-05,1.467641937e-04,-1.671402784e-04,2.396341973e-05,-1.431768586e-04,-4.552151211e-04,-5.020688412e-05,-5.054220052e-04,-4.678820650e-04,-9.324886161e-05,-5.611309266e-04,-6.747395222e-04,-1.819319355e-04,-8.566714577e-04,-5.816684578e-04,1.484404996e-05,-5.668244078e-04,-1.470233708e-04,2.005014737e-06,-1.450183560e-04,-5.654184327e-04,-2.393310766e-06,-5.678117435e-04,-4.763623468e-04,1.087850965e-04,-3.675772503e-04,-5.374585648e-04,-8.231835899e-06,-5.456904007e-04,-5.104847113e-04,-1.709186477e-05,-5.275765761e-04,-7.955277728e-04,-1.798826047e-05,-8.135160333e-04,-5.108799099e-04,1.700625400e-04,-3.408173698e-04
-5,5.142715838e-04,1.404841304e-04,6.547557142e-04,7.343424595e-04,2.360051612e-04,9.703476208e-04,2.743291718e-04,1.746180756e-05,2.917909793e-04,4.734559754e-04,5.612786455e-05,5.295838400e-04,-8.467224574e-05,3.604943156e-05,-4.862281418e-05,3.745634630e-04,9.060968015e-05,4.651731431e-04,-1.530191478e-04,6.066864344e-05,-9.235050433e-05,-8.296846852e-05,1.046415178e-04,2.167304927e-05,-4.506607571e-04,1.279161234e-04,-3.227446337e-04,-7.809369524e-05,1.038667554e-04,2.577306020e-05,5.670161636e-04,6.053896269e-05,6.275551262e-04,-3.535195339e-04,5.908538792e-05,-2.944341459e-04,-8.812268538e-04,-1.539032231e-05,-8.966171761e-04,-3.897186032e-04,-5.214010766e-05,-4.418587108e-04,-6.042442431e-04,-4.561553183e-05,-6.498597749e-04,-5.474415206e-04,1.031160579e-04,-4.443254628e-04,-4.766291387e-04,2.361401671e-06,-4.742677370e-04,-2.992745229e-04,1.117363063e-04,-1.875382166e-04,-4.659537195e-04,5.531244053e-05,-4.106412790e-04,-1.606452798e-04,5.837825478e-05,-1.022670250e-04,5.161627351e-04,-3.075535683e-05,4.854073782e-04,9.476241751e-05,-2.250821006e-05,7.225420744e-05,8.922565925e-04,1.220331179e-05,9.044599043e-04,2.678632674e-04,-5.081936674e-05,2.170439007e-04,-8.501004181e-05,2.261846820e-05,-6.239157361e-05,-3.787490620e-04,-4.105349606e-05,-4.198025581e-04,-3.572046216e-04,-9.060574374e-05,-4.478103653e-04,-5.744048262e-04,-1.744042675e-04,-7.488090937e-04,-5.129342117e-04,1.700586221e-05,-4.959283495e-04,-6.350044151e-05,-2.343162836e-06,-6.584360435e-05,-4.911814486e-04,-2.301658850e-06,-4.934831075e-04,-3.972663823e-04,1.072346107e-04,-2.900317716e-04,-4.549931886e-04,-7.316488137e-06,-4.623096767e-04,-4.386371588e-04,-3.115529559e-05,-4.697924544e-04,-6.977689374e-04,-2.126110031e-05,-7.190300377e-04,-4.629934450e-04,1.730774274e-04,-2.899160176e-04
-4.9,5.191675353e-04,1.458633013e-04,6.650308366e-04,8.192897157e-04,2.443687616e-04,1.063658477e-03,2.702359680e-04,2.411765148e-05,2.943536194e-04,5.663622579e-04,5.588999343e-05,6.222522513e-04,-1.385698540e-05,3.622928956e-05,2.237230416e-05,4.709210364e-04,8.748702509e-05,5.584080615e-04,-5.494260172e-05,5.937382946e-05,4.431227743e-06,3.440598816e-05,1.019383770e-04,1.363443652e-04,-3.379688593e-04,1.276127302e-04,-2.103561291e-04,1.237977718e-05,9.919264571e-05,1.115724229e-04,6.175039715e-04,5.658035285e-05,6.740843244e-04,-3.197985726e-04,5.901748167e-05,-2.607810909e-04,-8.608740487e-04,1.048497193e-05,-8.503890768e-04,-3.286627805e-04,-4.636387360e-05,-3.750266541e-04,-5.411093580e-04,-4.088009935e-05,-5.819894573e-04,-4.784639953e-04,1.044687686e-04,-3.739952266e-04,-4.015076834e-04,-7.501783906e-07,-4.022578618e-04,-2.541224211e-04,1.122394697e-04,-1.418829514e-04,-4.104423983e-04,5.087337299e-05,-3.595690253e-04,-6.328169519e-05,5.875573622e-05,-4.525958967e-06,5.838050910e-04,-3.043597800e-05,5.533691130e-04,2.319430853e-04,-7.321225217e-06,2.246218601e-04,9.402630662e-04,1.326891631e-05,9.535319826e-04,3.300199418e-04,-4.458885522e-05,2.854310866e-04,-3.648799432e-06,2.122048280e-05,1.757168337e-05,-3.025786365e-04,-3.182271141e-05,-3.344013479e-04,-2.469246277e-04,-8.684243843e-05,-3.337670661e-04,-4.730583729e-04,-1.660037220e-04,-6.390620949e-04,-4.426262342e-04,1.907480710e-05,-4.235514271e-04,1.929706198e-05,-6.203652611e-06,1.309340937e-05,-4.158328077e-04,-2.002949324e-06,-4.178357570e-04,-3.166649484e-04,1.052061113e-04,-2.114588371e-04,-3.704872544e-04,-6.390354209e-06,-3.768776086e-04,-3.669696794e-04,-4.418395123e-05,-4.111536306e-04,-5.974121233e-04,-2.413303259e-05,-6.215451559e-04,-4.129330227e-04,1.748741267e-04,-2.380588961e-04
-4.8,5.231482906e-04,1.509966441e-04,6.741449347e-04,9.000722326e-04,2.517123064e-04,1.151784539e-03,2.639016743e-04,3.058663979e-05,2.944883141e-04,6.557379653e-04,5.525966789e-05,7.109976332e-04,5.613844760e-05,3.625324001e-05,9.239168762e-05,5.642849469e-04,8.403924114e-05,6.483241880e-04,4.265241862e-05,5.787246447e-05,1.005248831e-04,1.504217341e-04,9.889997150e-05,2.493217056e-04,-2.246583062e-04,1.267538232e-04,-9.790448304e-05,1.023754242e-04,9.418855517e-05,1.965639794e-04,6.662666256e-04,5.263277573e-05,7.188994013e-04,-2.854597944e-04,5.828619890e-05,-2.271735955e-04,-8.371078333e-04,3.627595959e-05,-8.008318737e-04,-2.673163292e-04,-4.048287124e-05,-3.077992004e-04,-4.763632741e-04,-3.598513517e-05,-5.123484093e-04,-4.077676513e-04,1.050990282e-04,-3.026686231e-04,-3.246894554e-04,-4.023373875e-06,-3.287128293e-04,-2.080504096e-04,1.118901561e-04,-9.616025351e-05,-3.527948645e-04,4.610604026e-05,-3.066888242e-04,3.357487171e-05,5.876732190e-05,9.234219360e-05,6.494980271e-04,-2.996130020e-05,6.195367269e-04,3.671962003e-04,7.423027379e-06,3.746192276e-04,9.845984659e-04,1.434414193e-05,9.989426079e-04,3.902400817e-04,-3.846966274e-05,3.517704190e-04,7.666324484e-05,1.975326732e-05,9.641651216e-05,-2.270413436e-04,-2.254793319e-05,-2.495892768e-04,-1.374827048e-04,-8.188042566e-05,-2.193631305e-04,-3.710343396e-04,-1.568580299e-04,-5.278923696e-04,-3.710883052e-04,2.106223703e-05,-3.500260682e-04,1.010272208e-04,-9.532065109e-06,9.149515567e-05,-3.397065350e-04,-1.500288876e-06,-3.412068239e-04,-2.348877368e-04,1.027270947e-04,-1.321606420e-04,-2.843833135e-04,-5.426477354e-06,-2.898097909e-04,-2.957103462e-04,-5.609954138e-05,-3.518098875e-04,-4.949265892e-04,-2.657722835e-05,-5.215038175e-04,-3.608512351e-04,1.754521663e-04,-1.853990687e-04
-4.7,5.262890479e-04,1.559069267e-04,6.821959746e-04,9.765611142e-04,2.580178249e-04,1.234578939e-03,2.554061820e-04,3.685546266e-05,2.922616446e-04,7.414139951e-04,5.423702494e-05,7.956510200e-04,1.252102323e-04,3.612379709e-05,1.613340294e-04,6.545436379e-04,8.028768623e-05,7.348313242e-04,1.395953338e-04,5.617126493e-05,1.957665987e-04,2.649383997e-04,9.557981360e-05,3.605182133e-04,-1.108924052e-04,1.253400527e-04,1.444764749e-05,1.918103302e-04,8.886497349e-05,2.806753037e-04,7.135101488e-04,4.870200136e-05,7.622121502e-04,-2.505629541e-04,5.686725533e-05,-1.936956988e-04,-8.096065321e-04,6.173455209e-05,-7.478719800e-04,-2.059311451e-04,-3.451776785e-05,-2.404489130e-04,-4.103287848e-04,-3.093030379e-05,-4.412590885e-04,-3.357113813e-04,1.049825053e-04,-2.307288760e-04,-2.465103422e-04,-7.451174693e-06,-2.539615169e-04,-1.612328484e-04,1.107154216e-04,-5.051742676e-05,-2.932835983e-04,4.106053915e-05,-2.522230592e-04,1.297449504e-04,5.840011522e-05,1.881450656e-04,7.133342066e-04,-2.933360338e-05,6.840006033e-04,5.002962259e-04,2.168852761e-05,5.219847535e-04,1.025188573e-03,1.543867122e-05,1.040627245e-03,4.484123855e-04,-3.249205404e-05,4.159203315e-04,1.556665594e-04,1.820482916e-05,1.738713886e-04,-1.524308252e-04,-1.326242418e-05,-1.656932494e-04,-2.928348926e-05,-7.566374882e-05,-1.049472381e-04,-2.686388121e-04,-1.471007542e-04,-4.157395664e-04,-2.986589221e-04,2.298022330e-05,-2.756786988e-04,1.813750803e-04,-1.229800559e-05,1.690770747e-04,-2.631210677e-04,-8.015504253e-07,-2.639226182e-04,-1.522623567e-04,9.982224608e-05,-5.244011061e-05,-1.971308266e-04,-4.399014824e-06,-2.015298414e-04,-2.250257337e-04,-6.686399887e-05,-2.918897326e-04,-3.907762702e-04,-2.857890578e-05,-4.193551760e-04,-3.069066050e-04,1.748113250e-04,-1.320952800e-04
-4.6,5.286554372e-04,1.606150846e-04,6.892705218e-04,1.048651171e-03,2.632716614e-04,1.311922833e-03,2.448526254e-04,4.291326339e-05,2.877658888e-04,8.232511243e-04,5.282612954e-05,8.760772538e-04,1.932700989e-04,3.584443531e-05,2.291145342e-04,7.416131411e-04,7.625434359e-05,8.178674847e-04,2.357317494e-04,5.427713618e-05,2.900088856e-04,3.778386082e-04,9.202934073e-05,4.698679490e-04,3.167937300e-06,1.233750294e-04,1.265429667e-04,2.806017501e-04,8.323270985e-05,3.638344600e-04,7.594259673e-04,4.479116742e-05,8.042171348e-04,-2.151635011e-04,5.474944163e-05,-1.604140595e-04,-7.780767504e-04,8.662104640e-05,-6.914557040e-04,-1.447387206e-04,-2.848664446e-05,-1.732253651e-04,-3.433213393e-04,-2.571594409e-05,-3.690372834e-04,-2.626503233e-04,1.041046537e-04,-1.585456696e-04,-1.673032742e-04,-1.102379689e-05,-1.783270710e-04,-1.138497478e-04,1.087566322e-04,-5.093115536e-06,-2.321925240e-04,3.579042484e-05,-1.964020991e-04,2.250594495e-04,5.764419779e-05,2.827036473e-04,7.754023524e-04,-2.855613583e-05,7.468462165e-04,6.310302126e-04,3.544982162e-05,6.664800342e-04,1.061967154e-03,1.656149461e-05,1.078528648e-03,5.044343574e-04,-2.668159230e-05,4.777527651e-04,2.331255423e-04,1.656795009e-05,2.496934924e-04,-7.899239113e-05,-3.999276774e-06,-8.299166790e-05,7.730847903e-05,-6.815915221e-05,9.149326823e-06,-1.661499973e-04,-1.368675561e-04,-3.030175534e-04,-2.256685576e-04,2.484104457e-05,-2.008275131e-04,2.600557548e-04,-1.448642120e-05,2.455693336e-04,-1.863771709e-04,8.067473277e-08,-1.862964961e-04,-6.911429425e-05,9.651319699e-05,2.739890274e-05,-1.091796989e-04,-3.284495615e-06,-1.124641945e-04,-1.550180238e-04,-7.648163643e-05,-2.314996602e-04,-2.854171658e-04,-3.013379935e-05,-3.155509651e-04,-2.512644558e-04,1.729533552e-04,-7.831110060e-05
-4.5,5.303015117e-04,1.651395438e-04,6.954410555e-04,1.116261652e-03,2.674639424e-04,1.383725595e-03,2.323648570e-04,4.875137217e-05,2.811162292e-04,9.011393967e-04,5.103461087e-05,9.521740076e-04,2.602443317e-04,3.541939592e-05,2.956637276e-04,8.254356000e-04,7.196141427e-05,8.973970143e-04,3.309214495e-04,5.219696680e-05,3.831184163e-04,4.890260799e-04,8.829706305e-05,5.773231429e-04,1.173624090e-04,1.208652219e-04,2.382276309e-04,3.686655263e-04,7.730287420e-05,4.459684005e-04,8.041886014e-04,4.090087348e-05,8.450894749e-04,-1.793176974e-04,5.193553280e-05,-1.273821646e-04,-7.422596723e-04,1.107055614e-04,-6.315541109e-04,-8.395280898e-05,-2.240554685e-05,-1.063583558e-04,-2.756481880e-04,-2.034443330e-05,-2.959926213e-04,-1.889332814e-04,1.024603608e-04,-8.647292067e-05,-8.739684784e-05,-1.472844184e-05,-1.021252897e-04,-6.608612052e-05,1.060677499e-04,3.998162940e-05,-1.698130669e-04,3.035139714e-05,-1.394616698e-04,3.193580183e-04,5.649284075e-05,3.758508590e-04,8.357848875e-04,-2.763314522e-05,8.081517423e-04,7.591971758e-04,4.869076181e-05,8.078879376e-04,1.094875173e-03,1.772087937e-05,1.112596053e-03,5.582099366e-04,-2.105884416e-05,5.371510925e-04,3.088265238e-04,1.484038468e-05,3.236669085e-04,-6.926483590e-06,5.208239063e-06,-1.718244528e-06,1.819693264e-04,-5.935659921e-05,1.226127272e-04,-6.382344461e-05,-1.262926151e-04,-1.901160597e-04,-1.524397129e-04,2.665643484e-05,-1.257832780e-04,3.368138914e-04,-1.609864997e-05,3.207152414e-04,-1.097591472e-04,1.129127880e-06,-1.086300194e-04,1.423050814e-05,9.281852091e-05,1.070490291e-04,-2.097701731e-05,-2.063107460e-06,-2.304012477e-05,-8.573048220e-05,-8.499804507e-05,-1.707285273e-04,-1.792982461e-04,-3.124650703e-05,-2.105447531e-04,-1.941007443e-04,1.698849878e-04,-2.421575647e-05
-4.4,5.312671847e-04,1.694957133e-04,7.007628980e-04,1.179335704e-03,2.705882405e-04,1.449923945e-03,2.180831517e-04,5.436300276e-05,2.724461545e-04,9.749954913e-04,4.887324888e-05,1.023868740e-03,3.260701933e-04,3.485345988e-05,3.609236532e-04,9.059753381e-04,6.743104599e-05,9.734063841e-04,4.250328934e-04,4.993745616e-05,4.749703495e-04,5.984207101e-04,8.442796688e-05,6.828486770e-04,2.315271738e-04,1.178198354e-04,3.493470092e-04,4.559123013e-04,7.108697806e-05,5.269992793e-04,8.479519228e-04,3.702930886e-05,8.849812317e-04,-1.430900183e-04,4.844279350e-05,-9.464722480e-05,-7.019415922e-04,1.337690261e-04,-5.681725661e-04,-2.377521637e-05,-1.628957520e-05,-4.006479157e-05,-2.076101329e-04,-1.482137109e-05,-2.224315040e-04,-1.149038526e-04,1.000533058e-04,-1.485054674e-05,-7.117123301e-06,-1.854918227e-05,-2.566630557e-05,-1.813304109e-05,1.027128036e-04,8.457976253e-05,-1.064420263e-04,2.479970902e-05,-8.164231729e-05,4.124852698e-04,5.494282879e-05,4.674280986e-04,8.945539133e-04,-2.656998434e-05,8.679839290e-04,8.846058574e-04,6.140305767e-05,9.460089150e-04,1.123858839e-03,1.892430875e-05,1.142783148e-03,6.096464462e-04,-1.563930418e-05,5.940071420e-04,3.825717812e-04,1.302484772e-05,3.955966289e-04,6.360184545e-05,1.432631259e-05,7.792815804e-05,2.844129901e-04,-4.927007757e-05,2.351429125e-04,3.809833897e-05,-1.155046919e-04,-7.740635292e-05,-7.928871041e-05,2.843679468e-05,-5.085191574e-05,4.114209752e-04,-1.715309309e-05,3.942678821e-04,-3.353839884e-05,2.322037845e-06,-3.121636099e-05,9.744127978e-05,8.875420111e-05,1.861954809e-04,6.703343817e-05,-7.197065669e-07,6.631373160e-05,-1.716076476e-05,-9.249619093e-05,-1.096569557e-04,-7.286463941e-05,-3.192929084e-05,-1.047939302e-04,-1.356074386e-04,1.656214660e-04,3.001402742e-05
-4.3,5.315757567e-04,1.736955584e-04,7.052713151e-04,1.237838775e-03,2.726414031e-04,1.510480178e-03,2.021590999e-04,5.974291553e-05,2.619020154e-04,1.044758996e-03,4.635556345e-05,1.091114559e-03,3.906910181e-04,3.415171910e-05,4.248427372e-04,9.832137263e-04,6.268521491e-05,1.045898941e-03,5.179364123e-04,4.750500723e-05,5.654414195e-04,7.059522070e-04,8.046306224e-05,7.864152693e-04,3.454900526e-04,1.142507128e-04,4.597407654e-04,5.422429207e-04,6.459708278e-05,6.068400035e-04,8.908448782e-04,3.317243002e-05,9.240173082e-04,-1.065606290e-04,4.430319149e-05,-6.225743750e-05,-6.569663796e-04,1.556042286e-04,-5.013621511e-04,3.559825399e-05,-1.015406866e-05,2.544418533e-05,-1.395041150e-04,-9.156243157e-06,-1.486603582e-04,-4.090333814e-05,9.689506519e-05,5.599172705e-05,7.320890732e-05,-2.246688658e-05,5.074202073e-05,2.981073841e-05,9.876266166e-05,1.285734001e-04,-4.238096071e-05,1.919057672e-05,-2.319038399e-05,5.042862898e-04,5.299506466e-05,5.572813545e-04,9.517668934e-04,-2.537320128e-05,9.263936921e-04,1.007071850e-03,7.358497076e-05,1.080656821e-03,1.148867500e-03,2.017839949e-05,1.169045900e-03,6.586520206e-04,-1.043353259e-05,6.482184880e-04,4.541719117e-04,1.112885981e-05,4.653007715e-04,1.324510108e-04,2.332036897e-05,1.557713798e-04,3.843860083e-04,-3.793781203e-05,3.464481963e-04,1.393743859e-04,-1.046231390e-04,3.475124688e-05,-6.527746121e-06,3.019059389e-05,2.366284777e-05,4.836721288e-04,-1.768541000e-05,4.659867188e-04,4.202227000e-05,3.633395678e-06,4.565566568e-05,1.801775504e-04,8.433484736e-05,2.645123978e-04,1.544103149e-04,7.556066795e-07,1.551659216e-04,5.072026802e-05,-9.909039730e-05,-4.837012928e-05,3.343828654e-05,-3.220141319e-05,1.236873348e-06,-7.599758471e-05,1.601897132e-04,8.419212849e-05
-4.2,5.312323303e-04,1.777471358e-04,7.089794661e-04,1.291756637e-03,2.736234749e-04,1.565380112e-03,1.847509977e-04,6.488706320e-05,2.496380609e-04,1.110388965e-03,4.349743851e-05,1.153886404e-03,4.540517487e-04,3.331939730e-05,4.873711460e-04,1.057144548e-03,5.774573289e-05,1.114890281e-03,6.094987806e-04,4.490573544e-05,6.544045161e-04,8.115543140e-04,7.643908026e-05,8.879933943e-04,4.590670057e-04,1.101722778e-04,5.692392834e-04,6.275448846e-04,5.784590610e-05,6.853907907e-04,9.329680366e-04,2.932417661e-05,9.622922132e-04,-6.983040333e-05,3.956335485e-05,-3.026704848e-05,-6.072468381e-04,1.760176910e-04,-4.312291472e-04,9.397468314e-05,-4.015408370e-06,8.995927477e-05,-7.162446838e-05,-3.362408637e-06,-7.498687701e-05,3.272706165e-05,9.300407869e-05,1.257311403e-04,1.532502917e-04,-2.645909058e-05,1.267912011e-04,7.753801715e-05,9.429140714e-05,1.718294243e-04,2.206381444e-05,1.357673769e-05,3.564055213e-05,5.946031986e-04,5.065537002e-05,6.452585686e-04,1.007463769e-03,-2.405059218e-05,9.834131766e-04,1.126415401e-03,8.524036404e-05,1.211655766e-03,1.169852724e-03,2.148881299e-05,1.191341537e-03,7.051346958e-04,-5.447400106e-06,6.996872957e-04,5.234394165e-04,9.164396498e-06,5.326038130e-04,1.994927972e-04,3.215498738e-05,2.316477846e-04,4.816620451e-04,-2.542104814e-05,4.562409969e-04,2.397553815e-04,-9.375448650e-05,1.460008950e-04,6.553460927e-05,3.192406741e-05,9.745867668e-05,5.533840503e-04,-1.774798753e-05,5.356360628e-04,1.166655673e-04,5.033257723e-06,1.216988250e-04,2.620857375e-04,7.957542149e-05,3.416611590e-04,2.407142898e-04,2.367487329e-06,2.430817771e-04,1.179479736e-04,-1.049186409e-04,1.302933274e-05,1.391617143e-04,-3.208881393e-05,1.070729003e-04,-1.550859728e-05,1.536307872e-04,1.381221899e-04
-4.1,5.302237800e-04,1.816541325e-04,7.118779125e-04,1.341094018e-03,2.735376620e-04,1.614631680e-03,1.660210841e-04,6.979225630e-05,2.358133404e-04,1.171862267e-03,4.031679697e-05,1.212179064e-03,5.160968031e-04,3.236177270e-05,5.484585758e-04,1.127771618e-03,5.263429403e-05,1.180405912e-03,6.995817124e-04,4.214562242e-05,7.417273348e-04,9.151616846e-04,7.238826957e-05,9.875499542e-04,5.720618410e-04,1.056014881e-04,6.776633292e-04,7.116916479e-04,5.084680652e-05,7.625384545e-04,9.743924465e-04,2.547667311e-05,9.998691196e-04,-3.302098377e-05,3.428407309e-05,1.263089318e-06,-5.527710713e-04,1.948327221e-04,-3.579383492e-04,1.511660332e-04,2.108908520e-06,1.532749417e-04,-4.260738097e-06,2.543643103e-06,-1.717094995e-06,1.056472483e-04,8.840462258e-05,1.940518709e-04,2.326717834e-04,-3.049982999e-05,2.021719534e-04,1.248345291e-04,8.937294065e-05,2.142074698e-04,8.658197556e-05,8.007252115e-06,9.458922767e-05,6.832745385e-04,4.793518659e-05,7.312097251e-04,1.061667187e-03,-2.261123733e-05,1.039055950e-03,1.242461349e-03,9.637808919e-05,1.338839438e-03,1.186769754e-03,2.286019074e-05,1.209629944e-03,7.490040572e-04,-6.822991607e-07,7.483217581e-04,5.901864612e-04,7.147282676e-06,5.973337439e-04,2.646080465e-04,4.079409146e-05,3.054021380e-04,5.760387472e-04,-1.180147254e-05,5.642372747e-04,3.389785780e-04,-8.298958619e-05,2.559889918e-04,1.365960362e-04,3.364120454e-05,1.702372407e-04,6.203953645e-04,-1.740835545e-05,6.029870091e-04,1.901395152e-04,6.488013547e-06,1.966275287e-04,3.427992162e-04,7.449278249e-05,4.172919987e-04,3.255100016e-04,4.115955663e-06,3.296259573e-04,1.845463939e-04,-1.101336638e-04,7.441273005e-05,2.438529476e-04,-3.162380493e-05,2.122291426e-04,4.559742345e-05,1.460015003e-04,1.915989238e-04
-4,5.285206292e-04,1.854155427e-04,7.139361719e-04,1.385874638e-03,2.723903188e-04,1.658264956e-03,1.461354586e-04,7.445589174e-05,2.205913503e-04,1.229174676e-03,3.683333496e-05,1.266008011e-03,5.767715343e-04,3.128420432e-05,6.080557386e-04,1.195109720e-03,4.737244100e-05,1.242482161e-03,7.880456493e-04,3.923076597e-05,8.272764153e-04,1.016710704e-03,6.833813272e-05,1.085048836e-03,6.842701049e-04,1.005577370e-04,7.848278420e-04,7.945456737e-04,4.361363653e-05,8.381593102e-04,1.015161762e-03,2.162037399e-05,1.036782136e-03,3.731265014e-06,2.853904963e-05,3.227031464e-05,-4.936008020e-04,2.118931004e-04,-2.817077016e-04,2.069967068e-04,8.200923512e-06,2.151976303e-04,6.230881154e-05,8.543607876e-06,7.085241941e-05,1.775240890e-04,8.312588309e-05,2.606499721e-04,3.111377268e-04,-3.455950535e-05,2.765782214e-04,1.714834505e-04,8.407839496e-05,2.555618454e-04,1.508620270e-04,2.526683314e-06,1.533887104e-04,7.701382753e-04,4.485194473e-05,8.149902200e-04,1.114386529e-03,-2.106549052e-05,1.093321039e-03,1.355041951e-03,1.070115264e-04,1.462053478e-03,1.199581694e-03,2.429613752e-05,1.223877832e-03,7.901753360e-04,3.864780772e-06,7.940401168e-04,6.542288318e-04,5.096325952e-06,6.593251577e-04,3.276902164e-04,4.920165893e-05,3.768918754e-04,6.673383743e-04,2.822215954e-06,6.701605903e-04,4.367695718e-04,-7.240104693e-05,3.643685248e-04,2.063663326e-04,3.534397057e-05,2.417103032e-04,6.845692897e-04,-1.674639870e-05,6.678228910e-04,2.622005481e-04,7.960685112e-06,2.701612333e-04,4.219427384e-04,6.910649989e-05,4.910492383e-04,4.083714690e-04,5.997419059e-06,4.143688881e-04,2.505173149e-04,-1.148933532e-04,1.356239617e-04,3.470586664e-04,-3.084441398e-05,3.162142524e-04,1.070372449e-04,1.373748481e-04,2.444120930e-04
-3.9,5.260805965e-04,1.890255349e-04,7.151061313e-04,1.426142778e-03,2.701909161e-04,1.696333694e-03,1.252663094e-04,7.887576290e-05,2.041420723e-04,1.282344379e-03,3.306829511e-05,1.315412674e-03,6.360268999e-04,3.009218681e-05,6.661190867e-04,1.259188329e-03,4.198135860e-05,1.301169687e-03,8.747576654e-04,3.616760728e-05,9.109252727e-04,1.116143636e-03,6.431105899e-05,1.180454695e-03,7.954861466e-04,9.506267824e-05,8.905488249e-04,8.759644818e-04,3.616053476e-05,9.121250166e-04,1.055297324e-03,1.774417107e-05,1.073041495e-03,4.028567623e-05,2.241278976e-05,6.269846598e-05,-4.298627824e-04,2.270662850e-04,-2.027964974e-04,2.613141121e-04,1.424317867e-05,2.755572908e-04,1.278264494e-04,1.461874844e-05,1.424451978e-04,2.480414119e-04,7.720121457e-05,3.252426264e-04,3.883197057e-04,-3.860486526e-05,3.497148405e-04,2.172726944e-04,7.847449676e-05,2.957471912e-04,2.145966725e-04,-2.825311661e-06,2.117713608e-04,8.550372896e-04,4.142911904e-05,8.964664086e-04,1.165624571e-03,-1.942485457e-05,1.146199717e-03,1.464001868e-03,1.171580942e-04,1.581159962e-03,1.208265422e-03,2.579924031e-05,1.234064662e-03,8.285745645e-04,8.201292602e-06,8.367758571e-04,7.153951967e-04,3.032225649e-06,7.184274223e-04,3.886548784e-04,5.734300536e-05,4.459978838e-04,7.554107918e-04,1.833846393e-05,7.737492558e-04,5.328504958e-04,-6.204143531e-05,4.708090605e-04,2.745746608e-04,3.703258183e-05,3.116072426e-04,7.457968433e-04,-1.585067089e-05,7.299461724e-04,3.326184892e-04,9.411447533e-06,3.420299368e-04,4.991401353e-04,6.343887409e-05,5.625790094e-04,4.888904162e-04,8.005783751e-06,4.968962000e-04,3.158360165e-04,-1.193510400e-04,1.964849765e-04,4.483309221e-04,-2.979327490e-05,4.185376472e-04,1.685132873e-04,1.278391013e-04,2.963523886e-04
-3.8,5.228529037e-04,1.924734576e-04,7.153263613e-04,1.461965634e-03,2.669519198e-04,1.728917554e-03,1.035948301e-04,8.304993313e-05,1.866447632e-04,1.331416119e-03,2.904422492e-05,1.360460343e-03,6.938251677e-04,2.879133652e-05,7.226165042e-04,1.320055983e-03,3.648150792e-05,1.356537491e-03,9.595999273e-04,3.296303186e-05,9.925629592e-04,1.213413465e-03,6.032411252e-05,1.273737577e-03,9.055106481e-04,8.914000535e-05,9.946506534e-04,9.558074968e-04,2.850173516e-05,9.843092320e-04,1.094804559e-03,1.383551987e-05,1.108640079e-03,7.650788799e-05,1.599782624e-05,9.250571423e-05,-3.617382141e-04,2.402450824e-04,-1.214931317e-04,3.139976153e-04,2.021939794e-05,3.342170132e-04,1.920635775e-04,2.075073316e-05,2.128143107e-04,3.169105191e-04,7.066769451e-05,3.875782136e-04,4.639053933e-04,-4.259927021e-05,4.213061231e-04,2.620029437e-04,7.262266612e-05,3.346256098e-04,2.774896607e-04,-8.014151428e-06,2.694755092e-04,9.378248856e-04,3.769612436e-05,9.755210100e-04,1.215384309e-03,-1.770176076e-05,1.197682549e-03,1.569203219e-03,1.268387022e-04,1.696041921e-03,1.212817368e-03,2.737107778e-05,1.240188446e-03,8.641429872e-04,1.233912614e-05,8.764821134e-04,7.735375938e-04,9.763158422e-07,7.745139096e-04,4.474493654e-04,6.518632521e-05,5.126356906e-04,8.401353867e-04,3.462769134e-05,8.747630780e-04,6.269509670e-04,-5.194311804e-05,5.750078490e-04,3.409755102e-04,3.870560077e-05,3.796811110e-04,8.039983803e-04,-1.481446975e-05,7.891839105e-04,4.011808994e-04,1.079856138e-05,4.119794607e-04,5.740228940e-04,5.751445538e-05,6.315373494e-04,5.666851484e-04,1.013339818e-05,5.768185466e-04,3.804508982e-04,-1.236467471e-04,2.568041511e-04,5.472336409e-04,-2.851639178e-05,5.187172491e-04,2.297210241e-04,1.174961081e-04,3.472171321e-04
-3.7,5.187822324e-04,1.957439424e-04,7.145261747e-04,1.493435382e-03,2.626885610e-04,1.756123943e-03,8.131297908e-05,8.697664991e-05,1.682896290e-04,1.376463963e-03,2.478468598e-05,1.401248649e-03,7.501440685e-04,2.738727427e-05,7.775313427e-04,1.377782907e-03,3.089221684e-05,1.408675124e-03,1.042475020e-03,2.962432148e-05,1.072099342e-03,1.308486455e-03,5.638930680e-05,1.364875762e-03,1.014155836e-03,8.281522685e-05,1.096971062e-03,1.033941307e-03,2.065142183e-05,1.054592728e-03,1.133678668e-03,9.880619065e-06,1.143559287e-03,1.122766127e-04,9.391785536e-06,1.216683982e-04,-2.894549953e-04,2.513475030e-04,-3.810749237e-05,3.649621666e-04,2.611450666e-05,3.910766733e-04,2.548255933e-04,2.692164449e-05,2.817472378e-04,3.838771694e-04,6.356597954e-05,4.474431489e-04,5.376055977e-04,-4.650344057e-05,4.911021571e-04,3.054940571e-04,6.657860086e-05,3.720726580e-04,3.392621050e-04,-1.301043913e-05,3.262516659e-04,1.018368092e-03,3.368810623e-05,1.052056199e-03,1.263673634e-03,-1.590937695e-05,1.247764257e-03,1.670528682e-03,1.360772489e-04,1.806605931e-03,1.213257677e-03,2.901218087e-05,1.242269858e-03,8.968395588e-04,1.629438328e-05,9.131339421e-04,8.285387331e-04,-1.050825006e-06,8.274879081e-04,5.040568841e-04,7.270396725e-05,5.767608514e-04,9.214193863e-04,5.156700766e-05,9.729863939e-04,7.188169713e-04,-4.211987506e-05,6.766970962e-04,4.053515014e-04,4.035975394e-05,4.457112553e-04,8.591221151e-04,-1.373225903e-05,8.453898561e-04,4.676947274e-04,1.207975773e-05,4.797744851e-04,6.462373262e-04,5.135934707e-05,6.975966733e-04,6.414073324e-04,1.237169386e-05,6.537790262e-04,4.442835059e-04,-1.278999298e-04,3.163835761e-04,6.433475266e-04,-2.706222606e-05,6.162853006e-04,2.903542758e-04,1.064595490e-04,3.968138248e-04
-3.6,5.138116096e-04,1.988171194e-04,7.126287290e-04,1.520670109e-03,2.574186053e-04,1.778088715e-03,5.862307276e-05,9.065429447e-05,1.492773672e-04,1.417591537e-03,2.031393745e-05,1.437905474e-03,8.049778379e-04,2.588544667e-05,8.308632846e-04,1.432460510e-03,2.523135842e-05,1.457691868e-03,1.123306347e-03,2.615898897e-05,1.149465336e-03,1.401340950e-03,5.251441229e-05,1.453855362e-03,1.121246938e-03,7.611544764e-05,1.197362385e-03,1.110241875e-03,1.262363290e-05,1.122865508e-03,1.171908190e-03,5.864632476e-06,1.177772823e-03,1.474848726e-04,2.694742561e-06,1.501796152e-04,-2.132848207e-04,2.603154666e-04,4.703064595e-05,4.141556810e-04,3.191396847e-05,4.460696495e-04,3.159517398e-04,3.311336051e-05,3.490651003e-04,4.487231758e-04,5.594030865e-05,5.046634845e-04,6.091576910e-04,-5.027671705e-05,5.588809740e-04,3.475886863e-04,6.039212379e-05,4.079808101e-04,3.996565146e-04,-1.778994833e-05,3.818665663e-04,1.096547791e-03,2.944555283e-05,1.125993344e-03,1.310506804e-03,-1.406153549e-05,1.296445268e-03,1.767881683e-03,1.449002123e-04,1.912781895e-03,1.209632041e-03,3.072194043e-05,1.240353981e-03,9.266412572e-04,2.008686120e-05,9.467281184e-04,8.803140185e-04,-3.030888562e-06,8.772831299e-04,5.584929970e-04,7.987304148e-05,6.383660385e-04,9.991925476e-04,6.903375109e-05,1.068226299e-03,8.082148244e-04,-3.256965058e-05,7.756451738e-04,4.675125268e-04,4.198958041e-05,5.095021072e-04,9.111393415e-04,-1.269668741e-05,8.984426541e-04,5.319845419e-04,1.321395776e-05,5.451984997e-04,7.154490032e-04,4.500047101e-05,7.604494742e-04,7.127450507e-04,1.471153323e-05,7.274565839e-04,5.072272391e-04,-1.322037550e-04,3.750234841e-04,7.362722589e-04,-2.548121178e-05,7.107910471e-04,3.501075867e-04,9.485325060e-05,4.449608373e-04
-3.5,5.078840381e-04,2.016689755e-04,7.095530136e-04,1.543813158e-03,2.511622800e-04,1.794975438e-03,3.573519219e-05,9.408136399e-05,1.298165562e-04,1.454929575e-03,1.565663384e-05,1.470586209e-03,8.583349537e-04,2.429094343e-05,8.826258971e-04,1.484197760e-03,1.951519337e-05,1.503712953e-03,1.202033890e-03,2.257453089e-05,1.224608421e-03,1.491962600e-03,4.870407057e-05,1.540666670e-03,1.226620020e-03,6.906915151e-05,1.295689171e-03,1.184593495e-03,4.432236895e-06,1.189025732e-03,1.209476059e-03,1.771935942e-06,1.211247995e-03,1.820364924e-04,-3.993134940e-06,1.780433574e-04,-1.335438604e-04,2.671128610e-04,1.335690006e-04,4.615516050e-04,3.760268353e-05,4.991542885e-04,3.753104620e-04,3.930672754e-05,4.146171896e-04,5.112630445e-04,4.783854527e-05,5.591015898e-04,6.783250538e-04,-5.387856176e-05,6.244464921e-04,3.881532383e-04,5.410708225e-05,4.422603206e-04,4.584377303e-04,-2.233327450e-05,4.361044558e-04,1.172255963e-03,2.501366582e-05,1.197269629e-03,1.355902909e-03,-1.217272628e-05,1.343730183e-03,1.861184068e-03,1.533362311e-04,2.014520299e-03,1.202011394e-03,3.249848591e-05,1.234509880e-03,9.535416651e-04,2.373926764e-05,9.772809327e-04,9.288085318e-04,-4.949429791e-06,9.238591020e-04,6.107956977e-04,8.667531254e-05,6.974710102e-04,1.073399702e-03,8.690758364e-05,1.160307286e-03,8.949305293e-04,-2.327797445e-05,8.716525548e-04,5.272918813e-04,4.358713003e-05,5.708790113e-04,9.600370429e-04,-1.179616513e-05,9.482408778e-04,5.938879951e-04,1.416308568e-05,6.080510808e-04,7.813441169e-04,3.846501198e-05,8.198091289e-04,7.804217248e-04,1.714342017e-05,7.975651450e-04,5.691459045e-04,-1.366214673e-04,4.325244372e-04,8.256261450e-04,-2.382547243e-05,8.018006725e-04,4.086765152e-04,8.280904907e-05,4.914855643e-04
