Time,S1D1HbO,S1D1HbR,S1D1HbT,S2D2HbO,S2D2HbR,S2D2HbT,S3D3HbO,S3D3HbR,S3D3HbT,S4D4HbO,S4D4HbR,S4D4HbT,S5D5HbO,S5D5HbR,S5D5HbT,S6D6HbO,S6D6HbR,S6D6HbT,S7D7HbO,S7D7HbR,S7D7HbT,S8D8HbO,S8D8HbR,S8D8HbT,S9D9HbO,S9D9HbR,S9D9HbT,S10D10HbO,S10D10HbR,S10D10HbT,S11D11HbO,S11D11HbR,S11D11HbT,S12D12HbO,S12D12HbR,S12D12HbT,S13D13HbO,S13D13HbR,S13D13HbT,S14D14HbO,S14D14HbR,S14D14HbT,S15D15HbO,S15D15HbR,S15D15HbT,S16D16HbO,S16D16HbR,S16D16HbT,S17D17HbO,S17D17HbR,S17D17HbT,S18D18HbO,S18D18HbR,S18D18HbT,S19D19HbO,S19D19HbR,S19D19HbT,S20D20HbO,S20D20HbR,S20D20HbT,S21D21HbO,S21D21HbR,S21D21HbT,S22D22HbO,S22D22HbR,S22D22HbT,S23D23HbO,S23D23HbR,S23D23HbT,S24D24HbO,S24D24HbR,S24D24HbT,S25D25HbO,S25D25HbR,S25D25HbT,S26D26HbO,S26D26HbR,S26D26HbT,S27D27HbO,S27D27HbR,S27D27HbT,S28D28HbO,S28D28HbR,S28D28HbT,S29D29HbO,S29D29HbR,S29D29HbT,S30D30HbO,S30D30HbR,S30D30HbT,S31D31HbO,S31D31HbR,S31D31HbT,S32D32HbO,S32D32HbR,S32D32HbT,S33D33HbO,S33D33HbR,S33D33HbT,S34D34HbO,S34D34HbR,S34D34HbT,S35D35HbO,S35D35HbR,S35D35HbT,S36D36HbO,S36D36HbR,S36D36HbT
0.0,-0.002564495844,-0.0001989264583,-0.002763422302,0.0006492964826,0.0009853018103,0.001634598293,-0.0002986242265,0.0003194614503,2.083722379e-05,-0.001536395434,0.000121042891,-0.001415352543,-0.001143256841,0.000251665691,-0.0008915911496,-0.0005778160888,0.0002693006397,-0.0003085154491,-0.00141855474,-0.0001142537887,-0.001532808529,-0.001725154543,-0.0001258795805,-0.001851034123,-0.0003352905705,-1.926940518e-05,-0.0003545599757,-0.0008379988623,-9.024026228e-05,-0.0009282391246,-0.0008462973513,0.0001799087553,-0.000666388596,0.0008019252662,0.0003421570645,0.001144082331,0.0008683027315,-0.0001512024339,0.0007171002975,0.001381507871,0.0002087727243,0.001590280595,0.0001620571055,0.0001082302334,0.0002702873389,0.0003096103299,-0.0001276692257,0.0001819411042,-0.0008930718048,1.314559202e-05,-0.0008799262127,-0.001581897795,5.757088002e-07,-0.001581322086,-0.001528922946,-0.0004915071982,-0.002020430144,-0.001204122091,2.847303062e-05,-0.00117564906,-0.0003940102682,0.0002165893719,-0.0001774208963,0.000817851256,0.0002727165514,0.001090567807,0.00263352041,0.001324642053,0.003958162463,0.001375396447,0.0005434599608,0.001918856408,-9.849748067e-06,0.0002249306069,0.0002150808589,7.031974552e-05,-7.597749053e-05,-5.657745013e-06,0.0004329350006,-2.342456718e-05,0.0004095104334,0.0003787157702,0.0001244317569,0.0005031475271,0.0004152484685,0.0001372908344,0.0005525393029,-0.0004341693419,0.0003304392187,-0.0001037301232,0.0009908067813,1.801270886e-05,0.00100881949,0.001000826619,0.00044077935,0.001441605969,-4.077299713e-05,0.0004044757217,0.0003637027246,-0.001089939252,0.0001199671192,-0.0009699721324,0.0007807119602,0.0002862849786,0.001066996939,-0.0009839369438,8.090956844e-05,-0.0009030273754
0.1,-0.002541150188,-0.0001713275243,-0.002712477712,0.0007790184544,0.001023810287,0.001802828741,-0.0002331906013,0.0003462888132,0.0001130982119,-0.001493299004,0.000122293334,-0.00137100567,-0.001081148111,0.000248844835,-0.000832303276,-0.0005957116134,0.0002636974682,-0.0003320141452,-0.00141039707,-0.0001098130597,-0.00152021013,-0.001780184542,-0.0001179509302,-0.001898135472,-0.0003120825264,-2.185561446e-05,-0.0003339381409,-0.000816458178,-9.673907368e-05,-0.0009131972517,-0.0007960208327,0.0001807962994,-0.0006152245333,0.0009250961231,0.00033783278,0.001262928903,0.0008825970107,-0.000144313215,0.0007382837956,0.001478740405,0.0002282478671,0.001706988273,0.0001708974394,0.0001207059852,0.0002916034246,0.0003221823182,-0.0001299231,0.0001922592182,-0.0008839869916,-5.498056176e-05,-0.0009389675534,-0.001609611475,5.143208241e-06,-0.001604468266,-0.001560849925,-0.000480139286,-0.002040989211,-0.001169490041,2.068496447e-05,-0.001148805076,-0.0003283406273,0.0002257706984,-0.0001025699289,0.001061539301,0.0002825464243,0.001344085725,0.00281469824,0.001357233297,0.004171931537,0.001581884463,0.0005749405583,0.002156825021,2.506039358e-05,0.0002448559878,0.0002699163814,0.000137851006,-6.22771391e-05,7.557386688e-05,0.0004262416109,4.29097477e-05,0.0004691513586,0.0004736021172,0.0001404783523,0.0006140804695,0.0004696853164,0.0001370572289,0.0006067425453,-0.0003686712452,0.000316276068,-5.239517726e-05,0.001018512116,9.365700835e-06,0.001027877817,0.001023372877,0.0004400875803,0.001463460457,-8.332685921e-05,0.000401482384,0.0003181555248,-0.001086346822,0.0001167325132,-0.0009696143088,0.0007631774429,0.0002767426738,0.001039920117,-0.0009729909164,7.957786961e-05,-0.0008934130468
0.2,-0.002504865392,-0.0001418676692,-0.002646733061,0.00090778411,0.001058210408,0.001965994518,-0.0001654103956,0.0003707175892,0.0002053071935,-0.001443440249,0.0001223117771,-0.001321128472,-0.001012157644,0.0002440483653,-0.0007681092789,-0.0006115694878,0.0002566010969,-0.0003549683909,-0.001395398912,-0.0001055820765,-0.001500980988,-0.001828865732,-0.0001108450777,-0.001939710809,-0.0002842364103,-2.488300229e-05,-0.0003091194126,-0.0007906179179,-0.000103611985,-0.0008942299029,-0.0007412604141,0.0001801763959,-0.0005610840182,0.001050488917,0.0003295399575,0.001380028874,0.0008991759778,-0.0001385310887,0.0007606448891,0.00157324182,0.0002439692206,0.001817211041,0.0001814671676,0.0001308879343,0.0003123551019,0.0003379730228,-0.0001324708811,0.0002055021416,-0.000869838582,-0.0001202512265,-0.0009900898085,-0.001631634228,9.09820957e-06,-0.001622536019,-0.001588074975,-0.0004683892771,-0.002056464252,-0.001130611366,1.234792524e-05,-0.001118263441,-0.0002590793901,0.0002341840678,-2.489532232e-05,0.001305499321,0.0002904897167,0.001595989038,0.002986912197,0.001383515333,0.004370427531,0.001783841997,0.000603357443,0.00238719944,6.352566419e-05,0.0002619329713,0.0003254586355,0.0002109944087,-5.15803722e-05,0.0001594140365,0.0004245249145,0.0001087207887,0.0005332457032,0.0005711345119,0.0001545333082,0.0007256678201,0.0005270553023,0.0001358690897,0.000662924392,-0.0002991848948,0.0003002742659,1.089371096e-06,0.001047821836,4.687523987e-07,0.001048290588,0.00104769951,0.0004380918857,0.001485791395,-0.0001216086846,0.0003956549276,0.000274046243,-0.001076885869,0.0001128356037,-0.0009640502651,0.0007470187983,0.0002673453884,0.001014364187,-0.0009582690765,7.750572578e-05,-0.0008807633507
0.3,-0.002456064295,-0.0001107421532,-0.002566806448,0.001034338197,0.001088289809,0.002122628006,-9.601231182e-05,0.0003925508721,0.0002965385603,-0.001387468841,0.0001210415885,-0.001266427252,-0.0009368673078,0.0002372445258,-0.000699622782,-0.0006254022468,0.0002480651239,-0.000377337123,-0.001373840351,-0.0001016380758,-0.001475478427,-0.001871100242,-0.0001046715802,-0.001975771822,-0.0002520637875,-2.839987793e-05,-0.0002804636654,-0.0007607536507,-0.0001108419387,-0.0008715955895,-0.000682592955,0.0001779512476,-0.0005046417074,0.001177255989,0.0003173585032,0.001494614492,0.0009178491645,-0.0001339460475,0.000783903117,0.001664203033,0.0002557578187,0.001919960852,0.0001934178863,0.000138663745,0.0003320816314,0.0003568530592,-0.0001353220382,0.000221531021,-0.0008509037321,-0.0001822462808,-0.001033150013,-0.001648011079,1.244462185e-05,-0.001635566457,-0.001610465429,-0.0004568335477,-0.002067298977,-0.001087866317,3.489622702e-06,-0.001084376694,-0.0001867920278,0.000241739731,5.494770322e-05,0.001547443198,0.0002963034928,0.001843746691,0.003148835711,0.001403300134,0.004552135845,0.001979288163,0.000628424746,0.002607712909,0.0001051935726,0.0002759740519,0.0003811676245,0.0002893235378,-4.406975683e-05,0.000245253781,0.000428127539,0.0001733893628,0.0006015169018,0.0006706729272,0.0001663931803,0.0008370661075,0.0005870156221,0.0001337361664,0.0007207517885,-0.0002260606476,0.0002825908535,5.653020588e-05,0.00107856143,-8.512533318e-06,0.001070048896,0.00107403915,0.0004348750656,0.001508914216,-0.000155501712,0.0003873079859,0.0002318062739,-0.001061654156,0.0001083546354,-0.0009532995202,0.0007326351477,0.0002582263721,0.0009908615197,-0.0009394752044,7.456392091e-05,-0.0008649112835
0.4,-0.002395301021,-7.817720855e-05,-0.00247347823,0.001157501516,0.001113889089,0.002271390605,-2.572534357e-05,0.0004116297902,0.0003859044466,-0.001326071005,0.0001184386863,-0.001207632319,-0.0008559032854,0.0002284153162,-0.0006274879692,-0.0006372193527,0.0002381591102,-0.0003990602425,-0.001346047726,-9.805465296e-05,-0.001444102379,-0.001906834289,-9.953397929e-05,-0.002006368268,-0.0002159217378,-3.245483112e-05,-0.0002483765689,-0.0007271673121,-0.0001184087079,-0.00084557602,-0.0006206097737,0.0001740353721,-0.0004465744016,0.00130460115,0.0003014082819,0.001606009432,0.0009383982576,-0.0001306264792,0.0008077717784,0.001750938616,0.0002634706144,0.00201440923,0.0002064282029,0.0001439420865,0.0003503702894,0.0003786677646,-0.0001384936146,0.00024017415,-0.0008274426931,-0.0002406546819,-0.001068097375,-0.001658832502,1.519307859e-05,-0.001643639423,-0.001627896603,-0.0004460687032,-0.002073965306,-0.001041657013,-5.856083223e-06,-0.001047513096,-0.0001120651055,0.0002483534306,0.0001362883251,0.001785155551,0.0002997698784,0.002084925429,0.003299334558,0.001416498633,0.004715833191,0.002166386836,0.0006499129185,0.002816299755,0.0001497067369,0.0002868162696,0.0004365230065,0.0003723942142,-3.989872319e-05,0.000332495491,0.0004373267938,0.0002363291356,0.0006736559295,0.0007716119748,0.0001758665977,0.0009474785725,0.0006492202114,0.0001306760505,0.0007798962619,-0.0001496519069,0.0002633885882,0.0001137366812,0.001110560015,-1.741866592e-05,0.001093141349,0.001102606181,0.0004305263651,0.001533132546,-0.0001849325864,0.0003767628229,0.0001918302365,-0.001040774552,0.0001033659106,-0.0009374086419,0.0007204232778,0.0002495216695,0.0009699449473,-0.000916346341,7.066631089e-05,-0.0008456800301
0.5,-0.002323249229,-4.442791329e-05,-0.002367677142,0.001276190379,0.001134902438,0.002411092817,4.473429395e-05,0.0004278378558,0.0004725721497,-0.001259953428,0.0001144733983,-0.001145480029,-0.0007699261863,0.0002175570296,-0.0005523691568,-0.0006470255019,0.0002269676353,-0.0004200578666,-0.001312388589,-9.490088551e-05,-0.001407289474,-0.001936056723,-9.552898081e-05,-0.002031585704,-0.0001762070264,-3.709565126e-05,-0.0002133026777,-0.0006901835068,-0.0001262889319,-0.0008164724386,-0.0005559067333,0.0001683578305,-0.0003875489028,0.001431796737,0.0002818450934,0.00171364183,0.0009605831758,-0.0001286178091,0.0008319653667,0.00183290398,0.0002670035125,0.002099907492,0.0002202116098,0.0001466545414,0.0003668661512,0.000403237837,-0.0001420098819,0.0002612279551,-0.000799706498,-0.000295264761,-0.001094971259,-0.001664234487,1.736139774e-05,-0.001646873089,-0.001640258992,-0.0004366923732,-0.002076951365,-0.0009924025025,-1.564868698e-05,-0.001008051189,-3.550005193e-05,0.0002539476768,0.0002184476248,0.002016531746,0.0003007000228,0.002317231769,0.00343750729,0.001423130078,0.004860637368,0.002343487902,0.00066765508,0.003011142982,0.0001967075458,0.0002943283111,0.0004910358569,0.0004597508357,-3.918921385e-05,0.0004205616219,0.0004523299093,0.0002969923626,0.0007493222719,0.0008733809306,0.0001827822871,0.001056163218,0.0007133211127,0.0001267137816,0.0008400348943,-7.031680418e-05,0.000242833663,0.0001725168588,0.001143650643,-2.610022841e-05,0.001117550415,0.001133587293,0.0004251407872,0.001558728081,-0.0002098744342,0.0003643389479,0.0001544645137,-0.001014394712,9.793766079e-05,-0.0009164570512,0.0007107663193,0.0002413680685,0.0009521343878,-0.0008886696168,6.577810536e-05,-0.0008228915114
0.6,-0.002240688633,-9.775153514e-06,-0.002250463787,0.001389433752,0.001151277635,0.002540711387,0.0001146751519,0.0004411045136,0.0005557796655,-0.001189827857,0.0001091320762,-0.001080695781,-0.0006796218738,0.0002046806861,-0.0004749411877,-0.0006548200106,0.0002145890638,-0.0004402309468,-0.001273266826,-9.224057367e-05,-0.0013655074,-0.001958798812,-9.274452377e-05,-0.002051543336,-0.0001333498268,-4.236810349e-05,-0.0001757179303,-0.0006501462982,-0.0001344561631,-0.0007846024613,-0.0004890758242,0.0001608641237,-0.0003282117005,0.001558195903,0.0002588554444,0.001817051347,0.0009841469599,-0.000127941426,0.0008562055339,0.001909707404,0.0002662936243,0.002176001029,0.0002345222399,0.0001467572331,0.0003812794729,0.0004303578037,-0.000145900882,0.0002844569217,-0.0007679462545,-0.0003459545572,-0.001113900812,-0.001664399767,1.897499341e-05,-0.001645424773,-0.001647465582,-0.0004292819931,-0.002076747576,-0.0009405345066,-2.584119081e-05,-0.0009663756975,4.229268712e-05,0.000258452907,0.0003007455942,0.002239613079,0.0002989376851,0.002538550764,0.003562715145,0.001423326953,0.004986042098,0.002509162145,0.0006815513272,0.003190713472,0.0002458416735,0.000298415568,0.0005442572415,0.0005509293419,-4.202972168e-05,0.0005088996202,0.000473266943,0.0003548738846,0.0008281408276,0.0009754384152,0.0001869974935,0.001162435909,0.0007789681674,0.0001218810876,0.000900849255,1.157673798e-05,0.0002210951075,0.0002326718455,0.00117766822,-3.442156363e-05,0.001143246657,0.001167131396,0.0004188181104,0.001585949507,-0.0002303514731,0.0003503478186,0.0001199963455,-0.0009826889883,9.212369644e-05,-0.0008905652919,0.0007040210756,0.0002338997435,0.0009379208191,-0.000856295961,5.992118104e-05,-0.00079637478
0.7,-0.002148490283,2.547823559e-05,-0.002123012048,0.00149638797,0.001163015639,0.00265940361,0.0001834414407,0.0004514075861,0.0006348490268,-0.001116396699,0.0001024183177,-0.001013978381,-0.0005856926871,0.0001898123318,-0.0003958803554,-0.0006605970668,0.0002011340629,-0.0004594630038,-0.001229117682,-9.013158817e-05,-0.00131924927,-0.001975135007,-9.12565338e-05,-0.002066391541,-8.7806744e-05,-4.831461959e-05,-0.0001361213636,-0.0006074159706,-0.0001428809634,-0.000750296934,-0.0004206977319,0.000151517698,-0.000269180034,0.001683240029,0.0002326511535,0.001915891183,0.001008820697,-0.0001285947035,0.0008802259931,0.001981117317,0.0002613206911,0.002242438008,0.000249158296,0.0001442325034,0.0003933907993,0.0004597938675,-0.0001502004914,0.0003095933762,-0.0007324261517,-0.0003926816486,-0.0011251078,-0.001659559173,2.006676786e-05,-0.001639492405,-0.00164945867,-0.0004243730366,-0.002073831707,-0.000886493366,-3.638079376e-05,-0.0009228741597,0.0001206997952,0.0002618086638,0.000382508459,0.002452618687,0.0002943625113,0.002746981199,0.003674600281,0.001417335041,0.005091935322,0.002662228789,0.0006915709445,0.003353799733,0.0002967610118,0.0002990229034,0.0005957839153,0.0006454577714,-4.847348524e-05,0.0005969842862,0.0005001823485,0.0004095140966,0.0009096964452,0.001077264881,0.000188405482,0.001265670363,0.0008458085199,0.0001162153572,0.0009620238771,9.564490926e-05,0.0001983451074,0.0002939900167,0.001212446437,-4.226417273e-05,0.001170182264,0.001203339693,0.0004116618752,0.001615001568,-0.0002464433885,0.000335088046,8.864465751e-05,-0.0009458628779,8.595949933e-05,-0.0008599033785,0.000700505552,0.0002272442367,0.0009277497887,-0.0008191489589,5.317573844e-05,-0.0007659732204
0.8,-0.002047600585,6.101183584e-05,-0.001986588749,0.001596349382,0.001170169719,0.002766519101,0.0002504232796,0.0004587744611,0.0007091977408,-0.00104033959,9.435366858e-05,-0.0009459859219,-0.0004888483402,0.0001729931414,-0.0003158551988,-0.0006643463992,0.0001867239482,-0.000477622451,-0.001180402247,-8.862525979e-05,-0.001269027507,-0.001985183874,-9.112458932e-05,-0.002076308463,-4.005285558e-05,-5.497296397e-05,-9.502581955e-05,-0.0005623650905,-0.0001515310375,-0.000713896128,-0.0003513345615,0.000140301058,-0.0002110335035,0.001806462822,0.0002034647116,0.002009927533,0.001034329728,-0.0001305522097,0.0009037775179,0.00204706603,0.0002521077466,0.002299173777,0.0002639640464,0.0001390905239,0.0004030545703,0.0004912830447,-0.0001549448317,0.000336338213,-0.0006934404587,-0.0004354711886,-0.001128911647,-0.001649991481,2.067605085e-05,-0.00162931543,-0.001646216264,-0.000422438885,-0.002068655149,-0.0008307234322,-4.720987433e-05,-0.0008779333066,0.0001991124191,0.0002639648407,0.0004630772598,0.002653974236,0.0002868929677,0.002940867204,0.003773092668,0.001405508675,0.005178601342,0.002801775469,0.0006977525485,0.003499528017,0.000349127373,0.0002961349301,0.0006452623031,0.0007428569295,-5.853710307e-05,0.0006843198265,0.0005330281299,0.0004605012284,0.0009935293583,0.001178357215,0.0001869406341,0.001365297849,0.0009134880334,0.0001097584864,0.00102324652,0.0001814834685,0.000174759457,0.0003562429255,0.001247815352,-4.95294474e-05,0.001198285904,0.001242257185,0.0004037786162,0.001646035801,-0.0002582873721,0.0003188410275,6.055365545e-05,-0.000904160507,7.946349449e-05,-0.0008246970125,0.0007004885064,0.0002215184448,0.0009220069512,-0.0007772288366,4.567846028e-05,-0.0007315503763
0.9,-0.001939023422,9.649236862e-05,-0.001842531054,0.001688765388,0.00117284413,0.002861609518,0.0003150669338,0.0004632820047,0.0007783489386,-0.0009623008371,8.497771109e-05,-0.000877323126,-0.0003897956621,0.0001542792766,-0.0002355163854,-0.0006660538185,0.0001714889303,-0.0004945648882,-0.00112760088,-8.776575575e-05,-0.001215366635,-0.001989108239,-9.23869708e-05,-0.00208149521,9.427431819e-06,-6.237498319e-05,-5.294755138e-05,-0.0005153732086,-0.0001603714373,-0.0006757446459,-0.0002815219137,0.0001272164654,-0.0001543054483,0.001927494147,0.000171545514,0.002099039661,0.001060401298,-0.0001337672603,0.0009266340375,0.002107651176,0.0002387210383,0.002346372214,0.0002788317891,0.0001313703946,0.0004102021837,0.0005245350558,-0.0001601713402,0.0003643637155,-0.0006513306103,-0.0004744032099,-0.00112573382,-0.00163602026,2.084650273e-05,-0.001615173757,-0.001637758965,-0.0004238739445,-0.002061632909,-0.0007736671193,-5.82670823e-05,-0.0008319342016,0.0002769354547,0.000264882909,0.0005418183637,0.002842337507,0.0002764887049,0.003118826212,0.003858406726,0.001388301539,0.005246708266,0.002927170751,0.0007002022393,0.00362737299,0.0004026185554,0.0002897735717,0.0006923921271,0.0008426440567,-7.219994511e-05,0.0007704441116,0.0005716611484,0.0005074739369,0.001079135085,0.001278229272,0.0001825803489,0.001460809621,0.0009816566182,0.0001025556381,0.001084212256,0.0002686668781,0.000150517497,0.000419184375,0.001283600923,-5.61402273e-05,0.001227460696,0.001283867123,0.0003952773745,0.001679144497,-0.0002660761969,0.0003018672044,3.579100752e-05,-0.0008578741839,7.264430689e-05,-0.000785229877,0.000704182401,0.0002168250008,0.0009210074018,-0.000730612534,3.761829439e-05,-0.0006929942396
1.0,-0.001823799485,0.0001315789663,-0.001692220519,0.001773244026,0.001171192427,0.002944436453,0.0003768853938,0.0004650552388,0.0008419406326,-0.0008828777658,7.43474777e-05,-0.0008085302881,-0.0002892267709,0.0001337414613,-0.0001554853096,-0.0006657012641,0.0001555662528,-0.0005101350113,-0.001071205271,-8.758946862e-05,-0.00115879474,-0.001987113769,-9.505580668e-05,-0.002082169576,6.015051365e-05,-7.054559387e-05,-1.039508022e-05,-0.0004668199908,-0.0001693649317,-0.0006361849225,-0.0002117600926,0.0001122861504,-9.947394222e-05,0.002046065524,0.0001371565922,0.002183222117,0.001086773917,-0.0001381735019,0.0009486004149,0.002163134974,0.0002212690796,0.002384404053,0.0002937045899,0.0001211401781,0.000414844768,0.0005592373479,-0.0001659180269,0.000393319321,-0.000606497897,-0.0005096006461,-0.001116098543,-0.001618007373,2.062355446e-05,-0.001597383818,-0.001624157965,-0.0004289794206,-0.002053137386,-0.0007157574455,-6.948846851e-05,-0.000785245914,0.0003535988166,0.000264536989,0.0006181358056,0.003016620407,0.0002631520287,0.003279772436,0.003931028786,0.001366253718,0.005297282504,0.003038069245,0.0006990898706,0.003737159116,0.0004569373715,0.0002799933735,0.000736930745,0.0009443409846,-8.940443184e-05,0.0008549365527,0.0006158458869,0.0005501253045,0.001165971191,0.001376419954,0.00017534404,0.001551763994,0.001049977624,9.465405609e-05,0.00114463168,0.0003567518637,0.0001258011757,0.0004825530394,0.001319626878,-6.204095287e-05,0.001257585925,0.001328089513,0.0003862693393,0.001714358852,-0.0002700512891,0.0002844035888,1.435229976e-05,-0.0008073531419,6.551190205e-05,-0.0007418412399,0.0007117400197,0.0002132492735,0.0009249892932,-0.0006794508664,2.923101204e-05,-0.0006502198544
1.1,-0.001702982562,0.0001659292888,-0.001537053273,0.001849561511,0.001165415387,0.003014976897,0.0004354689141,0.0004642647835,0.0008997336976,-0.000802610537,6.253616853e-05,-0.0007400743684,-0.0001878062754,0.0001114642502,-7.634202522e-05,-0.0006632664777,0.0001390981336,-0.0005241683441,-0.001011709486,-8.812451786e-05,-0.001099834004,-0.001979445615,-9.911332625e-05,-0.002078558941,0.0001116438972,-7.950211018e-05,3.214178702e-05,-0.0004170774073,-0.0001784725962,-0.0005955500035,-0.0001425051929,9.555197159e-05,-4.695322132e-05,0.002162015662,0.000100571541,0.002262587203,0.00111320931,-0.0001436874011,0.0009695219091,0.002213939649,0.0001999006286,0.002413840278,0.0003085791661,0.0001084955301,0.0004170746962,0.000595062387,-0.0001722221749,0.0004228402121,-0.0005594097388,-0.0005412172915,-0.00110062703,-0.001596344074,2.005223742e-05,-0.001576291836,-0.001605543595,-0.0004379493329,-0.002043492927,-0.0006574099646,-8.080862156e-05,-0.0007382185861,0.0004285695912,0.0002629147001,0.0006914842913,0.003176005837,0.0002469282609,0.003422934098,0.003991695984,0.001339975806,0.00533167179,0.003134409031,0.000694643606,0.003829052637,0.000511822256,0.0002668758119,0.0007786980679,0.001047485588,-0.0001100569771,0.0009374286114,0.0006652623576,0.0005882080041,0.001253470362,0.001472507108,0.0001652902258,0.001637797334,0.001118138927,8.610210873e-05,0.001204241035,0.000445284252,0.0001007934222,0.0005460776742,0.001355718148,-6.719669756e-05,0.00128852145,0.001374783657,0.0003768674289,0.001751651086,-0.0002704908457,0.0002666624694,-3.828376303e-06,-0.0007530089987,5.808967756e-05,-0.0006949193211,0.0007232541223,0.0002108570006,0.0009341111229,-0.0006239635224,2.079275023e-05,-0.0006031707722
1.2,-0.001577613903,0.000199206553,-0.00137840735,0.001917666363,0.001155758321,0.003073424684,0.0004904943979,0.0004611230291,0.000951617427,-0.0007219743501,4.963122052e-05,-0.0006723431295,-8.61590346e-05,8.75449863e-05,1.385951698e-06,-0.0006587229201,0.0001222294592,-0.0005364934609,-0.0009496009094,-8.939044478e-05,-0.001038991354,-0.001966383417,-0.0001045102153,-0.002070893633,0.0001634555946,-8.925386564e-05,7.420172897e-05,-0.0003665022077,-0.0001876545633,-0.000554156771,-7.416146718e-05,7.707455264e-05,2.913085454e-06,0.002275291794,6.207150848e-05,0.002337363303,0.00113950678,-0.0001502127832,0.0009892939964,0.002260636357,0.000174801482,0.002435437839,0.0003235069317,9.355719797e-05,0.0004170641297,0.0006316756978,-0.0001791181713,0.0004525575264,-0.0005105986451,-0.0005694245716,-0.001080023217,-0.001571441161,1.917587667e-05,-0.001552265284,-0.001582112271,-0.0004508562636,-0.002032968535,-0.0005990155903,-9.216178651e-05,-0.0006911773768,0.0005013632993,0.0002600177623,0.0007613810617,0.00331995731,0.0002279049357,0.003547862246,0.004041366995,0.001310131042,0.005351498037,0.003216401148,0.000687142978,0.003903544126,0.0005670567534,0.0002505235673,0.0008175803207,0.001151643113,-0.0001340294363,0.001017613677,0.0007195168237,0.0006215389385,0.001341055762,0.001566122864,0.0001525128605,0.001718635725,0.001185862505,7.694850511e-05,0.001262811011,0.0005338068246,7.567633846e-05,0.0006094831631,0.001391704644,-7.159173565e-05,0.001320112908,0.001423753712,0.0003671856123,0.001790939324,-0.000267694612,0.0002488310899,-1.886352211e-05,-0.0006953168469,5.042565309e-05,-0.0006448911938,0.0007387593291,0.0002096925121,0.0009484518412,-0.0005644321832,1.261190567e-05,-0.0005518202776
1.3,-0.001448696608,0.0002310872629,-0.001217609345,0.001977678631,0.001142507366,0.003120185997,0.0005417323725,0.0004558790903,0.0009976114628,-0.0006413748718,3.573187575e-05,-0.000605642996,1.513990179e-05,6.209249518e-05,7.723239697e-05,-0.0006520406515,0.000105105296,-0.0005469353555,-0.0008853521255,-9.139808477e-05,-0.0009767502103,-0.001948235486,-0.0001111664658,-0.002059401951,0.0002151618142,-9.980198689e-05,0.0001153598273,-0.0003154298099,-0.0001968707934,-0.0005123006033,-7.076180946e-06,5.693200888e-05,4.985582794e-05,0.002385943092,2.19423372e-05,0.002407885429,0.001165517406,-0.0001576476006,0.001007869806,0.002303925897,0.0001461901738,0.00245011607,0.0003385910376,7.64682296e-05,0.0004150592672,0.0006687433581,-0.0001866347773,0.0004821085808,-0.0004606526667,-0.0005943978437,-0.00105505051,-0.001543719392,1.80356197e-05,-0.001525683772,-0.001554127744,-0.0004676414448,-0.002021769188,-0.0005409354465,-0.0001034830003,-0.0006444184468,0.0005715527732,0.0002558622707,0.0008274150439,0.003448219855,0.0002062098397,0.003654429694,0.00408118568,0.001277416413,0.005358602093,0.003284511409,0.0006769107241,0.003961422133,0.0006224755385,0.0002310551582,0.0008535306967,0.001256413875,-0.0001611610707,0.001095252805,0.0007781524133,0.0006500017098,0.001428154123,0.001656966211,0.0001371372742,0.001794103485,0.001252910417,6.724152892e-05,0.001320151946,0.0006218662747,5.062942294e-05,0.0006724956977,0.00142742432,-7.522822476e-05,0.001352196096,0.001474756024,0.0003573377817,0.001832093806,-0.0002619681836,0.0002310727278,-3.089545584e-05,-0.0006348110511,4.260118404e-05,-0.0005922098671,0.0007582352104,0.0002097780386,0.000968013249,-0.0005011916382,5.018989777e-06,-0.0004961726484
1.4,-0.001317171708,0.0002612693077,-0.001055902401,0.002029883333,0.001125984497,0.00315586783,0.0005890507716,0.0004488127651,0.001037863537,-0.0005611471039,2.094646927e-05,-0.0005402006346,0.0001155722672,3.522560906e-05,0.0001507978763,-0.000643188534,8.786834025e-05,-0.0005553201938,-0.0008194143905,-9.414954073e-05,-0.0009135639313,-0.001925333162,-0.0001189741444,-0.002044307306,0.0002663727054,-0.000111139216,0.0001552334894,-0.0002641701483,-0.0002060817507,-0.000470251899,5.846257235e-05,3.521838478e-05,9.368095714e-05,0.0024941052,-1.952779501e-05,0.002474577405,0.001191154146,-0.0001658914851,0.001025262661,0.002344611614,0.000114312832,0.002458924446,0.0003539785061,5.739161492e-05,0.000411370121,0.0007059384113,-0.0001947925472,0.000511145864,-0.0004101978267,-0.0006163033324,-0.001026501159,-0.001513600888,1.667049397e-05,-0.001496930394,-0.001521913918,-0.000488114833,-0.002010028751,-0.0004834980614,-0.0001147092847,-0.0005982073461,0.0006387739542,0.0002504785203,0.0008892524745,0.003560812038,0.0001820079236,0.003742819962,0.004112439722,0.001242543685,0.005354983407,0.003339435613,0.0006643037625,0.004003739375,0.0006779658477,0.0002086004685,0.0008865663162,0.001361435766,-0.0001912610783,0.001170174688,0.0008406575072,0.000673547285,0.001514204792,0.001744811013,0.0001193151278,0.001864126141,0.001319086553,5.702838755e-05,0.00137611494,0.0007090184429,2.582779579e-05,0.0007348462387,0.00146272477,-7.812508944e-05,0.001384599681,0.001527507335,0.0003474360931,0.001874943428,-0.0002536100546,0.000213529876,-4.008017862e-05,-0.0005720749796,3.473539209e-05,-0.0005373395875,0.0007816092464,0.0002111149064,0.0009927241528,-0.0004346191661,-1.644902966e-06,-0.0004362640691
1.5,-0.001183896834,0.0002894801147,-0.0008944167196,0.002074718171,0.00110654143,0.003181259602,0.0006324153655,0.0004402278423,0.001072643208,-0.0004815572152,5.389656156e-06,-0.000476167559,0.0002146804238,7.071625509e-06,0.0002217520493,-0.0006321375846,7.065638999e-05,-0.0005614811946,-0.000752212874,-9.76382073e-05,-0.0008498510813,-0.00189802629,-0.0001278009564,-0.002025827247,0.0003167362849,-0.0001232497819,0.000193486503,-0.0002130054291,-0.0002152489566,-0.0004282543857,0.0001222253447,1.204186658e-05,0.0001342672113,0.002599978122,-6.204996262e-05,0.00253792816,0.001216394949,-0.0001748517267,0.001041543223,0.002383566773,7.943752549e-05,0.002463004299,0.0003698483334,3.650842535e-05,0.0004063567588,0.0007429463232,-0.0002036021304,0.0005393441928,-0.0003598756107,-0.000635286299,-0.0009951619097,-0.001481501935,1.511762797e-05,-0.001466384307,-0.001485842332,-0.0005119650496,-0.001997807382,-0.000426998669,-0.0001257807797,-0.0005527794488,0.0007027286751,0.0002439103589,0.000946639034,0.003658010112,0.00015549725,0.003813507362,0.00413651686,0.001206221225,0.005342738085,0.003382069799,0.0006497037571,0.004031773556,0.0007334643486,0.0001832977516,0.0009167621003,0.001466382181,-0.0002241117025,0.001242270478,0.0009064702314,0.0006921951355,0.001598665367,0.001829509277,9.921808558e-05,0.001928727363,0.001384234504,4.635497553e-05,0.00143058948,0.0007948320084,1.440649626e-06,0.000796272658,0.00149746299,-8.031674788e-05,0.001417146242,0.001581693284,0.0003375889204,0.001919282204,-0.0002429032405,0.0001963290795,-4.657416099e-05,-0.0005077252594,2.698443394e-05,-0.0004807408255,0.000808758954,0.0002136865101,0.001022445464,-0.0003651231293,-7.039747616e-06,-0.0003721628769
1.6,-0.001049627702,0.0003154845672,-0.0007341431344,0.00211275648,0.001084552824,0.003197309304,0.0006718871742,0.0004304451067,0.001102332281,-0.0004028064466,-1.082027069e-05,-0.0004136267173,0.000312068634,-2.223523658e-05,0.0002898333975,-0.0006188649415,5.359989413e-05,-0.0005652650473,-0.0006841434715,-0.0001018488403,-0.0007859923118,-0.001866679778,-0.000137493842,-0.00200417362,0.0003659408595,-0.0001361093778,0.0002298314817,-0.0001621893118,-0.000224335444,-0.0003865247558,0.0001840388172,-1.247718737e-05,0.0001715616298,0.002703801659,-0.0001053357447,0.002598465914,0.001241278716,-0.0001844461254,0.00105683259,0.002421699641,4.184846334e-05,0.002463548104,0.0003863976028,1.401601721e-05,0.0004004136201,0.0007794696855,-0.0002130637539,0.0005664059316,-0.0003103193819,-0.000651461521,-0.0009617809029,-0.001447827163,1.341227408e-05,-0.001434414889,-0.001446319822,-0.0005387744602,-0.001985094282,-0.0003717000663,-0.0001366415662,-0.0005083416325,0.0007631850503,0.0002362142138,0.0009993992641,0.003740325911,0.0001269043019,0.003867230213,0.004154861395,0.001169137276,0.00532399867,0.003413477423,0.0006335077237,0.004046985147,0.0007889505721,0.0001552919289,0.0009442425009,0.001570957254,-0.0002594719189,0.001311485335,0.0009749784094,0.0007060364388,0.001681014848,0.001910989931,7.703089059e-05,0.001988020822,0.001448232814,3.526620461e-05,0.001483499019,0.0008788914452,-2.23698275e-05,0.0008565216177,0.00153150384,-8.185136128e-05,0.001449652479,0.001636976735,0.0003278988491,0.001964875584,-0.0002301106566,0.0001795852055,-5.052545114e-05,-0.0004423923247,1.953593627e-05,-0.0004228563884,0.0008395137424,0.0002174618983,0.001056975641,-0.0002931318138,-1.083706649e-05,-0.0003039688802
1.7,-0.0009150023112,0.0003390923181,-0.0005759099931,0.002144686979,0.001060409136,0.003205096116,0.0007076175627,0.0004197953185,0.001127412881,-0.0003250361138,-2.756390475e-05,-0.0003526000185,0.0004074026853,-5.255537841e-05,0.0003548473068,-0.000603357799,3.681967066e-05,-0.0005665381284,-0.0006155706933,-0.0001067576914,-0.0007223283847,-0.001831670254,-0.000147882488,-0.001979552742,0.0004137163939,-0.0001496852927,0.0002640311013,-0.000111946805,-0.000233306111,-0.0003452529159,0.0002437822838,-3.820833117e-05,0.0002055739526,0.002805833011,-0.000149099445,0.002656733566,0.00126589641,-0.0001946031095,0.001071293301,0.002459919711,1.840405537e-06,0.002461760116,0.0004038279287,-9.874301904e-06,0.0003939536268,0.0008152320737,-0.000223167597,0.0005920644767,-0.0002621336412,-0.0006649068797,-0.0009270405209,-0.001412964345,1.158719317e-05,-0.001401377152,-0.001403778505,-0.0005680363271,-0.001971814832,-0.0003178340871,-0.0001472400643,-0.0004650741514,0.0008199764584,0.0002274579768,0.001047434435,0.003808480529,9.647895267e-05,0.003904959481,0.004168933373,0.001131945129,0.005300878502,0.003434855296,0.0006161189935,0.004050974289,0.0008444389601,0.000124733197,0.0009691721571,0.00167489058,-0.0002970816574,0.001377808922,0.001045517472,0.0007152381133,0.001760755585,0.001989254402,5.29447717e-05,0.002042199174,0.001510989692,2.380680788e-05,0.0015347965,0.0009608002959,-4.544926835e-05,0.0009153510276,0.001564718598,-8.27886375e-05,0.00148192996,0.001693005631,0.0003184611492,0.00201146678,-0.0002154726003,0.0001634035929,-5.206900737e-05,-0.0003766994393,1.259970214e-05,-0.0003640997371,0.0008736576896,0.0002223988388,0.001096056528,-0.0002190831463,-1.272829707e-05,-0.0002318114434
1.8,-0.0007805274732,0.0003601640138,-0.0004203634594,0.002171292185,0.001034509318,0.003205801503,0.000739841953,0.0004086123922,0.001148454345,-0.0002483328412,-4.472308176e-05,-0.000293055923,0.0005004090078,-8.374538848e-05,0.0004166636193,-0.0005856166793,2.042494493e-05,-0.0005651917343,-0.0005468259266,-0.0001123327507,-0.0006591586773,-0.001793381831,-0.0001587828636,-0.001952164695,0.000459835352,-0.0001639367434,0.0002958986086,-6.247411157e-05,-0.0002421279608,-0.0003046020724,0.0003013841916,-6.501315668e-05,0.000236371035,0.002906330282,-0.0001930623357,0.002713267947,0.00129038114,-0.0002052611247,0.001085120015,0.002499108054,-4.028648908e-05,0.002458821565,0.0004223340848,-3.494062168e-05,0.0003873934631,0.0008499810154,-0.0002338945317,0.0006160864836,-0.0002158793511,-0.0006756600256,-0.0008915393767,-0.00137727889,9.671131591e-06,-0.001367607759,-0.001358667404,-0.0005991739457,-0.00195784135,-0.0002656025228,-0.0001575291715,-0.0004231316944,0.000873000156,0.0002177198035,0.001090719959,0.003863375889,6.448918421e-05,0.003927865073,0.004180172409,0.001095250458,0.005275422867,0.003447499892,0.0005979386916,0.004045438583,0.0008999714555,9.177548168e-05,0.0009917469372,0.001777933558,-0.0003366664342,0.001441267124,0.001117371995,0.0007200439628,0.001837415957,0.002064371702,2.715168844e-05,0.00209152339,0.001572439275,1.202241779e-05,0.001584461693,0.001040185652,-6.765210244e-05,0.0009725335494,0.001596984944,-8.319741751e-05,0.001513787526,0.001749420374,0.0003093627779,0.002058783152,-0.0001992062143,0.0001478813114,-5.132490288e-05,-0.0003112424946,6.396428887e-06,-0.0003048460657,0.0009109343909,0.0002284457083,0.001139380099,-0.0001434149833,-1.243157487e-05,-0.0001558465582
1.9,-0.000646567273,0.0003786160539,-0.0002679512191,0.002193427034,0.001007253507,0.00320068054,0.0007688730161,0.0003972269708,0.001166099987,-0.0001727334115,-6.218307366e-05,-0.0002349164852,0.0005908742805,-0.0001156596578,0.0004752146227,-0.0005656575028,4.511816654e-06,-0.0005611456862,-0.0004782054605,-0.0001185341518,-0.0005967396123,-0.001752200667,-0.0001700010087,-0.001922201675,0.0005041133977,-0.0001788154776,0.00032529792,-1.393790773e-05,-0.0002507702757,-0.0002647081835,0.0003568194874,-9.274743375e-05,0.0002640720537,0.003005543478,-0.0002369585719,0.002768584906,0.001314900258,-0.0002163691504,0.001098531108,0.002540093526,-8.423136013e-05,0.002455862166,0.0004420956757,-6.095471943e-05,0.0003811409563,0.0008834904231,-0.0002452168996,0.0006382735235,-0.0001720657739,-0.0006837191704,-0.0008557849443,-0.001341107761,7.68677334e-06,-0.001333420988,-0.001311444878,-0.000631561329,-0.001943006207,-0.0002151767569,-0.0001674663566,-0.0003826431135,0.0009222161199,0.0002070867642,0.001129302884,0.003906065913,3.121551269e-05,0.003937281425,0.004189967232,0.001059600922,0.005249568155,0.003452775027,0.0005793578321,0.004032132859,0.0009556114274,5.657553855e-05,0.001012186966,0.001879859062,-0.0003779422327,0.00150191683,0.001189785762,0.0007207693756,0.001910555138,0.002136475574,-1.605619334e-07,0.002136315012,0.001632540263,-3.926020784e-08,0.001632501003,0.001116703981,-8.884278515e-05,0.001027861196,0.001628188738,-8.315314906e-05,0.001545035589,0.001805860866,0.0003006817198,0.002106542586,-0.0001815070501,0.0001331092026,-4.839784749e-05,-0.0002465719597,1.145610535e-06,-0.0002454263492,0.000951054468,0.0002355419032,0.001186596371,-6.655483361e-05,-9.698922901e-06,-7.625375651e-05
2.0,-0.0005133335274,0.0003944238034,-0.0001189097241,0.002211998527,0.0009790360043,0.003191034531,0.0007950937069,0.000385960525,0.001181054232,-9.822909679e-05,-7.983461577e-05,-0.0001780637126,0.0006786457435,-0.00014815204,0.0005304937036,-0.0005435122526,-1.0837864e-05,-0.0005543501166,-0.0004099681759,-0.0001253148002,-0.0005352829761,-0.001708508629,-0.0001813375256,-0.001889846155,0.0005464099313,-0.0001942666939,0.0003521432375,3.352582737e-05,-0.0002592048229,-0.0002256789955,0.0004101077309,-0.0001212632846,0.0002888444462,0.003103711634,-0.0002805416367,0.002823169997,0.001339649578,-0.0002278884713,0.001111761107,0.002583634542,-0.0001296969697,0.002453937572,0.0004632715885,-8.768670344e-05,0.000375584885,0.0009155629387,-0.0002570993289,0.0006584636098,-0.0001311467331,-0.0006890498909,-0.0008201966241,-0.001304753399,5.648987963e-06,-0.001299104411,-0.001262569948,-0.0006645443515,-0.001927114299,-0.0001666964346,-0.0001770137441,-0.0003437101787,0.0009676458443,0.0001956533026,0.001163299147,0.003937727959,-3.054805182e-06,0.003934673154,0.004199630935,0.001025478113,0.005225109048,0.0034520812,0.0005607501586,0.004012831359,0.001011438986,1.929328589e-05,0.001030732272,0.001980464415,-0.0004206204284,0.001559843987,0.001261980291,0.0007177891188,0.00197976941,0.002205763548,-2.881245381e-05,0.002176951094,0.001691275779,-1.232716857e-05,0.001678948611,0.001190047389,-0.0001088971075,0.001081150281,0.001658226688,-8.273520314e-05,0.001575491485,0.001861972874,0.0002924865772,0.002154459451,-0.0001625509571,0.0001191739256,-4.337703155e-05,-0.0001831767669,-2.947512311e-06,-0.0001861242792,0.0009937049519,0.0002436170199,0.001237321972,1.109133069e-05,-4.325064257e-06,6.766266436e-06
2.1,-0.0003808788562,0.000407623327,2.674447083e-05,0.002227946356,0.0009502387409,0.003178185097,0.0008189498679,0.0003751200195,0.001194069887,-2.476990599e-05,-9.757574612e-05,-0.0001223456521,0.000763631437,-0.0001810775329,0.000582553904,-0.0005192285223,-2.55572936e-05,-0.0005447858159,-0.0003423334343,-0.0001326212588,-0.0004749546931,-0.00166267681,-0.0001925930202,-0.00185526983,0.0005866280592,-0.0002102302041,0.0003763978551,7.981268394e-05,-0.0002674061386,-0.0001875934546,0.0004613111393,-0.0001504113896,0.0003108997497,0.003201062565,-0.0003235905799,0.002877471985,0.001364847593,-0.0002397945609,0.001125053032,0.002630404492,-0.0001763936925,0.0024540108,0.0004859962781,-0.0001149096184,0.0003710866597,0.0009460322218,-0.000269499839,0.0006765323828,-9.351885309e-05,-0.0006915975462,-0.0007851163993,-0.001268478499,3.563766997e-06,-0.001264914732,-0.001212488798,-0.0006974636959,-0.001909952494,-0.0001202682763,-0.0001861381551,-0.0003064064314,0.001009370169,0.0001835195506,0.00119288972,0.003959634242,-3.80335074e-05,0.003921600734,0.004210381095,0.0009932918588,0.005203672954,0.003446826488,0.0005424658834,0.003989292372,0.001067547424,-1.990725896e-05,0.001047640165,0.002079575554,-0.0004644125455,0.001615163008,0.001333177736,0.000711520374,0.00204469811,0.002272494913,-5.863590564e-05,0.002213859007,0.001748652256,-2.478535248e-05,0.001723866903,0.001259948934,-0.0001277036036,0.00113224533,0.001687008631,-8.202417515e-05,0.001604984456,0.001917413064,0.0002848364135,0.002202249478,-0.0001424940469,0.0001061583299,-3.633571705e-05,-0.0001214699725,-5.705648474e-06,-0.0001271756209,0.001038558395,0.0002525896025,0.001291147998,8.914965471e-05,3.843099855e-06,9.299275457e-05
2.2,-0.0002490932249,0.0004183116623,0.0001692184374,0.002242224044,0.0009212253192,0.003163449363,0.0008409418551,0.0003649931263,0.001205934981,4.773059527e-05,-0.0001153134152,-6.758281995e-05,0.0008457991824,-0.0002142939395,0.0006315052429,-0.0004928685188,-3.959519155e-05,-0.0005324637103,-0.0002754799334,-0.0001403948612,-0.0004158747946,-0.001615059809,-0.0002035740226,-0.001818633831,0.0006247135848,-0.0002266416596,0.0003980719252,0.0001248495748,-0.0002753518401,-0.0001505022653,0.0005105316039,-0.0001800431505,0.0003304884535,0.003297811732,-0.0003659157816,0.00293189595,0.001390728277,-0.0002520782692,0.001138650008,0.002680979005,-0.0002240431304,0.002456935874,0.0005103768631,-0.0001424040541,0.000367972809,0.0009747647112,-0.0002823714336,0.0006923932777,-5.951953275e-05,-0.0006913027653,-0.0007508222981,-0.001232502269,1.427495426e-06,-0.001231074774,-0.001161614739,-0.0007296820628,-0.001891296802,-7.596599746e-05,-0.0001948112293,-0.0002707772267,0.001047525344,0.0001707895588,0.001218314903,0.0039731229,-7.343667149e-05,0.003899686229,0.004223324023,0.000963376876,0.005186700899,0.003438399104,0.0005248264742,0.003963225579,0.001124039916,-6.085702564e-05,0.00106318289,0.0021770497,-0.0005090347782,0.001668014922,0.001402624031,0.0007024030346,0.002105027065,0.002336984754,-8.947645877e-05,0.002247508295,0.001804695839,-3.735125862e-05,0.00176734458,0.001326186165,-0.0001451653428,0.001181020822,0.001714458798,-8.109961951e-05,0.001633359178,0.00197185231,0.0002777807088,0.002249633019,-0.0001214706417,9.414039979e-05,-2.733024192e-05,-6.177765161e-05,-6.991854956e-06,-6.876950656e-05,0.001085279669,0.0002623662398,0.001347645909,0.0001672861066,1.489841513e-05,0.0001821845217
2.3,-0.000117704624,0.0004266456061,0.0003089409821,0.002255780262,0.0008923357281,0.00314811599,0.0008616148313,0.0003558439889,0.00121745882,0.0001193894905,-0.0001329647905,-1.357529996e-05,0.0009251735275,-0.0002476634441,0.0006775100834,-0.000464507971,-5.291584735e-05,-0.0005174238183,-0.0002095460683,-0.0001485729512,-0.0003581190195,-0.001565991174,-0.0002140985265,-0.001780089701,0.0006606528442,-0.0002434336771,0.000417219167,0.0001685930162,-0.0002830228847,-0.0001144298686,0.0005579062528,-0.0002100127065,0.0003478935463,0.003394158627,-0.0004073639947,0.002986794632,0.001417532517,-0.0002647464168,0.0011527861,0.002735824472,-0.0002723812571,0.002463443214,0.0005364903547,-0.0001699627708,0.0003665275839,0.001001660104,-0.00029566406,0.0007059960441,-2.942285416e-05,-0.0006881179221,-0.0007175407762,-0.001196998537,-7.739330956e-07,-0.00119777247,-0.00111030626,-0.0007606134925,-0.001870919753,-3.383158111e-05,-0.0002030098783,-0.0002368414594,0.001082297172,0.0001575694357,0.001239866608,0.003979569139,-0.0001089894512,0.003870579688,0.00423944294,0.0009359917714,0.005175434712,0.003428142256,0.0005081206441,0.0039362629,0.001181025323,-0.0001033807228,0.0010776446,0.002272775076,-0.0005542122852,0.001718562791,0.001469609098,0.0006908789023,0.002160488,0.00239959311,-0.00012119465,0.00227839846,0.001859446511,-4.99545037e-05,0.001809492007,0.001388582861,-0.000161202287,0.001227380574,0.001740516224,-8.003857661e-05,0.001660477648,0.002024977568,0.000271359095,0.002296336663,-9.959094062e-05,8.319197428e-05,-1.639896634e-05,-4.333021115e-06,-6.718514557e-06,-1.105153567e-05,0.001133529934,0.0002728412507,0.001406371185,0.0002452102256,2.886813612e-05,0.0002740783617
2.4,1.371572535e-05,0.000432839004,0.0004465547294,0.002269540376,0.0008638819114,0.003133422287,0.0008815477974,0.0003479096112,0.001229457409,0.0001903477662,-0.000150458165,3.988960117e-05,0.001001830556,-0.0002810540321,0.0007207765238,-0.0004342350915,-6.549862978e-05,-0.0004997337213,-0.0001446319241,-0.0001570901703,-0.0003017220944,-0.001515779719,-0.0002240007692,-0.001739780488,0.0006944694444,-0.0002605368358,0.0004339326086,0.0002110261307,-0.0002904037546,-7.937762384e-05,0.0006036017245,-0.0002401787497,0.0003634229748,0.003490281209,-0.00044782228,0.003042458929,0.001445499075,-0.0002778223588,0.001167676716,0.002795288551,-0.0003211610206,0.002474127531,0.0005643810654,-0.0001973952348,0.0003669858306,0.001026650101,-0.0003093266498,0.0007173234511,-3.434097802e-06,-0.000682022321,-0.0006854564188,-0.001162096002,-3.066058409e-06,-0.001165162061,-0.001058851934,-0.0007897479128,-0.001848599846,6.122321328e-06,-0.0002107171271,-0.0002045948057,0.001113913679,0.0001439653813,0.00125787906,0.003980357544,-0.0001444301137,0.00383592743,0.004259590567,0.0009113204138,0.005170910981,0.003417332259,0.0004926017133,0.003909933972,0.001238612553,-0.0001472952471,0.001091317306,0.002366667685,-0.0005996831157,0.00176698457,0.0015334819,0.0006773720149,0.002210853915,0.002460709576,-0.0001536664252,0.00230704315,0.00191295127,-6.251685228e-05,0.001850434418,0.00144700936,-0.000175753926,0.001271255434,0.001765134628,-7.891483591e-05,0.001686219792,0.002076493062,0.0002656006499,0.002342093712,-7.693975989e-05,7.337684627e-05,-3.562913618e-06,5.072362317e-05,-4.852186924e-06,4.587143624e-05,0.001182968802,0.0002838967144,0.001466865516,0.0003226757628,4.571102757e-05,0.0003683867904
2.5,0.0001457434065,0.0004371584955,0.000582901902,0.002284388738,0.0008361443407,0.003120533078,0.0009013418276,0.0003413969917,0.001242738819,0.0002607629316,-0.000167733432,9.302949969e-05,0.001075891019,-0.0003143407106,0.0007615503082,-0.0004021494325,-7.733697196e-05,-0.0004794864045,-8.080264988e-05,-0.0001658797914,-0.0002466824412,-0.001464706368,-0.000233135567,-0.001697841935,0.0007262201505,-0.0002778806191,0.0004483395314,0.0002521548987,-0.0002974825961,-4.53276974e-05,0.000647807643,-0.0002704061641,0.0003774014789,0.003586330262,-0.0004872204971,0.003099109764,0.001474856513,-0.0002913470119,0.001183509501,0.002859594104,-0.000370154415,0.002489439689,0.0005940588514,-0.0002245319764,0.000369526875,0.001049695941,-0.0003233092309,0.0007263867097,1.831363199e-05,-0.0006730325445,-0.0006547189125,-0.001127880745,-5.486163153e-06,-0.001133366908,-0.001007467437,-0.000816666258,-0.001824133695,4.390917796e-05,-0.0002179230281,-0.0001740138501,0.001142637069,0.0001300817145,0.001272718783,0.003976856774,-0.0001795133221,0.003797343452,0.004284486967,0.0008894757159,0.005173962683,0.003407160911,0.0004784864662,0.003885647377,0.001296903951,-0.0001924079351,0.001104496015,0.00245866614,-0.0006452014741,0.001813464666,0.001593660862,0.0006622719303,0.002255932792,0.002520734746,-0.000186782067,0.002333952679,0.001965257918,-7.495362876e-05,0.00189030429,0.001501381785,-0.000188781435,0.00131260035,0.001788281776,-7.779859696e-05,0.001710483179,0.002126121446,0.0002605229696,0.002386644415,-5.357687596e-05,6.474708053e-05,1.117020456e-05,0.0001033403406,-1.415000881e-06,0.0001019253397,0.001233256016,0.0002954027814,0.001528658797,0.0003994797648,6.531609107e-05,0.0004647958559
2.6,0.0002790859939,0.0004399176045,0.0007190035985,0.00230115249,0.0008093695745,0.003110522065,0.0009216082479,0.0003364810873,0.001258089335,0.0003308014476,-0.0001847421767,0.0001460592708,0.001147512603,-0.0003474065549,0.0008001060485,-0.0003683602596,-8.843694875e-05,-0.0004567972083,-1.809270929e-05,-0.0001748751244,-0.0001929678336,-0.001413021387,-0.0002413825569,-0.001654403944,0.0007559903153,-0.0002953943818,0.0004605959335,0.0002920042673,-0.0003042513113,-1.224704398e-05,0.0006907299545,-0.0003005675228,0.0003901624317,0.003682425745,-0.0005255323142,0.003156893431,0.001505817388,-0.0003053800285,0.00120043736,0.002928838313,-0.0004191540527,0.002509684261,0.0006254988643,-0.0002512284811,0.0003742703833,0.00107078596,-0.0003375653349,0.000733220625,3.575873169e-05,-0.0006612062074,-0.0006254474757,-0.001094400389,-8.082495307e-06,-0.001102482884,-0.0009563025452,-0.0008410475136,-0.001797350059,7.956504232e-05,-0.0002246252166,-0.0001450601743,0.001168755885,0.0001160190813,0.001284774966,0.003970397783,-0.000214012611,0.003756385172,0.004314723476,0.0008705057573,0.005185229234,0.003398722899,0.0004659554853,0.003864678384,0.001355989101,-0.0002385153005,0.0011174738,0.002548726281,-0.0006905400665,0.001858186214,0.001649642762,0.0006459204619,0.002295563224,0.002580061302,-0.0002204435563,0.002359617745,0.002016410638,-8.717614403e-05,0.001929234494,0.001551660491,-0.0002002685149,0.001351391976,0.001809938529,-7.67563007e-05,0.001733182229,0.002173605338,0.0002561315229,0.002429736861,-2.953982347e-05,5.73386946e-05,2.779887112e-05,0.0001535462619,3.516402941e-06,0.0001570626648,0.001284053246,0.0003072187245,0.00159127197,0.0004754607305,8.750312231e-05,0.0005629638528
2.7,0.0004145635704,0.0004414690883,0.0008560326587,0.00232058768,0.0007837686602,0.00310435634,0.0009429575049,0.0003333035923,0.001276261097,0.0004006314284,-0.0002014474984,0.00019918393,0.001216882282,-0.0003801436452,0.000836738637,-0.0003329840452,-9.881553078e-05,-0.0004317995759,4.348957349e-05,-0.0001840109607,-0.0001405213872,-0.001360941775,-0.0002486503965,-0.001609592172,0.0007838892752,-0.0003130083752,0.0004708809,0.000330614633,-0.0003107055443,1.990908873e-05,0.0007325848425,-0.0003305444151,0.0004020404274,0.003778656357,-0.0005627746925,0.003215881665,0.001538574312,-0.0003199995539,0.001218574758,0.003002998237,-0.000467974221,0.002535024016,0.0006586433492,-0.0002773681811,0.0003812751681,0.001089934043,-0.0003520546471,0.0007378793957,4.890970686e-05,-0.0006466417325,-0.0005977320256,-0.001061668651,-1.091277759e-05,-0.001072581428,-0.0009054519655,-0.0008626715016,-0.001768123467,0.0001131454374,-0.0002308289591,-0.0001176835218,0.001192578125,0.0001018729582,0.001294451083,0.003962256598,-0.000247722052,0.003714534546,0.004350772463,0.0008544018388,0.005205174302,0.003393008399,0.0004551546841,0.003848163083,0.001415940894,-0.0002854030768,0.001130537817,0.002636817436,-0.0007354914242,0.001901326012,0.001701012709,0.0006286019259,0.002329614635,0.002639057967,-0.0002545610216,0.002384496945,0.002066448123,-9.909455785e-05,0.001967353565,0.001597848173,-0.0002102205128,0.001387627661,0.001830098244,-7.585074578e-05,0.001754247498,0.002218709438,0.0002524195516,0.00247112899,-4.849903689e-06,5.116983267e-05,4.631992898e-05,0.000201443226,9.813736871e-06,0.0002112569628,0.001335025972,0.0003191952314,0.001654221203,0.0005504957006,0.0001120256587,0.0006625213593
2.8,0.0005530853752,0.0004421957305,0.0009952811057,0.002343368255,0.0007595162494,0.003102884504,0.0009659890774,0.000331972384,0.001297961461,0.0004704160095,-0.0002178236454,0.0002525923641,0.001284209385,-0.0004124539317,0.0008717554532,-0.0002961410285,-0.0001084985443,-0.0004046395728,0.0001039575855,-0.0001932249634,-8.926737794e-05,-0.001308648607,-0.0002548808641,-0.001563529471,0.0008100459212,-0.0003306548334,0.0004793910878,0.0003680389119,-0.0003168445305,5.119438138e-05,0.0007735936714,-0.0003602285387,0.0004133651327,0.003875081599,-0.0005990054167,0.003276076183,0.001573296086,-0.0003352989929,0.001237997093,0.003081942221,-0.0005164514058,0.002565490815,0.0006934058031,-0.0003028644283,0.0003905413748,0.001107178907,-0.0003667453931,0.0007404335143,5.784739477e-05,-0.0006294776047,-0.0005716302099,-0.001029669261,-1.404255996e-05,-0.001043711821,-0.0008549654499,-0.0008814193366,-0.001736384786,0.0001447231086,-0.0002365468546,-9.182374608e-05,0.00121442548,8.773239763e-05,0.001302157878,0.003953642128,-0.0002804571968,0.003673184932,0.004393000541,0.0008411074782,0.005234108019,0.003390899941,0.0004461974799,0.003837097421,0.001476814909,-0.0003328480969,0.001143966812,0.002722921371,-0.00077986839,0.001943052981,0.001747455474,0.0006105372286,0.002357992702,0.002698057913,-0.0002890491163,0.002409008796,0.002115404163,-0.0001106208671,0.002004783296,0.001639987741,-0.0002186620533,0.001421325687,0.001848767129,-7.514165277e-05,0.001773625476,0.002261223246,0.0002493682876,0.002510591534,2.04795261e-05,4.62429212e-05,6.672244729e-05,0.0002471972189,1.730139595e-05,0.0002644986149,0.001385845373,0.0003311779458,0.001717023319,0.0006244962812,0.0001385758849,0.0007630721662
2.9,0.0006956244241,0.0004425003816,0.001138124806,0.002370078075,0.0007367504014,0.003106828477,0.0009912821319,0.0003325613694,0.001323843501,0.0005403075844,-0.0002338554757,0.0003064521087,0.001349719324,-0.0004442500074,0.0009054693168,-0.000257951425,-0.000117518488,-0.000375469913,0.0001633421918,-0.0002024589147,-3.911672285e-05,-0.001256284728,-0.0002600524255,-0.001516337153,0.0008346043105,-0.000348269103,0.0004863352075,0.0004043399591,-0.0003226708472,8.166911188e-05,0.0008139788225,-0.0003895225141,0.0004244563084,0.003971733366,-0.0006343181144,0.003337415252,0.001610122882,-0.0003513808744,0.001258742008,0.003165444268,-0.0005644443608,0.002600999907,0.0007296768275,-0.0003276615244,0.0004020153032,0.001122583545,-0.0003816158673,0.0007409676772,6.272984133e-05,-0.0006098911239,-0.0005471612825,-0.0009983594109,-1.754325374e-05,-0.001015902665,-0.0008048564291,-0.0008972712993,-0.001702127728,0.0001743862677,-0.0002417983814,-6.741211373e-05,0.001234628188,7.367891807e-05,0.001308307106,0.003945688311,-0.00031205542,0.003633632891,0.00444168118,0.000830527017,0.005272208197,0.003393171724,0.0004391670121,0.003832338736,0.001538651276,-0.0003806218368,0.001158029439,0.002807033221,-0.0008235042251,0.001983528995,0.001788765856,0.000591882259,0.002380648115,0.002757350834,-0.0003238239756,0.002433526859,0.002163309351,-0.0001216718807,0.00204163747,0.001678159354,-0.0002256337415,0.001452525612,0.00186596529,-7.46864848e-05,0.001791278806,0.002300964041,0.0002469471949,0.002547911236,4.643454183e-05,4.254925673e-05,8.898379856e-05,0.0002910293063,2.576224859e-05,0.0003167915549,0.001436190143,0.0003430117273,0.00177920187,0.0006974037575,0.0001667904072,0.0008641941647
3.0,0.0008431926152,0.0004427965421,0.001285989157,0.002401205425,0.0007155731085,0.003116778534,0.001019386308,0.0003351104932,0.001354496801,0.0006104429356,-0.0002495377159,0.0003609052196,0.001413647347,-0.0004754557248,0.0009381916227,-0.0002185323055,-0.0001259125699,-0.0003444448753,0.0002216875143,-0.0002116597664,1.002774792e-05,-0.001203954131,-0.0002641822216,-0.001468136353,0.0008577190244,-0.0003657907447,0.0004919282797,0.0004395878064,-0.0003281901343,0.0001113976721,0.0008539598204,-0.0004183404045,0.0004356194159,0.004068613204,-0.0006688344668,0.003399778737,0.001649161194,-0.000368349452,0.001280811742,0.00325319745,-0.0006118339167,0.002641363534,0.0007673298164,-0.0003517345381,0.0004155952783,0.001136233873,-0.0003966548105,0.0007395790628,6.379613848e-05,-0.0005880958966,-0.0005242997582,-0.0009676736182,-2.148930712e-05,-0.0009891629253,-0.0007551107035,-0.0009103018452,-0.001665412549,0.0002022364699,-0.0002466094041,-4.437293418e-05,0.001253519672,5.97855512e-05,0.001313305223,0.003939448797,-0.000342375754,0.003597073043,0.004497003791,0.0008225330347,0.005319536826,0.003400489949,0.0004341181614,0.00383460811,0.001601476628,-0.0004284948805,0.001172981747,0.002889162372,-0.0008662527774,0.002022909594,0.001824854452,0.0005727306252,0.002397585077,0.002817177005,-0.0003588011322,0.002458375872,0.002210192059,-0.0001321719689,0.002078020091,0.0017124758,-0.0002311883391,0.001481287461,0.001881727527,-7.454109053e-05,0.001807186437,0.002337779301,0.0002451143223,0.002582893623,7.299312168e-05,4.007347313e-05,0.0001130665948,0.0003332049154,3.494521414e-05,0.0003681501296,0.001485748094,0.0003545446667,0.001840292761,0.0007691836602,0.0001962559523,0.0009654396126
3.1,0.0009968178511,0.0004435003469,0.001440318198,0.002437139164,0.0006960514933,0.003133190657,0.001050812472,0.0003396259501,0.001390438422,0.0006809392144,-0.0002648740175,0.000416065197,0.001476231774,-0.0005060065947,0.0009702251795,-0.0001779959685,-0.0001337212869,-0.0003117172553,0.0002790465154,-0.0002207804537,5.82660617e-05,-0.001151724396,-0.0002673256664,-0.001419050062,0.0008795501369,-0.0003831644868,0.0004963856501,0.0004738563027,-0.0003334108078,0.0001404454949,0.0008937491952,-0.0004466079315,0.0004471412637,0.004165683626,-0.000702693895,0.003462989731,0.001690479854,-0.0003863038928,0.001304175961,0.003344823997,-0.0006585226975,0.002686301299,0.0008062247594,-0.0003750875074,0.000431137252,0.001148235832,-0.000411860708,0.0007363751241,6.136924789e-05,-0.000564340928,-0.0005029716801,-0.000937528688,-2.595453651e-05,-0.0009634832245,-0.0007056952344,-0.0009206727795,-0.001626368014,0.0002283855711,-0.0002510116821,-2.262611103e-05,0.00127143046,4.611614134e-05,0.001317546601,0.003935892307,-0.0003712982981,0.003564594009,0.004559079692,0.000816972857,0.005376052549,0.003413413876,0.0004310795394,0.003844493416,0.001665303855,-0.000476241456,0.001189062399,0.00296933143,-0.0009079888516,0.002061342578,0.001855746325,0.0005531198276,0.002408866153,0.002877722274,-0.0003938944723,0.002483827802,0.002256077446,-0.0001420553055,0.00211402214,0.001743075876,-0.0002353866693,0.001507689207,0.00189610283,-7.475979982e-05,0.00182134303,0.002371547824,0.0002438168592,0.002615364683,0.0001001188221,3.879630567e-05,0.0001389151278,0.0003740207802,4.457474841e-05,0.0004185955286,0.001534217623,0.0003656307217,0.001899848345,0.0008398206593,0.0002265144605,0.00106633512
3.2,0.001157522318,0.0004450236066,0.001602545925,0.002478165908,0.0006782195086,0.003156385416,0.001086024007,0.00034608101,0.001432105017,0.0007518907631,-0.0002798758307,0.0004720149325,0.001537706717,-0.0005358499218,0.001001856795,-0.0001364499823,-0.0001409875231,-0.0002774375054,0.0003354763033,-0.000229780445,0.0001056958583,-0.001099632278,-0.0002695739784,-0.001369206256,0.0009002579289,-0.0004003409161,0.0004999170128,0.0005072191296,-0.000338343748,0.0001688753816,0.0009335479259,-0.0004742623745,0.0004592855514,0.004262856059,-0.0007360420842,0.003526813975,0.001734107569,-0.0004053331153,0.001328774454,0.00343988251,-0.0007044347116,0.002735447799,0.0008462098704,-0.0003977501445,0.0004484597258,0.00115871067,-0.0004272402363,0.0007314704341,5.586056864e-05,-0.0005389149799,-0.0004830544112,-0.0009078298592,-3.100822882e-05,-0.0009388380881,-0.0006565645892,-0.0009286260486,-0.001585190638,0.0002529517744,-0.00025504231,-2.090535605e-06,0.001288681433,3.272490988e-05,0.001321406343,0.003935897764,-0.0003987233386,0.003537174425,0.004627947784,0.000813675075,0.005441622859,0.003432398184,0.0004300557688,0.003862453953,0.001730128857,-0.0005236434168,0.00120648544,0.003047572688,-0.0009486086347,0.002098964053,0.001881572262,0.0005330398206,0.002414612082,0.002939113892,-0.0004290161114,0.00251009778,0.002300984368,-0.0001512674204,0.002149716948,0.001770116075,-0.0002382936839,0.001531822391,0.001909152047,-7.539483566e-05,0.001833757212,0.002402179263,0.0002429915334,0.002645170797,0.0001277559453,3.869529455e-05,0.0001664512398,0.0004137896442,5.43622627e-05,0.0004681519069,0.001581309357,0.0003761302876,0.001957439645,0.0009093144973,0.0002570678211,0.001166382318
3.3,0.001326299389,0.0004477667733,0.001774066162,0.002524468411,0.0006620799975,0.003186548408,0.001125429492,0.0003544179619,0.001479847454,0.0008233668409,-0.0002945611189,0.000528805722,0.00159829478,-0.0005649446475,0.001033350132,-9.399851161e-05,-0.0001477558662,-0.0002417543778,0.0003910332584,-0.0002386260378,0.0001524072205,-0.00104769109,-0.0002710506728,-0.001318741763,0.0009199976865,-0.000417276874,0.0005027208125,0.0005397455444,-0.0003430019588,0.0001967435856,0.0009735407403,-0.0005012521854,0.0004722885549,0.004359980727,-0.0007690204926,0.003590960235,0.001780031296,-0.0004255119399,0.001354519357,0.003537874806,-0.0007495145934,0.002788360212,0.0008871219311,-0.0004197735594,0.0004673483718,0.001167788832,-0.0004428060588,0.0007249827734,4.77754096e-05,-0.0005121549213,-0.0004643795117,-0.0008784778745,-3.67115446e-05,-0.0009151894191,-0.0006076639134,-0.0009344761975,-0.001542140111,0.0002760551552,-0.0002587429427,1.731221249e-05,0.001305576971,1.965617738e-05,0.001325233149,0.003940249548,-0.0004245703729,0.003515679175,0.004703582721,0.0008124567544,0.005516039476,0.003457797364,0.00043103026,0.003888827624,0.001795925148,-0.0005704932333,0.001225431915,0.003123922773,-0.0009880299483,0.002135892824,0.001902553677,0.0005124436315,0.002414997308,0.003001417409,-0.0004640766851,0.002537340724,0.002344921164,-0.0001597660622,0.002185155102,0.001793761393,-0.0002399751922,0.001553786201,0.001920943939,-7.649520685e-05,0.001844448732,0.002429612368,0.000242564389,0.002672176757,0.0001558264281,3.974375125e-05,0.0001955701794,0.0004528232223,6.40195107e-05,0.000516842733,0.001626748193,0.0003859090437,0.002012657237,0.0009776767733,0.0002873833623,0.001265060136
3.4,0.001504087127,0.0004521109092,0.001956198036,0.002576125818,0.0006476070544,0.003223732873,0.001169377472,0.0003645513928,0.001533928864,0.0008954103685,-0.0003089529502,0.0005864574184,0.001658200506,-0.0005932609137,0.001064939593,-5.074430356e-05,-0.0001540718895,-0.000204816193,0.0004457683312,-0.0002472904512,0.00019847788,-0.0009958981642,-0.0002719077434,-0.001267805908,0.0009389150588,-0.0004339356294,0.0005049794294,0.0005714964851,-0.0003474002381,0.0002240962469,0.001013891877,-0.0005275364162,0.0004863554603,0.004456843005,-0.0008017582599,0.003655084745,0.001828194344,-0.0004468971715,0.001381297173,0.003638255109,-0.0007937262509,0.002844528858,0.0009287864518,-0.0004412252714,0.0004875611805,0.001175603307,-0.000458574203,0.0007170291043,3.771349932e-05,-0.0004844518072,-0.0004467383079,-0.0008493765132,-4.311432038e-05,-0.0008924908336,-0.0005589308106,-0.0009386008948,-0.001497531705,0.0002978133496,-0.0002621587476,3.565460203e-05,0.001322398878,6.944181147e-06,0.001329343059,0.003949634025,-0.0004487771698,0.003500856855,0.004785906523,0.0008131312695,0.005599037793,0.003489872452,0.0004339683965,0.003923840848,0.001862638012,-0.0006165954256,0.001246042587,0.003198416981,-0.001026192156,0.002172224824,0.001918983454,0.0004912593825,0.002410242836,0.003064635095,-0.0004989851507,0.002565649944,0.002387881974,-0.0001675214517,0.002220360522,0.001814176776,-0.0002404956057,0.00157368117,0.001931550654,-7.810546258e-05,0.001853445191,0.00245381249,0.0002424500653,0.002696262555,0.000184228409,4.190847546e-05,0.0002261368845,0.0004914150422,7.327261902e-05,0.0005646876612,0.001670275466,0.000394836385,0.002065111851,0.001044927835,0.000316901421,0.001361829256
3.5,0.001691738636,0.0004584084772,0.002150147113,0.00263311627,0.0006347485728,0.003267864843,0.001218153563,0.0003763725079,0.001594526071,0.0009680377817,-0.0003230780678,0.0006449597139,0.001717605379,-0.0006207794275,0.001096825952,-6.790751809e-06,-0.0001599813832,-0.0001667721351,0.0004997230821,-0.0002557537848,0.0002439692973,-0.0009442412235,-0.0002723216755,-0.001216562899,0.000957142492,-0.0004502869513,0.0005068555407,0.0006025217761,-0.0003515549124,0.0002509668638,0.001054742016,-0.0005530840743,0.0005016579417,0.004553167662,-0.0008343662317,0.003718801431,0.001878493708,-0.0004695227507,0.001408970957,0.00374044309,-0.0008370508311,0.002903392259,0.0009710187214,-0.0004621836508,0.0005088350706,0.001182283637,-0.0004745613249,0.0007077223124,2.635891275e-05,-0.0004562481777,-0.000429889265,-0.0008204397246,-5.02522146e-05,-0.0008706919392,-0.0005102986755,-0.0009414280216,-0.001451726697,0.0003183382635,-0.0002653371906,5.30010729e-05,0.001339401979,-5.386907125e-06,0.001334015072,0.003964638352,-0.000471298886,0.003493339466,0.004874801885,0.0008155157369,0.005690317622,0.003528799292,0.0004388205862,0.003967619879,0.00193017954,-0.0006617657163,0.001268413824,0.003271085117,-0.001063055556,0.002208029561,0.001931205895,0.0004694018569,0.002400607752,0.003128706869,-0.0005336476802,0.002595059189,0.002429845301,-0.0001745160193,0.002255329281,0.001831521102,-0.0002399169655,0.001591604137,0.001941044137,-8.02648206e-05,0.001860779316,0.002474768974,0.0002425513156,0.002717320289,0.0002128365598,4.514669626e-05,0.0002579832561,0.000529826242,8.187377222e-05,0.0006117000142,0.00171165067,0.0004027849915,0.002114435662,0.001111093105,0.0003450456917,0.001456138797
3.6,0.001889991892,0.0004669735018,0.002356965393,0.002695321903,0.0006234287935,0.003318750697,0.001271979564,0.0003897537313,0.001661733295,0.001041239927,-0.0003369655983,0.0007042743284,0.001776664837,-0.0006474907544,0.001129174082,3.775626921e-05,-0.0001655296605,-0.0001277733913,0.0005529269672,-0.0002640028747,0.0002889240925,-0.0008927033081,-0.0002724890618,-0.00116519237,0.0009747970123,-0.0004663071559,0.0005084898563,0.0006328588894,-0.0003554836366,0.0002773752529,0.001096206755,-0.0005778734685,0.0005183332869,0.004648629111,-0.0008669318953,0.003781697216,0.001930776888,-0.0004933943481,0.00143738254,0.003843839809,-0.0008794841792,0.00296435563,0.00101362673,-0.0004827323299,0.0005308943996,0.00118795167,-0.0004907820703,0.0006971695996,1.445828769e-05,-0.0004280240141,-0.0004135657265,-0.0007915971866,-5.814436464e-05,-0.0008497415512,-0.0004617012066,-0.0009434192549,-0.001405120461,0.0003377342813,-0.0002683268391,6.940744218e-05,0.001356811811,-1.732261855e-05,0.001339489193,0.003985751584,-0.0004921072196,0.003493644365,0.004970122569,0.0008194362465,0.005789558816,0.003574675984,0.0004455242702,0.004020200254,0.001998425148,-0.0007058278412,0.001292597306,0.003341950079,-0.001098600121,0.002243349958,0.001939598709,0.0004467816695,0.002386380379,0.00319351512,-0.0005679663263,0.002625548794,0.002470775244,-0.0001807437918,0.002290031452,0.001845944453,-0.0002382991807,0.001607645272,0.001949494673,-8.300713424e-05,0.001866487538,0.00249249296,0.0002427595178,0.002735252477,0.0002415042245,4.940290515e-05,0.0002909071297,0.000568276841,8.960865584e-05,0.0006578854969,0.001750652317,0.0004096323912,0.002160284708,0.001176198364,0.0003712360843,0.001547434448
3.7,0.002099442529,0.0004780720902,0.002577514619,0.002762535949,0.0006135507749,0.003376086724,0.001331013572,0.0004045526731,0.001735566245,0.001114983583,-0.0003506460182,0.0007643375647,0.001835507044,-0.00067339465,0.001162112394,8.278668856e-05,-0.0001707610445,-8.797435597e-05,0.0006053959339,-0.0002720310282,0.0003333649058,-0.0008412666885,-0.0002726214624,-0.001113888151,0.0009919791401,-0.0004819791233,0.0005100000168,0.0006625330427,-0.0003592052103,0.0003033278324,0.001138376233,-0.0006018915534,0.0005364846799,0.004742863781,-0.0008995147916,0.00384334899,0.001984838779,-0.0005184843747,0.001466354404,0.00394784325,-0.0009210341618,0.003026809088,0.001056416065,-0.0005029554116,0.0005534606532,0.001192719411,-0.0005072465413,0.00068547287,2.790542712e-06,-0.0004002742379,-0.0003974836952,-0.0007627975669,-6.67918791e-05,-0.000829589446,-0.0004130767358,-0.0009450516838,-0.00135812842,0.0003560975511,-0.000271176344,8.492120702e-05,0.001374823901,-2.885750424e-05,0.001345966397,0.004013366696,-0.0005111896553,0.003502177041,0.005071695343,0.0008247291403,0.005896424484,0.003627526308,0.0004540040866,0.004081530395,0.002067211607,-0.0007486092069,0.0013186024,0.003411028817,-0.001132823705,0.002278205112,0.001944558376,0.0004233115188,0.002367869895,0.003258893406,-0.0006018385347,0.002657054871,0.00251062418,-0.0001862096451,0.002324414535,0.00185758737,-0.0002357006626,0.001621886708,0.001956971428,-8.636169961e-05,0.001870609729,0.002507015845,0.0002429565681,0.002749972414,0.00027006718,5.460631072e-05,0.0003246734907,0.000606942379,9.630069882e-05,0.0007032430779,0.001787077919,0.0004152643863,0.002202342306,0.0012402635,0.0003949035421,0.001635167042
3.8,0.002320522118,0.0004919143933,0.002812436511,0.002834471231,0.0006049989018,0.003439470133,0.001395349808,0.00042061481,0.001815964618,0.001189212844,-0.0003641503799,0.0008250624638,0.001894232426,-0.0006984994424,0.001195732984,0.0001281842205,-0.0001757185744,-4.753435395e-05,0.0006571318136,-0.0002798375956,0.000377294218,-0.0007899163627,-0.0002729394697,-0.001062855832,0.001008772369,-0.0004972922261,0.0005114801425,0.0006915578408,-0.0003627393581,0.0003288184827,0.001181314932,-0.000625133279,0.0005561816526,0.004835480797,-0.000932143463,0.003903337334,0.002040419942,-0.000544728755,0.001495691187,0.004051859377,-0.000961718217,0.00309014116,0.001099195468,-0.0005229340683,0.0005762614002,0.001196688347,-0.0005239578652,0.0006727304814,-7.865830137e-06,-0.000373484454,-0.0003813502842,-0.000734009734,-7.617725133e-05,-0.0008101869853,-0.0003643723539,-0.0009468004749,-0.001311172829,0.0003735152798,-0.0002739337028,9.9581577e-05,0.001393603539,-3.999432809e-05,0.001353609211,0.004047781136,-0.0005285489645,0.003519232172,0.005179310319,0.0008312377569,0.006010548076,0.003687297001,0.0004641700547,0.004151467056,0.002136335843,-0.0007899370384,0.001346398804,0.003478333547,-0.00116574,0.002312593547,0.001946488788,0.000398910291,0.002345399079,0.003324636287,-0.0006351578427,0.002689478444,0.002549334992,-0.0001909285396,0.002358406453,0.001866580201,-0.0002321782847,0.001634401916,0.001963543696,-9.035432351e-05,0.001873189373,0.002518388372,0.000243018143,0.002761406515,0.0002983487838,6.066920132e-05,0.0003590179851,0.0006459541601,0.0001018135112,0.0007477676712,0.001820743461,0.000419579685,0.002240323146,0.001303294454,0.0004155066366,0.00171880109
3.9,0.002553483563,0.0005086489834,0.003062132547,0.002910768952,0.0005976416043,0.003508410556,0.001465017243,0.0004377747628,0.001902792006,0.001263849582,-0.0003775097127,0.0008863398695,0.00195291282,-0.0007228213866,0.001230091434,0.000173823664,-0.000180443943,-6.620278961e-06,0.0007081217763,-0.0002874273758,0.0004206944006,-0.0007386431044,-0.0002736665757,-0.00101230968,0.001025242708,-0.0005122421276,0.00051300058,0.0007199356643,-0.0003661064838,0.0003538291805,0.001225060751,-0.0006476009873,0.0005774597635,0.004926068831,-0.0009648153716,0.00396125346,0.00209720817,-0.0005720270263,0.001525181144,0.004155306316,-0.001001561337,0.003153744979,0.001141781039,-0.0005427446227,0.0005990364168,0.001199949296,-0.000540910118,0.000659039178,-1.676159075e-05,-0.0003481116521,-0.0003648732429,-0.0007052227917,-8.62643868e-05,-0.0007914871785,-0.0003155487146,-0.00094912531,-0.001264674025,0.0003900641788,-0.0002766458161,0.0001134183626,0.001413285069,-5.074329943e-05,0.001362541769,0.004089193705,-0.0005442030932,0.003544990612,0.005292701098,0.0008388056721,0.00613150677,0.003753849205,0.0004759144057,0.00422976361,0.002205553458,-0.000829636011,0.001375917447,0.003543870662,-0.001197376355,0.002346494308,0.001945792072,0.0003735062572,0.002319298329,0.003390506766,-0.0006678153514,0.002722691414,0.00258684165,-0.0001949246549,0.002391916995,0.001873041746,-0.0002277863856,0.00164525536,0.001969281461,-9.500797015e-05,0.001874273491,0.002526680056,0.0002428178315,0.002769497887,0.0003261656192,6.748634979e-05,0.000393651969,0.0006854018779,0.000106050545,0.0007914524228,0.001851482668,0.0004224948758,0.002273977544,0.00136527386,0.0004325493714,0.001797823231
4.0,0.002798394718,0.0005283603383,0.003326755056,0.002991006505,0.0005913343196,0.003582340824,0.001539977043,0.000455856564,0.001995833607,0.001338792657,-0.0003907545293,0.0009480381275,0.002011589707,-0.0007463839065,0.0012652058,0.0002195674514,-0.0001849776551,3.458979628e-05,0.0007583373557,-0.0002948098985,0.0004635274572,-0.000687445867,-0.0002750234875,-0.0009624693545,0.00104143812,-0.0005268304179,0.0005146077017,0.0007476574477,-0.0003693274355,0.0003783300122,0.001269623047,-0.0006693038638,0.000600319183,0.005014198953,-0.000997500074,0.004016698879,0.002154844076,-0.0006002463207,0.001554597755,0.004257611847,-0.001040594473,0.003217017374,0.001183997601,-0.0005624577514,0.0006215398494,0.001202582252,-0.0005580870134,0.000644495239,-2.319863082e-05,-0.0003245733517,-0.0003477719826,-0.0006764458272,-9.6998921e-05,-0.0007734447482,-0.0002665858687,-0.0009524597856,-0.001219045654,0.0004058079077,-0.0002793582387,0.000126449669,0.001433970304,-6.112135607e-05,0.001372848948,0.004137696898,-0.0005581854125,0.003579511486,0.005411519492,0.0008472684195,0.006258787912,0.003826946475,0.0004891079923,0.004316054468,0.002274577091,-0.0008675278293,0.001407049262,0.003607636127,-0.001227771369,0.002379864758,0.001942859054,0.0003470409536,0.002289900008,0.003456240028,-0.0006997016777,0.00275653835,0.002623068027,-0.0001982302798,0.002424837747,0.001877077344,-0.0002225754206,0.001654501923,0.001974254622,-0.0001003427459,0.001873911876,0.002531978396,0.000242231321,0.002774209717,0.0003533321041,7.493586459e-05,0.0004282679687,0.0007253378694,0.0001089506175,0.0008342884869,0.001879146202,0.0004239487617,0.002303094964,0.001426151454,0.0004455987486,0.001871750203
4.1,0.003055139905,0.0005510693909,0.003606209296,0.003074703415,0.0005859225502,0.003660625965,0.001620119578,0.0004746735364,0.002094793114,0.001413916062,-0.0004039144091,0.001010001653,0.002070271704,-0.0007692166896,0.001301055015,0.0002652616845,-0.0001893593028,7.590238169e-05,0.0008077329912,-0.0003019986296,0.0005057343616,-0.0006363340291,-0.0002772227341,-0.0009135567632,0.001057387979,-0.0005410640533,0.0005163239254,0.0007747019428,-0.0003724232636,0.0004022786793,0.001314979948,-0.0006902573842,0.0006247225642,0.005099424821,-0.001030144587,0.004069280234,0.002212929577,-0.0006292283224,0.001583701255,0.004358206449,-0.001078853167,0.003279353282,0.001225676819,-0.0005821382098,0.0006435386093,0.001204656034,-0.0005754616094,0.0006291944251,-2.654594511e-05,-0.0003032440499,-0.000329789995,-0.0006477079259,-0.000108308944,-0.0007560168698,-0.0002174898005,-0.0009571995998,-0.0011746894,0.0004207939553,-0.0002821149265,0.0001386790288,0.001455726319,-7.115143722e-05,0.001384574882,0.00419326573,-0.0005705451607,0.00362272057,0.005535309939,0.0008564455117,0.006391755451,0.003906242094,0.0005035970403,0.004409839135,0.002343076203,-0.0009034332141,0.001439642989,0.003669608053,-0.001256972247,0.002412635806,0.001938056487,0.0003194748423,0.002257531329,0.003521544603,-0.0007307093564,0.002790835247,0.002657925742,-0.0002008845219,0.00245704122,0.001878776703,-0.0002165908747,0.001662185828,0.001978530736,-0.0001063754219,0.001872155315,0.002534387183,0.0002411402033,0.002775527387,0.0003796639377,8.288123883e-05,0.0004625451765,0.000765781577,0.0001104804235,0.0008762620005,0.001903600508,0.0004239055379,0.002327506046,0.001485834762,0.0004543009681,0.00194013573
4.2,0.003323427406,0.0005767362002,0.003900163607,0.003161325411,0.0005812448512,0.003742570262,0.00170526192,0.0004940283103,0.002199290231,0.001489066634,-0.0004170176223,0.001072049012,0.002128932094,-0.0007913546462,0.001337577447,0.0003107321339,-0.0001936277814,0.0001171043525,0.0008562444437,-0.0003090101033,0.0005472343403,-0.0005853303043,-0.0002804626894,-0.0008657929937,0.001073102877,-0.0005549545883,0.0005181482884,0.0008010349061,-0.0003754149223,0.0004256199839,0.001361075694,-0.000710482675,0.0006505930194,0.005181282699,-0.00106267938,0.004118603319,0.002271037702,-0.0006587980137,0.001612239688,0.004456515026,-0.001116376177,0.003340138849,0.001266652875,-0.0006018445716,0.000664808303,0.001206227817,-0.0005929969417,0.0006132308752,-2.625269568e-05,-0.000284454381,-0.0003107070767,-0.0006190585186,-0.0001201064694,-0.0007391649879,-0.0001682993529,-0.0009636866766,-0.00113198603,0.0004350507512,-0.000284957851,0.0001500929002,0.001478583325,-8.08617417e-05,0.001397721584,0.004255745524,-0.0005813479146,0.003674397609,0.005663487288,0.0008661338321,0.00652962112,0.003991268055,0.0005192007187,0.004510468774,0.002410679908,-0.0009371764455,0.001473503463,0.003729738546,-0.001285032054,0.002444706492,0.001931711189,0.000290793853,0.002222505042,0.00358610263,-0.0007607353738,0.002825367256,0.002691312555,-0.0002029321098,0.002488380445,0.00187821216,-0.0002098725376,0.001668339622,0.001982171639,-0.0001131187,0.001869052939,0.002534023584,0.0002394356869,0.00277345927,0.0004049826536,9.117284052e-05,0.0004961554941,0.0008067228622,0.0001106263797,0.000917349242,0.001924725912,0.0004223572223,0.002347083134,0.001544180361,0.0004583958854,0.002002576247
4.3,0.003602800832,0.0006052635091,0.004208064341,0.003250287507,0.000577135717,0.003827423224,0.001795146628,0.0005137132736,0.002308859902,0.001564062132,-0.000430090744,0.001133971388,0.002187507351,-0.0008128367657,0.001374670585,0.0003557808668,-0.0001978213165,0.0001579595504,0.000903787707,-0.0003158629857,0.0005879247212,-0.0005344743488,-0.0002849203865,-0.0008193947352,0.001088575196,-0.0005685172721,0.0005200579243,0.0008266088971,-0.0003783229205,0.0004482859767,0.001407818946,-0.0007300057768,0.0006778131697,0.005259294017,-0.001095023647,0.00416427037,0.00232872257,-0.0006887731563,0.001639949413,0.004551950578,-0.001153204019,0.003398746559,0.001306757586,-0.0006216289283,0.0006851286582,0.001207342891,-0.0006106472318,0.0005966956588,-2.186035822e-05,-0.0002684891704,-0.0002903495286,-0.0005905676542,-0.0001322896318,-0.000722857286,-0.0001190932631,-0.0009721907101,-0.001091283973,0.0004485860194,-0.0002879265603,0.0001606594591,0.001502533572,-9.028501564e-05,0.001412248557,0.004324841519,-0.0005906759926,0.003734165526,0.0057953204,0.0008761028881,0.006671423288,0.004081427653,0.0005357098204,0.004617137474,0.002476983386,-0.0009685917082,0.001508391678,0.003787947594,-0.001312007138,0.002475940456,0.00192409537,0.000261014242,0.002185109612,0.003649571012,-0.0007896832602,0.002859887752,0.002723112992,-0.0002044224714,0.00251869052,0.001875438543,-0.0002024540712,0.001672984472,0.001985229738,-0.0001205802296,0.001864649508,0.002531014621,0.0002370224502,0.002768037071,0.0004291238285,9.964673761e-05,0.0005287705661,0.0008481241078,0.0001093868141,0.0009575109219,0.001942414124,0.0004193260294,0.002361740153,0.001600987289,0.0004577285716,0.002058715861
4.4,0.003892653266,0.0006365004335,0.004529153699,0.003340957275,0.0005734284389,0.003914385714,0.001889442388,0.0005335115446,0.002422953932,0.001638690486,-0.00044315824,0.001195532246,0.002245897582,-0.0008337049229,0.001412192659,0.0004001842229,-0.0002019772923,0.0001982069306,0.0009502590602,-0.0003225771384,0.0006276819218,-0.0004838259253,-0.0002907437486,-0.0007745696738,0.001103780767,-0.0005817701416,0.0005220106255,0.0008513643258,-0.0003811669984,0.0004701973275,0.00145508288,-0.0007488568633,0.0007062260168,0.005332972301,-0.001127089088,0.004205883213,0.002385528323,-0.0007189728835,0.001666555439,0.004643912203,-0.001189377473,0.003454534731,0.001345816999,-0.0006415367648,0.000704280234,0.001208035222,-0.0006283593101,0.000579675912,-1.301289322e-05,-0.0002555846859,-0.0002685975791,-0.000562325382,-0.0001447453384,-0.0007070707204,-6.999670664e-05,-0.0009828916815,-0.001052888388,0.0004613871527,-0.0002910578255,0.0001703293272,0.001527532001,-9.94578608e-05,0.00142807414,0.004400112385,-0.0005986286723,0.003801483713,0.005929923086,0.0008860921825,0.006816015268,0.004175993011,0.0005528867455,0.004728879756,0.002541557302,-0.0009975297332,0.001544027569,0.003844121443,-0.001337955001,0.002506166442,0.001915418384,0.000230183336,0.00214560172,0.003711585379,-0.0008174645272,0.002894120851,0.002753201974,-0.0002054089482,0.002547793026,0.001870495385,-0.0001943629276,0.001676132457,0.001987744967,-0.0001287612942,0.001858983673,0.002525494337,0.0002338222433,0.00275931658,0.0004519488707,0.0001081207343,0.000560069605,0.0008899214183,0.0001067651089,0.0009966865271,0.001956566043,0.000414866756,0.002371432799,0.001655994954,0.00045225576,0.002108250714
4.5,0.004192243642,0.0006702461287,0.004862489771,0.003432659227,0.0005699579479,0.004002617175,0.001987746746,0.0005531984264,0.002540945172,0.001712710591,-0.0004562420521,0.001256468539,0.002303969093,-0.0008540027037,0.00144996639,0.0004436926096,-0.0002061319828,0.0002375606268,0.0009955365151,-0.0003291727829,0.0006663637322,-0.0004334660879,-0.0002980451469,-0.0007315112348,0.001118681516,-0.000594733202,0.0005239483139,0.0008752318004,-0.0003839658726,0.0004912659278,0.001502707167,-0.0007670694572,0.0007356377096,0.005401834145,-0.001158782257,0.004243051889,0.002440995948,-0.000749223695,0.001691772253,0.004731787737,-0.001224936083,0.003506851654,0.001383649955,-0.0006616068743,0.0007220430805,0.001208329088,-0.0006460741039,0.0005622549843,5.384718676e-07,-0.0002459281849,-0.000245389713,-0.0005344394366,-0.0001573523581,-0.0006917917947,-2.11862886e-05,-0.0009958661453,-0.001017052434,0.0004734235143,-0.0002943853926,0.0001790381217,0.001553498578,-0.0001084199891,0.001445078589,0.0044809682,-0.0006053220263,0.003875646174,0.006066252832,0.0008958108621,0.006962063694,0.004274107941,0.0005704668931,0.004844574834,0.002603958651,-0.001023863201,0.00158009545,0.003898116223,-0.001362932761,0.002535183462,0.001905827309,0.0001983750209,0.00210420233,0.00377176758,-0.0008439998341,0.002927767745,0.002781450382,-0.000205947847,0.002575502535,0.001863410854,-0.000185620561,0.001677790293,0.001989742781,-0.0001376551392,0.001852087642,0.002517602218,0.0002297768195,0.002747379038,0.0004733566058,0.0001163904184,0.0005897470242,0.0009320241547,0.0001027659931,0.001034790148,0.001967090662,0.0004090685195,0.002376159182,0.001708886318,0.0004420460668,0.002150932385
4.6,0.004500714642,0.00070625347,0.005206968112,0.003524680518,0.0005665635331,0.004091244051,0.002089590596,0.0005725432751,0.002662133871,0.001785854408,-0.0004693612135,0.001316493194,0.002361558423,-0.0008737742957,0.001487784127,0.0004860320587,-0.0002103203044,0.0002757117543,0.001039482267,-0.0003356698047,0.0007038124623,-0.0003834957631,-0.0003068980778,-0.0006903938408,0.001133228558,-0.0006074276629,0.0005258008953,0.0008981350312,-0.0003867370188,0.0005113980125,0.001550501086,-0.0007846796217,0.0007658214638,0.005465411323,-0.00119000617,0.004275405153,0.002494668127,-0.0007793624989,0.001715305628,0.004814959276,-0.001259916667,0.00355504261,0.001420067573,-0.0006818708335,0.0007381967394,0.001208241288,-0.0006637281624,0.0005445131256,1.893789773e-05,-0.0002396612557,-0.000220723358,-0.000507031198,-0.0001699850018,-0.0006770161999,2.71081718e-05,-0.001011079973,-0.0009839718007,0.0004846496482,-0.0002979398216,0.0001867098267,0.001580321374,-0.0001172134043,0.001463107969,0.00456667226,-0.0006108881825,0.003955784077,0.006203116827,0.0009049397507,0.007108056577,0.004374795779,0.0005881615253,0.004962957304,0.00266374083,-0.001047490158,0.001616250672,0.003949765124,-0.00138699622,0.002562768903,0.001895415201,0.000165680426,0.002061095627,0.003829735247,-0.0008692205991,0.002960514648,0.002807730065,-0.0002060972607,0.002601632804,0.001854205739,-0.0001762426693,0.00167796307,0.00199123278,-0.0001472451153,0.001843987664,0.002507482215,0.0002248501323,0.002732332347,0.0004932892908,0.0001242289806,0.0006175182714,0.0009743118008,9.739704683e-05,0.001071708848,0.001973905161,0.0004020550152,0.002375960177,0.001759294862,0.0004272749996,0.002186569861
4.7,0.004817111072,0.0007442327523,0.005561343824,0.003616277524,0.0005630912891,0.004179368814,0.002194443731,0.0005913117652,0.002785755496,0.001857829664,-0.000482531475,0.001375298189,0.002418476563,-0.0008930634303,0.001525413132,0.0005269069976,-0.0002145756088,0.0003123313888,0.001081945308,-0.0003420871498,0.0007398581577,-0.0003340326018,-0.0003173371235,-0.0006513697254,0.001147365037,-0.0006198751234,0.0005274899134,0.0009199932501,-0.0003894964474,0.0005304968026,0.001598246669,-0.0008017250842,0.0007965215846,0.005523259821,-0.001220661682,0.004302598139,0.002546093249,-0.0008092379489,0.0017368553,0.004892809298,-0.001294351852,0.003598457446,0.001454872377,-0.0007023518207,0.0007525205563,0.00120778278,-0.0006812550716,0.0005265277081,4.223193393e-05,-0.0002368838811,-0.0001946519472,-0.0004802310448,-0.0001825171296,-0.0006627481744,7.460561933e-05,-0.001028389516,-0.0009537838968,0.0004950081247,-0.0003017484252,0.0001932596996,0.001607859274,-0.0001258816207,0.001481977653,0.004656346044,-0.0006154739405,0.004040872103,0.006339184616,0.0009131358678,0.007252320483,0.004476971773,0.0006056621733,0.005082633946,0.002720461328,-0.001068335964,0.001652125364,0.003998886006,-0.001410199445,0.002588686562,0.00188423379,0.0001321958753,0.002016429665,0.003885110457,-0.0008930714097,0.002992039047,0.00283191624,-0.0002059159476,0.002626000292,0.001842896025,-0.0001662394125,0.001676656612,0.001992207224,-0.0001575030011,0.001834704223,0.002495281408,0.0002190296306,0.002714311039,0.0005117301044,0.0001313927899,0.0006431228943,0.001016628664,9.067432669e-05,0.001107302991,0.001976935738,0.000393982795,0.002370918533,0.001806813138,0.0004082162342,0.002215029373
4.8,0.005140397692,0.0007838554601,0.005924253152,0.003706682636,0.0005593962768,0.004266078913,0.002301720901,0.0006092686121,0.002910989513,0.001928322551,-0.0004957648758,0.001432557675,0.002474512336,-0.0009119123177,0.001562600018,0.0005660035838,-0.00021892943,0.0003470741538,0.001122763426,-0.0003484422586,0.0007743211675,-0.0002852077217,-0.0003293600158,-0.0006145677375,0.001161028239,-0.0006320966525,0.0005289315863,0.0009407224807,-0.0003922584942,0.0005484639865,0.001645701161,-0.0008182442852,0.000827456876,0.005574962719,-0.001250648604,0.004324314115,0.002594829358,-0.0008387115027,0.001756117855,0.00496472607,-0.00132826867,0.0036364574,0.001487856616,-0.0007230630293,0.0007647935866,0.001206958569,-0.0006985864487,0.0005083721203,7.037391578e-05,-0.0002376540239,-0.0001672801082,-0.0004541748826,-0.0001948256363,-0.0006490005189,0.000120977005,-0.001047549279,-0.000926572274,0.0005044310649,-0.0003058352059,0.000198595859,0.001635943689,-0.0001344690491,0.001501474639,0.004748977344,-0.0006192387247,0.004129738619,0.006473007292,0.0009200395446,0.007393046837,0.004579459975,0.0006226466689,0.005202106644,0.002773686909,-0.001086354979,0.001687331929,0.004045286886,-0.001432594712,0.002612692174,0.001872306153,9.801153075e-05,0.001970317684,0.003937524645,-0.0009155125629,0.003022012082,0.00285388674,-0.0002054626807,0.002648424059,0.00182949339,-0.0001556158572,0.001673877533,0.001992639063,-0.0001683878696,0.001824251193,0.002481147855,0.0002123263802,0.002693474235,0.0005286929752,0.000137632559,0.0006663255342,0.001058778518,8.262859572e-05,0.001141407114,0.001976118609,0.0003850373063,0.002361155915,0.001851001529,0.0003852298234,0.002236231352
4.9,0.005469475719,0.0008247583185,0.006294234038,0.003795110994,0.0005553445166,0.00435045551,0.002410788239,0.0006261808015,0.00303696904,0.001997000178,-0.0005090692185,0.00148793096,0.00252943451,-0.0009303605249,0.001599073986,0.0006029932203,-0.0002234110954,0.0003795821249,0.001161764265,-0.0003547505287,0.000807013736,-0.0002371634691,-0.0003429306947,-0.0005800941637,0.001174150856,-0.0006441118026,0.0005300390529,0.0009602356024,-0.0003950356759,0.0005651999264,0.001692598693,-0.0008342753869,0.0008583233057,0.005620127141,-0.001279866469,0.004340260672,0.002640447475,-0.0008676583566,0.001772789118,0.005030108474,-0.001361687136,0.003668421338,0.001518799887,-0.0007440061122,0.0007747937747,0.001205765311,-0.0007156524007,0.00049011291,0.0001032213319,-0.0002419811771,-0.0001387598453,-0.0004290033286,-0.0002067926304,-0.000635795959,0.0001658473227,-0.001068221831,-0.0009023745085,0.0005128399505,-0.0003102205362,0.0002026194144,0.001664379313,-0.0001430205266,0.001521358787,0.004843432067,-0.0006223517983,0.004221080269,0.006603043447,0.0009252841263,0.007528327574,0.004681014633,0.0006387867475,0.00531980138,0.002822997339,-0.001101532943,0.001721464397,0.004088768347,-0.001454232611,0.002634535736,0.001859634388,6.320444447e-05,0.001922838832,0.003986618404,-0.0009365216029,0.003050096801,0.002873518716,-0.0002047962531,0.002668722463,0.001814003556,-0.0001443727485,0.001669630807,0.001992479624,-0.000179845866,0.001812633758,0.00246522728,0.0002047741149,0.002670001395,0.0005442073657,0.0001427087585,0.0006869161242,0.001100521712,7.330913839e-05,0.00117383085,0.001971400802,0.0003754265026,0.002346827305,0.001891396632,0.0003587477691,0.002250144401
5.0,0.005803197679,0.0008665478471,0.006669745526,0.003880767344,0.000550814945,0.004431582289,0.002520970353,0.0006418213188,0.003162791672,0.002063512975,-0.0005224474562,0.001541065519,0.002582992905,-0.0009484438094,0.001634549096,0.0006375362178,-0.0002280471651,0.0004094890528,0.00119876558,-0.0003610248453,0.0008377407352,-0.0001900523027,-0.0003579829547,-0.0005480352574,0.001186661544,-0.0006559376248,0.0005307239193,0.0009784415858,-0.0003978386188,0.000580602967,0.001738651588,-0.0008498552587,0.0008887963298,0.005658378397,-0.001308214974,0.004350163423,0.002682533181,-0.0008959675763,0.001786565605,0.005088371286,-0.001394618711,0.003693752576,0.001547466729,-0.0007651700786,0.0007822966504,0.001204187035,-0.0007323817594,0.0004718052755,0.0001405284038,-0.0002498177435,-0.0001092893397,-0.0004048637526,-0.0002183064046,-0.0006231701572,0.0002087980967,-0.001089988835,-0.0008811907388,0.0005201440789,-0.000314920422,0.0002052236569,0.001692944458,-0.0001515808099,0.001541363648,0.004938470302,-0.0006249886489,0.004313481654,0.006727691729,0.0009285079083,0.007656199637,0.004780345655,0.0006537568786,0.005434102534,0.002867988728,-0.001113890159,0.001754098569,0.004129123267,-0.00147516199,0.002653961277,0.001846199451,2.78382775e-05,0.001874037729,0.004032037031,-0.0009560934095,0.003075943622,0.002890683871,-0.0002039759317,0.002686707939,0.001796422995,-0.0001325074952,0.001663915499,0.001991656532,-0.0001918111934,0.001799845338,0.002447658487,0.0001964275297,0.002644086017,0.0005583008179,0.0001464087336,0.0007047095515,0.001141576372,6.27842091e-05,0.001204360581,0.001962740436,0.0003653724432,0.002328112879,0.001927518976,0.0003292579056,0.002256776882
5.1,0.006140380803,0.0009088054441,0.007049186247,0.003962853589,0.0005457013931,0.004508554982,0.002631558582,0.0006559733461,0.003287531928,0.002127497513,-0.0005358970297,0.001591600484,0.002634919203,-0.0009661929636,0.00166872624,0.0006692858254,-0.0002328606772,0.0004364251481,0.001233575223,-0.0003672752036,0.0008663000197,-0.0001440361856,-0.00037442457,-0.0005184607556,0.001198485186,-0.0006675877506,0.000530897435,0.0009952445463,-0.000400676007,0.0005945685393,0.00178355206,-0.0008650184146,0.0009185336456,0.005689355356,-0.001335594317,0.00435376104,0.002720686385,-0.0009235412919,0.001797145093,0.005138952548,-0.001427064653,0.003711887896,0.001573605598,-0.0007865310437,0.0007870745547,0.001202190191,-0.0007487025174,0.0004534876734,0.0001819402738,-0.0002610539017,-7.911362786e-05,-0.0003819138401,-0.0002292621212,-0.0006111759612,0.000249373693,-0.001112365374,-0.0008629916808,0.0005262387639,-0.0003199455164,0.0002062932475,0.001721391815,-0.0001601938875,0.001561197927,0.005032767164,-0.0006273266474,0.004405440516,0.006845329111,0.0009293675421,0.007774696654,0.004876147355,0.0006672436841,0.005543391039,0.002908277017,-0.001123484807,0.00178479221,0.004166135256,-0.001495429604,0.002670705652,0.001831954466,-8.03063221e-06,0.001823923834,0.004073424353,-0.0009742390103,0.003099185342,0.002905243909,-0.0002030620006,0.002702181908,0.001776735259,-0.0001200153892,0.00165671987,0.001990072406,-0.0002042081037,0.001785864302,0.002428568205,0.0001873598643,0.002615928069,0.000570982299,0.0001485620347,0.0007195443338,0.001181623451,5.11391779e-05,0.001232762629,0.001950106368,0.0003551020258,0.002305208394,0.001958879599,0.0002972878173,0.002256167417
5.2,0.006479819654,0.0009510928242,0.007430912478,0.004040577742,0.0005399146009,0.004580492343,0.002741820936,0.0006684348739,0.00341025581,0.002188580379,-0.0005494091848,0.001639171194,0.002684928514,-0.0009836327327,0.001701295781,0.0006978930069,-0.0002378701861,0.0004600228208,0.001265991545,-0.0003735084113,0.0008924831334,-9.928605952e-05,-0.0003921414216,-0.0004914274812,0.001209543362,-0.0006790716375,0.0005304717244,0.001010543395,-0.0004035545243,0.0006069888708,0.001826975113,-0.000879795914,0.0009471791993,0.005712710058,-0.001361905685,0.004350804373,0.002754520706,-0.0009502934681,0.001804227238,0.005181324522,-0.00145901438,0.003722310142,0.001596950866,-0.0008080530818,0.0007888977845,0.001199719483,-0.000764542618,0.000435176865,0.0002269939789,-0.0002755193953,-4.852541635e-05,-0.0003603245903,-0.0002395630538,-0.0005998876441,0.00028709155,-0.001134817841,-0.0008477262907,0.0005310046692,-0.0003253002404,0.0002057044288,0.001749450668,-0.0001689021256,0.001580548542,0.005124938676,-0.0006295403448,0.004495398332,0.006954353306,0.0009275518452,0.007881905151,0.004967129507,0.0006789552073,0.005646084715,0.002943501838,-0.001130414922,0.001813086917,0.004199578035,-0.001515079518,0.002684498517,0.001816815444,-4.434270988e-05,0.001772472734,0.004110417926,-0.0009909833581,0.003119434568,0.002917048474,-0.0002021163043,0.002714932169,0.001754908497,-0.0001068911476,0.001648017349,0.001987604601,-0.0002169530735,0.001770651528,0.002408066635,0.0001776597011,0.002585726336,0.0005822294526,0.0001490510711,0.0007312805237,0.001220314274,3.847383181e-05,0.001258788105,0.001933477615,0.0003448379683,0.002278315584,0.001984985563,0.0002633907716,0.002248376335
5.3,0.006820298823,0.0009929576536,0.007813256477,0.004113164887,0.0005333842505,0.004646549138,0.002851014059,0.0006790235482,0.003530037607,0.00224638364,-0.0005629683082,0.001683415332,0.002732722645,-0.001000780856,0.001731941789,0.0007230123162,-0.000243088658,0.0004799236583,0.001295804935,-0.0003797278771,0.0009160770581,-5.598163256e-05,-0.0004110005479,-0.0004669821805,0.00121975544,-0.0006903941214,0.0005293613189,0.001024232745,-0.0004064788448,0.0006177539,0.001868583226,-0.0008942143225,0.0009743689034,0.005728112699,-0.001387051925,0.004341060773,0.002783664728,-0.0009761487081,0.00180751602,0.005215008556,-0.001490444021,0.003724564536,0.001617228623,-0.0008296900398,0.0007875385835,0.001196695798,-0.0007798310297,0.0004168647678,0.0002751269238,-0.0002929917355,-1.786481171e-05,-0.0003402809871,-0.0002491225313,-0.0005894035185,0.0003214534516,-0.001156781749,-0.0008353282978,0.0005343092264,-0.0003309822752,0.0002033269512,0.001776831221,-0.0001777453419,0.001599085879,0.005213572292,-0.0006317968245,0.004581775467,0.007053226934,0.0009227948097,0.007976021743,0.00505204929,0.0006886293777,0.005740678667,0.002973331356,-0.001134818031,0.001838513324,0.00422921783,-0.001534152306,0.002695065524,0.001800653405,-8.102156888e-05,0.001719631836,0.004142648465,-0.001006362644,0.00313628582,0.002925937123,-0.0002012028612,0.002724734262,0.00173089536,-9.313078225e-05,0.001637764578,0.001984106221,-0.0002299564037,0.001754149817,0.002386244594,0.000167427215,0.002553671809,0.0005919820789,0.0001478160515,0.0007397981304,0.001257280049,2.489864453e-05,0.001282178693,0.001912843404,0.0003347906822,0.002247634086,0.002005345794,0.0002281342191,0.002233480013
5.4,0.007160606347,0.001033939369,0.008194545716,0.004179870152,0.0005260609188,0.004705931071,0.002958396857,0.000687581333,0.00364597819,0.002300531926,-0.0005765513662,0.001723980559,0.002777995337,-0.00101764728,0.001760348057,0.0007443088678,-0.0002485224045,0.0004957864633,0.00132280079,-0.0003859335412,0.000936867249,-1.43117308e-05,-0.0004308514011,-0.0004451631319,0.001229040191,-0.0007015553861,0.0005274848053,0.001036205137,-0.0004094517439,0.0006267533927,0.001908032623,-0.000908294864,0.0009997377586,0.005735260998,-0.001410938466,0.004324322532,0.002807766754,-0.001001041479,0.001806725275,0.005239591992,-0.001521315277,0.003718276715,0.001634165517,-0.0008513878655,0.0007827776515,0.001193016851,-0.0007944990251,0.0003985178261,0.0003256893308,-0.0003132069508,1.248238004e-05,-0.0003219795883,-0.0002578662156,-0.0005798458039,0.0003519568176,-0.00117767628,-0.0008257194626,0.0005360100707,-0.0003369824903,0.0001990275804,0.001803230799,-0.0001867598431,0.001616470956,0.005297260437,-0.0006342513364,0.004663009101,0.007140520135,0.000914886637,0.008055406772,0.005129741851,0.0006960411896,0.005825783041,0.002997468847,-0.001136868765,0.001860600082,0.004254819181,-0.001552683816,0.002702135365,0.001783291186,-0.0001179591817,0.001665332004,0.004169744926,-0.001020422152,0.003149322774,0.00293174454,-0.0002003883357,0.002731356204,0.001704635595,-7.87339276e-05,0.001625901667,0.001979408528,-0.0002431230788,0.001736285449,0.002363172148,0.0001567705073,0.002519942655,0.0006001417181,0.0001448555886,0.0007449973068,0.001292143347,1.052900828e-05,0.001302672355,0.001888204539,0.0003251513257,0.002213355864,0.002019478965,0.0001920894781,0.002211568443
5.5,0.007499547819,0.001073575118,0.008573122937,0.004239992825,0.0005179177198,0.004757910545,0.003063244635,0.0006939784219,0.003757223057,0.002350660337,-0.000590127555,0.001760532782,0.002820438559,-0.001034233589,0.001786204971,0.0007614658087,-0.0002541702596,0.0005072955491,0.001346763476,-0.0003921219915,0.0009546414849,2.552512675e-05,-0.0004515260236,-0.0004260008968,0.00123731734,-0.000712551332,0.0005247660077,0.001046353887,-0.0004124743149,0.0006338795716,0.001944980178,-0.0009220528198,0.001022927358,0.005733891144,-0.001433474996,0.004300416148,0.002826502753,-0.001024916217,0.001801586536,0.0052547435,-0.001551574701,0.003703168799,0.001647498671,-0.0008730870849,0.0007744115857,0.001188560043,-0.0008084815865,0.0003800784561,0.00037795676,-0.0003358689559,4.208780411e-05,-0.0003056237033,-0.0002657342946,-0.0005713579978,0.0003781086537,-0.001196916747,-0.0008188080932,0.0005359594085,-0.0003432852217,0.0001926741868,0.001828340763,-0.0001959774242,0.001632363339,0.005374634515,-0.000637043227,0.004737591288,0.007214948017,0.0009036819423,0.00811862996,0.0051991471,0.0007010083507,0.00590015545,0.003015660381,-0.001136775147,0.001878885235,0.004276152312,-0.001570703451,0.002705448861,0.001764507827,-0.0001550039297,0.001609503897,0.004191343967,-0.001033215411,0.003158128556,0.002934306257,-0.0001997419516,0.002734564306,0.001676060252,-6.370667964e-05,0.001612353573,0.001973324415,-0.0002563530973,0.001716971318,0.002338897948,0.0001458026064,0.002484700555,0.0006065737923,0.0001402258982,0.0007467996905,0.001324530041,-4.521846953e-06,0.001320008194,0.001859575833,0.0003160861466,0.002175661979,0.002026923438,0.0001558211713,0.002182744609
5.6,0.007835960416,0.001111405559,0.008947365976,0.004292889968,0.0005089513563,0.004801841324,0.00316486215,0.0006981159771,0.003862978127,0.002396421927,-0.0006036582146,0.001792763712,0.002859748315,-0.001050532671,0.001809215644,0.0007741913072,-0.0002600231021,0.0005141682051,0.001367480343,-0.0003982867245,0.0009691936189,6.332044183e-05,-0.0004728396376,-0.0004095191957,0.001244508329,-0.0007233742092,0.00052113412,0.001054575522,-0.0004155461964,0.0006390293259,0.00197908973,-0.0009354971311,0.001043592599,0.005723786744,-0.001454577977,0.004269208767,0.002839585244,-0.001047728537,0.001791856707,0.00526022354,-0.001581153537,0.003679070003,0.00165698466,-0.000894725191,0.0007622594693,0.001183185994,-0.0008217187525,0.0003614672413,0.0004311429399,-0.0003606570812,7.048585873e-05,-0.0002914179799,-0.0002726833717,-0.0005641013516,0.0003994447339,-0.001213929184,-0.0008144844499,0.0005340079327,-0.0003498687435,0.0001841391893,0.001851852762,-0.0002054244038,0.001646428358,0.005444396756,-0.0006402922105,0.004804104545,0.00727540046,0.0008891048167,0.008164505276,0.005259331169,0.0007033954068,0.005962726575,0.003027701213,-0.001134773446,0.001892927766,0.004292999163,-0.001588232244,0.002704766919,0.001744051615,-0.0001919562526,0.001552095362,0.004207100179,-0.001044804571,0.003162295608,0.002933462403,-0.0001993346939,0.002734127709,0.001645095406,-4.80643566e-05,0.001597031049,0.001965652216,-0.0002695417103,0.001696110506,0.00231344847,0.000134639236,0.002448087706,0.0006111081131,0.0001340399349,0.000745148048,0.001354079016,-2.014909138e-05,0.001333929925,0.00182698842,0.0003077321815,0.002134720601,0.002027247701,0.0001198761919,0.002147123892
5.7,0.008168725666,0.001146980219,0.009315705885,0.004337987871,0.0004991824184,0.004837170289,0.003262594368,0.0006999276111,0.003962521979,0.002437493699,-0.0006170969639,0.001820396736,0.002895628758,-0.001066528581,0.001829100177,0.0007822241589,-0.000266063707,0.0005161604519,0.00138474489,-0.0004044184526,0.000980326437,9.885577417e-05,-0.0004945924627,-0.0003957366885,0.001250535979,-0.0007340133517,0.0005165226273,0.001060771109,-0.0004186657368,0.0006421053724,0.002010037013,-0.000948630125,0.001061406888,0.005704782843,-0.00147417289,0.004230609953,0.002846770663,-0.001069447318,0.001777323345,0.005255888383,-0.001609968255,0.003645920128,0.001662406204,-0.0009162386206,0.0007461675832,0.001176741258,-0.0008341565852,0.0003425846727,0.0004844157082,-0.0003872334106,9.718229752e-05,-0.0002795641159,-0.0002786879729,-0.0005582520887,0.0004155529864,-0.001228170342,-0.0008126173551,0.0005300074369,-0.0003567058204,0.0001733016165,0.001873463483,-0.0002151208491,0.001658342634,0.005505348184,-0.0006440951662,0.004861253018,0.007320963372,0.0008711509305,0.008192114302,0.005309502122,0.0007031164713,0.006012618594,0.003033438673,-0.001131121202,0.00190231747,0.004305156283,-0.001605281277,0.002699875006,0.00172165915,-0.0002285727868,0.001493086363,0.004216693341,-0.001055261126,0.003161432215,0.002929058616,-0.0001992380061,0.00272982061,0.001611663722,-3.183314727e-05,0.001579830575,0.001956179347,-0.0002825802844,0.001673599063,0.002286826764,0.0001233970971,0.002410223861,0.0006135370381,0.0001264647949,0.0007400018329,0.001380447906,-3.626037762e-05,0.001344187529,0.001790490678,0.0003001944013,0.002090685079,0.00202005984,8.477271419e-05,0.002104832554
5.8,0.008496779996,0.001179862339,0.009676642336,0.004374790295,0.000488654964,0.004863445259,0.003355834491,0.0006993797845,0.004055214276,0.002473580653,-0.0006303899593,0.001843190693,0.002927794283,-0.001082196532,0.001845597751,0.0007853374775,-0.0002722668724,0.000513070605,0.001398358705,-0.0004105054021,0.0009878533025,0.0001319027047,-0.0005165725899,-0.0003846698852,0.001255323253,-0.000744455894,0.0005108673588,0.001064846367,-0.0004218300867,0.0006430162806,0.002037513086,-0.0009614473235,0.001076065763,0.005676764046,-0.001492194921,0.004184569125,0.002847864092,-0.001090057265,0.001757806827,0.005241687952,-0.001637921836,0.003603766116,0.00166357597,-0.0009375640368,0.0007260119336,0.001169059611,-0.0008457475027,0.0003233121079,0.0005369154121,-0.0004152491043,0.0001216663077,-0.0002702582189,-0.0002837415524,-0.0005539997713,0.0004260967417,-0.001239151761,-0.0008130550197,0.0005238120434,-0.0003637642775,0.0001600477659,0.00189287773,-0.0002250800734,0.001667797657,0.005556411959,-0.0006485236172,0.004907888341,0.007350931646,0.0008498870869,0.008200818733,0.005349020112,0.0007001366748,0.006049156786,0.003032771257,-0.001126088929,0.001906682328,0.004312434597,-0.001621850856,0.002690583742,0.001697075131,-0.0002645759252,0.001432499206,0.004219830914,-0.00106466607,0.003155164844,0.002920944607,-0.0001995221516,0.002721422456,0.001575683959,-1.505003744e-05,0.001560633922,0.001944685576,-0.0002953582434,0.001649327333,0.002259010786,0.0001121924598,0.002371203246,0.0006136142702,0.0001177154023,0.0007313296726,0.001403314437,-5.277749749e-05,0.001350536939,0.001750147051,0.0002935446293,0.00204369168,0.002005015108,5.099012024e-05,0.002056005228
5.9,0.008819122671,0.001209633432,0.0100287561,0.004402883164,0.0004774355562,0.00488031872,0.003444029396,0.0006964713524,0.004140500748,0.002504417908,-0.0006434762254,0.001860941683,0.00295596997,-0.001097502959,0.001858467012,0.0007833403449,-0.0002785997986,0.0005047405463,0.001408132365,-0.0004165336202,0.0009915987447,0.0001622223799,-0.0005385593281,-0.0003763369482,0.00125879167,-0.0007546874032,0.000504104267,0.001066710942,-0.0004250352176,0.0006416757243,0.002061226667,-0.0009739373182,0.001087289349,0.005639658373,-0.001508588185,0.004131070188,0.00284272093,-0.001109561108,0.001733159821,0.005217658797,-0.001664905729,0.003552753068,0.001660337689,-0.000958638979,0.0007016987099,0.001159962526,-0.0008564500757,0.0003035124505,0.0005877719268,-0.0004443470684,0.0001434248584,-0.0002636894157,-0.0002878568115,-0.0005515462272,0.0004308323764,-0.001246461692,-0.0008156293152,0.0005152784619,-0.0003710074464,0.0001442710155,0.001909810193,-0.000235308324,0.001674501869,0.005596652018,-0.0006536218762,0.004943030142,0.007364814538,0.0008254486135,0.008190263152,0.005377402468,0.0006944723733,0.006071874841,0.003025645062,-0.001119951464,0.001905693598,0.004314657078,-0.001637930421,0.002676726658,0.001670068399,-0.0002996653721,0.001370403026,0.004216246614,-0.001073109032,0.003143137583,0.002908971371,-0.0002002541196,0.002708717251,0.001537069916,2.238601966e-06,0.001539308518,0.001930945773,-0.0003077655764,0.001623180197,0.002229951644,0.0001011400191,0.002331091663,0.0006110580247,0.0001080441831,0.0007191022078,0.001422373121,-6.963512546e-05,0.001352737996,0.001706034685,0.0002878228963,0.001993857581,0.001981820803,1.896085519e-05,0.002000781658
6.0,0.00913482124,0.001235897774,0.01037071901,0.004421935894,0.0004656119171,0.004887547811,0.003526683039,0.0006912324131,0.004217915452,0.002529771297,-0.0006562880827,0.001873483214,0.002979891181,-0.001112405648,0.001867485533,0.0007760776868,-0.0002850226907,0.0004910549962,0.001413885809,-0.0004224873019,0.0009913985076,0.0001895647265,-0.0005603264513,-0.0003707617248,0.001260859953,-0.0007646924003,0.0004961675524,0.001066277419,-0.0004282758117,0.0006380016073,0.002080906051,-0.0009860816913,0.00109482436,0.005593430206,-0.001523304702,0.004070125504,0.002831244549,-0.001127979858,0.001703264691,0.005183914156,-0.001690802284,0.003493111872,0.001652565407,-0.0009794021824,0.0006731632242,0.001149260055,-0.0008662286945,0.0002830313602,0.000636119324,-0.0004741621193,0.0001619572047,-0.0002600392167,-0.0002910652133,-0.00055110443,0.0004296177736,-0.001249778808,-0.0008201610339,0.0005042659991,-0.0003783943498,0.0001258716492,0.001923986674,-0.0002458045035,0.00167818217,0.005625287503,-0.0006594057888,0.004965881714,0.007362334528,0.0007980348725,0.008160369401,0.005394324487,0.0006861900854,0.006080514573,0.003012048751,-0.001112979259,0.001899069491,0.004311655777,-0.001653498819,0.002658156958,0.001640442465,-0.0003335297929,0.001306912672,0.004205697997,-0.001080686552,0.003125011445,0.002892988551,-0.0002014949647,0.002691493586,0.001495730901,1.997865223e-05,0.001515709553,0.001914732057,-0.0003196948623,0.001595037195,0.002199572233,9.035199237e-05,0.002289924226,0.000605559964,9.77275788e-05,0.0007032875428,0.001437327936,-8.677628328e-05,0.001350551653,0.00165823846,0.0002830415991,0.001941280059,0.001950238265,-1.093507817e-05,0.001939303187
6.1,0.009443015121,0.001258287007,0.01070130213,0.004431699947,0.0004532912273,0.004884991174,0.003603358596,0.0006837225752,0.004287081172,0.002549437097,-0.0006687517232,0.001880685373,0.002999303391,-0.001126853957,0.001872449433,0.0007634290203,-0.0002914895349,0.0004719394854,0.001415448884,-0.00042834907,0.0009870998139,0.0002136680615,-0.0005816451918,-0.0003679771303,0.001261443475,-0.000774454779,0.0004869886961,0.001063460834,-0.0004315449814,0.0006319158523,0.002096301392,-0.0009978549699,0.001098446422,0.005538075738,-0.001536303894,0.004001771843,0.00281337962,-0.001145349929,0.001668029691,0.005140633453,-0.001715487392,0.003425146061,0.00164016196,-0.0009997937653,0.0006403681945,0.001136753023,-0.00087505339,0.000261699633,0.0006811116629,-0.0005043239898,0.0001767876731,-0.000259481004,-0.0002934157714,-0.0005528967754,0.0004224124835,-0.001248877245,-0.0008264647618,0.0004906373549,-0.0003858797055,0.0001047576494,0.001935145793,-0.0002565598662,0.001678585927,0.005641703657,-0.0006658621363,0.004975841521,0.007343421056,0.0007679031076,0.008111324164,0.00539961683,0.0006754041281,0.006075020959,0.002992007997,-0.00110542948,0.001886578517,0.004303269948,-0.001668524532,0.002634745416,0.001608041502,-0.0003658582339,0.001242183268,0.004187966695,-0.00108750004,0.003100466655,0.002872843974,-0.0002032968802,0.002669547094,0.001451575509,3.810908076e-05,0.00148968459,0.00189581566,-0.0003310423171,0.001564773343,0.002167766988,7.993735979e-05,0.002247704348,0.0005967978969,8.705126995e-05,0.0006838491669,0.001447884347,-0.0001041459114,0.001343738435,0.001606845769,0.0002791917071,0.001886037477,0.001910082859,-3.83726637e-05,0.001871710195
6.2,0.009742918283,0.001276464848,0.01101938313,0.00443200571,0.0004405980111,0.004872603721,0.00367368009,0.0006740287747,0.004347708865,0.002563241804,-0.0006807879503,0.001882453854,0.003013963342,-0.001140789148,0.001873174194,0.0007453069612,-0.0002979490111,0.0004473579501,0.001412662741,-0.0004341001201,0.0009785626209,0.0002342603844,-0.0006022875094,-0.0003680271251,0.00126045497,-0.0007839581772,0.0004764967926,0.001058179402,-0.000434833886,0.0006233455161,0.002107188003,-0.001009224661,0.001097963342,0.005473623047,-0.001547552272,0.003926070775,0.00278910337,-0.001161717643,0.001627385727,0.005088053503,-0.001738833096,0.003349220407,0.001623057521,-0.001019755317,0.0006033022038,0.001122236831,-0.0008828997836,0.0002393370472,0.000721943899,-0.0005344667696,0.0001874771295,-0.0002621784776,-0.0002949733671,-0.0005571518448,0.0004092729461,-0.001243626605,-0.0008343536594,0.0004742611901,-0.0003934139737,8.084721635e-05,0.001943042077,-0.0002675577577,0.001675484319,0.00564545983,-0.0006729488775,0.004972510953,0.007308200588,0.000735360903,0.008043561491,0.005393260383,0.000662272998,0.006055533381,0.002965580413,-0.00109753698,0.001868043433,0.004289347166,-0.001682965726,0.002606381441,0.001572753962,-0.0003963515325,0.001176402429,0.004162863978,-0.001093653713,0.003069210265,0.002848386879,-0.0002057005458,0.002642686333,0.001404519653,5.656163601e-05,0.001461081289,0.001873969326,-0.0003417082483,0.001532261078,0.002134403623,7.000106582e-05,0.002204404689,0.0005844491384,7.629646737e-05,0.0006607456058,0.001453745855,-0.0001216856083,0.001332060247,0.001551942936,0.000276249234,0.00182819217,0.001861223511,-6.308138394e-05,0.001798142128
6.3,0.01003382206,0.001290131778,0.01132395384,0.004422758781,0.0004276716457,0.004850430426,0.003737333954,0.0006622627737,0.004399596728,0.002571042587,-0.0006923130637,0.001878729523,0.003023642133,-0.001154144865,0.001869497269,0.0007216562423,-0.0003043455423,0.0004173107,0.001405382482,-0.0004397202233,0.0009656622588,0.0002510635096,-0.0006220303608,-0.0003709668512,0.001257806551,-0.0007931863817,0.0004646201698,0.001050356757,-0.0004381313991,0.0006122253582,0.002113370778,-0.001020151473,0.001093219305,0.005400136979,-0.001557022993,0.003843113986,0.00275841816,-0.001177132442,0.001581285718,0.005026462389,-0.001760710057,0.003265752332,0.001601208424,-0.001039229787,0.0005619786367,0.001105506823,-0.0008897491807,0.0002157576426,0.0007578785072,-0.0005642428437,0.0001936356635,-0.0002682820481,-0.0002958167224,-0.0005640987705,0.0003903432187,-0.001233988922,-0.0008436457033,0.0004550166453,-0.0004009435866,5.407305865e-05,0.001947450546,-0.0002787734596,0.001668677086,0.005636294369,-0.000680596369,0.004955698,0.007256983947,0.000700757651,0.007957741598,0.00537537889,0.0006469946516,0.006022373542,0.002932851875,-0.001089505584,0.00184334629,0.004269748569,-0.001696770159,0.00257297841,0.001534514546,-0.000424732648,0.001109781898,0.004130241622,-0.001099252153,0.003030989468,0.002819474452,-0.0002087329691,0.002610741483,0.001354498048,7.525978476e-05,0.001429757832,0.00184897092,-0.0003515976492,0.001497373271,0.002099327361,6.064292583e-05,0.002159970287,0.0005682032304,6.572827233e-05,0.0006339315027,0.001454617858,-0.0001393318826,0.001315285976,0.001493614817,0.0002741801914,0.001767795008,0.001803583281,-8.484200257e-05,0.001718741279
6.4,0.01031509854,0.001299029522,0.01161412806,0.004403936205,0.0004146636324,0.004818599838,0.0037940704,0.0006485584061,0.004442628807,0.002572728433,-0.0007032398794,0.001869488553,0.003028129842,-0.001166847775,0.001861282068,0.0006924534427,-0.0003106204749,0.0003818329678,0.001393480802,-0.0004451876659,0.0009482931364,0.0002638000164,-0.0006406609951,-0.0003768609788,0.001253412579,-0.0008021237723,0.0004512888065,0.00103992517,-0.000441423939,0.0005985012311,0.002114688907,-0.001030589799,0.001084099108,0.00531772692,-0.001564695912,0.003753031008,0.002721346725,-0.001191639682,0.001529707043,0.004956195003,-0.001780989939,0.003175205064,0.00157459544,-0.001058160864,0.0005164345758,0.001086365052,-0.0008955891396,0.0001907759125,0.0007882731983,-0.000593335549,0.0001949376493,-0.0002779234716,-0.0002960358647,-0.0005739593362,0.0003658380821,-0.001220011058,-0.0008541729755,0.0004327988981,-0.0004084113827,2.438751543e-05,0.001948171906,-0.0002901741424,0.001657997764,0.005614125208,-0.0006887095377,0.00492541567,0.007190251046,0.0006644755108,0.007854726557,0.00534622911,0.0006298009272,0.005976030038,0.002893934755,-0.001081500741,0.001812434014,0.004244357211,-0.001709875127,0.002534482083,0.001493303108,-0.0004507539198,0.001042549188,0.004090004843,-0.001104396815,0.002985608028,0.002785979317,-0.0002124056234,0.002573573693,0.001301476395,9.411757737e-05,0.001395593973,0.001820608345,-0.0003606215007,0.001459986844,0.00206236751,5.195585431e-05,0.002114323365,0.000547774294,5.558533545e-05,0.0006033596294,0.001450216851,-0.0001570178331,0.001293199018,0.001431947741,0.0002729431958,0.001704890937,0.001737141445,-0.0001034815324,0.001633659913
6.5,0.01058620389,0.001302944965,0.01188914886,0.004375582437,0.0004017347353,0.004777317173,0.003843703896,0.0006330685611,0.004476772458,0.002568221353,-0.0007134788675,0.001854742485,0.003027240465,-0.001178818375,0.00184842209,0.000657707056,-0.0003167133352,0.0003409937208,0.001376851847,-0.0004504791941,0.0009263726531,0.0002722015074,-0.0006579824502,-0.0003857809428,0.001247192605,-0.0008107557031,0.0004364369015,0.001026828724,-0.0004446954373,0.0005821332863,0.002111019643,-0.001040488456,0.001070531187,0.005226554405,-0.001570558794,0.003655995611,0.00267792901,-0.001205273184,0.001472655826,0.004877628289,-0.001799547726,0.003078080564,0.001543220453,-0.001076491685,0.000466728768,0.00106462765,-0.0009004147725,0.0001642128778,0.000812601884,-0.0006214652972,0.0001911365868,-0.0002912102093,-0.0002957290959,-0.0005869393052,0.0003360171894,-0.001201810644,-0.0008657934545,0.000407524352,-0.0004157572331,-8.23288108e-06,0.001945037059,-0.0003017189337,0.001643318126,0.005579044888,-0.0006971708388,0.004881874049,0.007108632884,0.0006269203233,0.007735553208,0.005306188202,0.0006109513627,0.005917139565,0.002848967927,-0.001073644967,0.00177532296,0.004213086575,-0.001722207803,0.002490878772,0.001449139155,-0.000474200334,0.0009749388207,0.004042122682,-0.001109181446,0.002932941236,0.002747795446,-0.0002167127246,0.002531082722,0.001245460975,0.0001130390135,0.001358499988,0.001788685239,-0.0003686988538,0.001419986386,0.002023345923,4.402315213e-05,0.002067369076,0.0005229128253,4.60703997e-05,0.000568983225,0.001440280448,-0.0001746764943,0.001265603954,0.001367034629,0.0002724899589,0.001639524588,0.001661936788,-0.0001188678378,0.00154306895
6.6,0.01084668085,0.001301713149,0.012148394,0.004337804586,0.0003890520452,0.004726856631,0.003886112048,0.0006159619232,0.004502073971,0.002557476921,-0.0007229393331,0.001834537588,0.003020815947,-0.001189971933,0.001830844014,0.0006174573557,-0.0003225630764,0.0002948942793,0.001355414453,-0.0004555699637,0.0008998444897,0.0002760160923,-0.0006738182534,-0.0003978021611,0.001239073821,-0.0008190686954,0.0004200051257,0.001011025605,-0.0004479273698,0.0005630982352,0.002102280199,-0.001049791588,0.001052488611,0.005126837699,-0.001574609368,0.003552228332,0.002628219037,-0.001218047572,0.001410171465,0.004791174908,-0.001816263899,0.002974911009,0.00150710156,-0.001094163302,0.000412938258,0.001040131515,-0.000904230491,0.0001359010244,0.0008304629638,-0.0006483879215,0.0001820750423,-0.0003082210324,-0.0002950000049,-0.0006032210373,0.0003011545906,-0.001179556803,-0.0008784022125,0.0003791344198,-0.0004229188516,-4.378443183e-05,0.001937910072,-0.0003133591963,0.001624550876,0.005531309751,-0.0007058438354,0.004825465915,0.007012891091,0.0005885128558,0.007601403947,0.005255738509,0.000590726661,0.00584646517,0.002798117403,-0.001066016621,0.001732100783,0.004175886489,-0.001733686407,0.002442200082,0.001402071832,-0.0004948889195,0.0009071829122,0.003986632998,-0.001113687386,0.002872945612,0.002704841299,-0.0002216298088,0.00248321149,0.001186503485,0.0001319183137,0.001318421799,0.001753026423,-0.0003757590324,0.00137726739,0.001982086428,3.691520284e-05,0.002019001631,0.0004934154573,3.73432269e-05,0.0005307586842,0.001424574773,-0.0001922439653,0.001232330807,0.001298981199,0.0002727642104,0.001571745409,0.001578072008,-0.0001309052853,0.001447166722
6.7,0.01109615945,0.00129521907,0.01239137852,0.004290766757,0.0003767861007,0.004667552858,0.003921232621,0.0005974195552,0.004518652176,0.002540483807,-0.0007315305303,0.001808953277,0.003008728696,-0.001200219497,0.001808509199,0.0005717757534,-0.0003281092697,0.0002436664837,0.001329114329,-0.0004604334751,0.0008686808535,0.0002750136903,-0.0006880156339,-0.0004130019436,0.001228992753,-0.0008270504123,0.0004019423411,0.0009924892425,-0.000451098829,0.0005413904135,0.002088427607,-0.001058439695,0.001029987911,0.005018851939,-0.001576857247,0.003441994692,0.002572281546,-0.001229951091,0.001342330454,0.004697275377,-0.001831026421,0.002866248956,0.001466267597,-0.0011111136,0.0003551539967,0.001012739312,-0.0009070515761,0.0001056877361,0.0008415742911,-0.0006738878022,0.0001676864889,-0.0003290037032,-0.0002939551304,-0.0006229588336,0.0002615119432,-0.001153451016,-0.0008919390731,0.0003475975871,-0.0004298328265,-8.223523934e-05,0.001926689504,-0.0003250391216,0.001601650382,0.005471324111,-0.000714577278,0.004756746833,0.006903895791,0.0005496806231,0.007453576414,0.00519545039,0.0005694220677,0.005764872458,0.002741576048,-0.001058651106,0.001682924942,0.004132745613,-0.001744222264,0.002388523349,0.001352166127,-0.0005126645395,0.0008395015871,0.003923642267,-0.001117980064,0.002805662203,0.002657060472,-0.0002271129595,0.002429947513,0.001124700756,0.0001506413525,0.001275342108,0.001713481945,-0.0003817430219,0.001331738923,0.001938424048,3.068640916e-05,0.001969110457,0.0004591311473,2.951764187e-05,0.0004886487892,0.001402898483,-0.0002096610364,0.001193237447,0.001227912613,0.0002736995608,0.001501612173,0.001485719132,-0.000139531859,0.001346187273
6.8,0.01133435603,0.001283398183,0.01261775421,0.004234683606,0.0003651083196,0.004599791926,0.003949058983,0.0005776314479,0.004526690431,0.002517262427,-0.0007391626432,0.001778099783,0.002990882657,-0.001209468934,0.001781413722,0.0005207636799,-0.00033329324,0.0001874704399,0.001297925211,-0.0004650415307,0.0008328836802,0.0002689889531,-0.0007004468608,-0.0004314579076,0.001216896294,-0.0008346894959,0.0003822067983,0.0009712085255,-0.0004541866858,0.0005170218397,0.00206945695,-0.001066370781,0.001003086168,0.004902925307,-0.001577324879,0.003325600428,0.002510190016,-0.001240940899,0.001269249117,0.004596389636,-0.001843732483,0.002752657152,0.001420753065,-0.001127277007,0.0002934760581,0.0009823426728,-0.000908905138,7.343753478e-05,0.0008457589509,-0.0006977695714,0.0001479893795,-0.0003535748832,-0.000292702285,-0.0006462771682,0.0002173224606,-0.001123714637,-0.0009063921766,0.0003129100375,-0.0004364358949,-0.0001235258573,0.001911308509,-0.0003366966157,0.001574611893,0.005399620926,-0.0007232095228,0.004676411403,0.006782602895,0.0005108504333,0.007293453329,0.005125964029,0.0005473409491,0.005673304978,0.002679561557,-0.001051543296,0.00162801826,0.004083691172,-0.001753722269,0.002329968903,0.001299486929,-0.0005273932876,0.0007720936418,0.003853321868,-0.00112210749,0.002731214378,0.002604421145,-0.0002330990594,0.002371322086,0.001060190506,0.0001690880911,0.001229278597,0.001669929453,-0.0003866038419,0.001283325611,0.001892213131,2.537307846e-05,0.001917586209,0.0004199637183,2.266226815e-05,0.0004426259864,0.001375084479,-0.0002268724212,0.001148212058,0.00115397973,0.0002752171387,0.001429196869,0.001385124532,-0.0001447165399,0.001240407992
