Time,S1D1HbO,S1D1HbR,S1D1HbT,S2D2HbO,S2D2HbR,S2D2HbT,S3D3HbO,S3D3HbR,S3D3HbT,S4D4HbO,S4D4HbR,S4D4HbT,S5D5HbO,S5D5HbR,S5D5HbT,S6D6HbO,S6D6HbR,S6D6HbT,S7D7HbO,S7D7HbR,S7D7HbT,S8D8HbO,S8D8HbR,S8D8HbT,S9D9HbO,S9D9HbR,S9D9HbT,S10D10HbO,S10D10HbR,S10D10HbT,S11D11HbO,S11D11HbR,S11D11HbT,S12D12HbO,S12D12HbR,S12D12HbT,S13D13HbO,S13D13HbR,S13D13HbT,S14D14HbO,S14D14HbR,S14D14HbT,S15D15HbO,S15D15HbR,S15D15HbT,S16D16HbO,S16D16HbR,S16D16HbT,S17D17HbO,S17D17HbR,S17D17HbT,S18D18HbO,S18D18HbR,S18D18HbT,S19D19HbO,S19D19HbR,S19D19HbT,S20D20HbO,S20D20HbR,S20D20HbT,S21D21HbO,S21D21HbR,S21D21HbT,S22D22HbO,S22D22HbR,S22D22HbT,S23D23HbO,S23D23HbR,S23D23HbT,S24D24HbO,S24D24HbR,S24D24HbT,S25D25HbO,S25D25HbR,S25D25HbT,S26D26HbO,S26D26HbR,S26D26HbT,S27D27HbO,S27D27HbR,S27D27HbT,S28D28HbO,S28D28HbR,S28D28HbT,S29D29HbO,S29D29HbR,S29D29HbT,S30D30HbO,S30D30HbR,S30D30HbT,S31D31HbO,S31D31HbR,S31D31HbT,S32D32HbO,S32D32HbR,S32D32HbT,S33D33HbO,S33D33HbR,S33D33HbT,S34D34HbO,S34D34HbR,S34D34HbT,S35D35HbO,S35D35HbR,S35D35HbT,S36D36HbO,S36D36HbR,S36D36HbT,
-10,5.575475467e-04,-2.543590683e-04,3.031884784e-04,9.831645256e-05,-9.708295277e-05,1.233499784e-06,1.235170315e-03,1.888403940e-05,1.254054355e-03,1.230460424e-03,1.292838341e-06,1.231753262e-03,8.826326250e-04,-3.424058526e-04,5.402267724e-04,1.188821628e-03,-1.984695505e-04,9.903520770e-04,6.249326176e-04,-3.464479309e-04,2.784846867e-04,7.380720499e-04,-2.510828305e-04,4.869892194e-04,5.684834167e-04,-2.476902714e-04,3.207931453e-04,4.639485961e-04,-2.993000261e-04,1.646485701e-04,1.568965937e-03,-4.687932681e-04,1.100172669e-03,7.149444114e-04,-9.765365537e-05,6.172907560e-04,1.282675627e-03,-6.211881196e-05,1.220556815e-03,9.571259760e-04,-3.609633597e-05,9.210296400e-04,1.498340206e-03,1.457500317e-04,1.644090238e-03,1.766849028e-03,-8.259510585e-05,1.684253922e-03,2.000362682e-03,-1.130103220e-04,1.887352360e-03,1.655101984e-03,-4.201547658e-04,1.234947218e-03,1.106691916e-03,-1.489223528e-04,9.577695630e-04,8.096737077e-04,-9.123997371e-05,7.184337340e-04,7.973161841e-04,-5.841937714e-05,7.388968070e-04,3.651917495e-04,-6.021397475e-05,3.049777747e-04,1.142103593e-03,-2.279508606e-04,9.141527325e-04,2.430090505e-04,-1.055996497e-04,1.374094008e-04,1.496269242e-03,-1.252364309e-04,1.371032811e-03,4.836577607e-04,-1.602221224e-04,3.234356383e-04,1.490461667e-03,4.061387636e-05,1.531075544e-03,5.897742536e-04,-1.862411974e-04,4.035330562e-04,4.451493137e-04,-7.274425756e-05,3.724050561e-04,6.458877322e-04,-9.705385602e-05,5.488338762e-04,1.248216691e-03,-2.039027026e-05,1.227826420e-03,8.852306275e-04,-4.495491637e-05,8.402757111e-04,5.682658082e-04,-2.099601606e-04,3.583056476e-04,7.893245349e-04,-3.040681300e-05,7.589177219e-04,1.256163099e-03,-8.921234546e-05,1.166950754e-03,1.494644794e-03,1.140708647e-04,1.608715659e-03
-9.9,5.290358773e-04,-2.442339585e-04,2.848019188e-04,7.487286765e-05,-9.951741843e-05,-2.464455078e-05,1.195190207e-03,9.779202614e-06,1.204969409e-03,1.184781167e-03,-6.213596889e-06,1.178567570e-03,8.446851940e-04,-3.404626710e-04,5.042225230e-04,1.127767980e-03,-1.930223393e-04,9.347456412e-04,5.796637424e-04,-3.391060745e-04,2.405576678e-04,7.217402599e-04,-2.425378130e-04,4.792024469e-04,5.331049679e-04,-2.431318169e-04,2.899731510e-04,4.253846194e-04,-2.886834152e-04,1.367012041e-04,1.530970542e-03,-4.697846821e-04,1.061185860e-03,6.423802394e-04,-9.708153982e-05,5.452986996e-04,1.237458120e-03,-6.059257978e-05,1.176865541e-03,8.816263316e-04,-3.709998244e-05,8.445263492e-04,1.447895482e-03,1.263909032e-04,1.574286385e-03,1.714157496e-03,-8.553320824e-05,1.628624288e-03,1.971174127e-03,-9.500474531e-05,1.876169382e-03,1.570083560e-03,-4.128163243e-04,1.157267236e-03,1.101155940e-03,-1.432915696e-04,9.578643702e-04,7.740981481e-04,-9.227588857e-05,6.818222596e-04,7.662277805e-04,-5.868026113e-05,7.075475194e-04,3.708592279e-04,-6.401334145e-05,3.068458864e-04,1.103888037e-03,-2.158750666e-04,8.880129701e-04,2.604915870e-04,-9.462482583e-05,1.658667612e-04,1.474721347e-03,-1.478949739e-04,1.326826373e-03,4.430620954e-04,-1.502160736e-04,2.928460218e-04,1.496404259e-03,3.912764916e-05,1.535531908e-03,5.932088411e-04,-1.767666289e-04,4.164422122e-04,4.527286137e-04,-7.414656124e-05,3.785820524e-04,6.077037093e-04,-9.355317252e-05,5.141505368e-04,1.257187552e-03,-1.664121814e-05,1.240546334e-03,8.696749926e-04,-4.311033845e-05,8.265646542e-04,5.889917081e-04,-2.175578052e-04,3.714339029e-04,7.801226986e-04,-3.048684547e-05,7.496358532e-04,1.252394417e-03,-9.766832451e-05,1.154726092e-03,1.452472507e-03,1.064407964e-04,1.558913303e-03
-9.8,4.992929824e-04,-2.344939555e-04,2.647990269e-04,5.221764782e-05,-1.007998272e-04,-4.858217935e-05,1.155042585e-03,1.465926689e-06,1.156508512e-03,1.138422598e-03,-1.317944009e-05,1.125243158e-03,8.033111962e-04,-3.377157136e-04,4.655954826e-04,1.064419902e-03,-1.870121244e-04,8.774077773e-04,5.316667712e-04,-3.313509873e-04,2.003157839e-04,7.028485644e-04,-2.337741855e-04,4.690743789e-04,4.937355702e-04,-2.383007303e-04,2.554348398e-04,3.834196249e-04,-2.776031970e-04,1.058164279e-04,1.487574218e-03,-4.695361752e-04,1.018038043e-03,5.669546455e-04,-9.673471309e-05,4.702199324e-04,1.182586441e-03,-5.744261001e-05,1.125143831e-03,8.040772615e-04,-3.748938047e-05,7.665878810e-04,1.391302620e-03,1.076612725e-04,1.498963892e-03,1.653725704e-03,-8.793148606e-05,1.565794218e-03,1.935150582e-03,-7.751534452e-05,1.857635238e-03,1.478079617e-03,-4.043394239e-04,1.073740193e-03,1.088831490e-03,-1.373841382e-04,9.514473515e-04,7.357148407e-04,-9.308240060e-05,6.426324401e-04,7.326645064e-04,-5.859664295e-05,6.740678635e-04,3.736543446e-04,-6.725972983e-05,3.063946148e-04,1.062806112e-03,-2.036860297e-04,8.591200828e-04,2.764519644e-04,-8.377006594e-05,1.926818985e-04,1.446815634e-03,-1.698743632e-04,1.276941271e-03,3.985991197e-04,-1.399823947e-04,2.586167250e-04,1.493636448e-03,3.802263347e-05,1.531659081e-03,5.910539762e-04,-1.670695398e-04,4.239844364e-04,4.556112942e-04,-7.504739506e-05,3.805638991e-04,5.642532169e-04,-8.971805016e-05,4.745351668e-04,1.261745029e-03,-1.302665745e-05,1.248718371e-03,8.495166519e-04,-4.152544926e-05,8.079912026e-04,6.051248522e-04,-2.246169228e-04,3.805079294e-04,7.648441493e-04,-3.027328552e-05,7.345708638e-04,1.241340058e-03,-1.058010940e-04,1.135538964e-03,1.403066163e-03,9.877832875e-05,1.501844492e-03
-9.7,4.686141287e-04,-2.250731471e-04,2.435409816e-04,3.015257079e-05,-1.009949403e-04,-7.084236951e-05,1.114622332e-03,-6.059502649e-06,1.108562829e-03,1.091313952e-03,-1.961107484e-05,1.071702877e-03,7.587262429e-04,-3.341679085e-04,4.245583344e-04,9.989568062e-04,-1.804504890e-04,8.185063172e-04,4.811916387e-04,-3.231945621e-04,1.579970766e-04,6.814904384e-04,-2.248100658e-04,4.566803726e-04,4.506222008e-04,-2.332038587e-04,2.174183421e-04,3.383387471e-04,-2.660870272e-04,7.225171984e-05,1.439024323e-03,-4.680253935e-04,9.709989300e-04,4.890415048e-04,-9.654709598e-05,3.924944088e-04,1.118391587e-03,-5.269884532e-05,1.065692742e-03,7.246272123e-04,-3.726644445e-05,6.873607679e-04,1.328856867e-03,8.960048227e-05,1.418457349e-03,1.585895661e-03,-8.979127718e-05,1.496104384e-03,1.892629966e-03,-6.068300882e-05,1.831946957e-03,1.379588023e-03,-3.947514774e-04,9.848365455e-04,1.069815530e-03,-1.312225609e-04,9.385929694e-04,6.946994250e-04,-9.364739764e-05,6.010520273e-04,6.967544834e-04,-5.817075336e-05,6.385837300e-04,3.736516897e-04,-6.994884512e-05,3.037028446e-04,1.019073468e-03,-1.914150981e-04,8.276583694e-04,2.908563735e-04,-7.307129985e-05,2.177850736e-04,1.412506106e-03,-1.908809198e-04,1.221625186e-03,3.506032217e-04,-1.295216215e-04,2.210816001e-04,1.482164936e-03,3.730287660e-05,1.519467812e-03,5.834608340e-04,-1.571673513e-04,4.262934827e-04,4.539247222e-04,-7.542705834e-05,3.784976638e-04,5.158806178e-04,-8.556607985e-05,4.303145380e-04,1.262013830e-03,-9.557577409e-06,1.252456253e-03,8.249992583e-04,-4.017179632e-05,7.848274620e-04,6.167660641e-04,-2.310497224e-04,3.857163417e-04,7.435856014e-04,-2.971309218e-05,7.138725092e-04,1.223174473e-03,-1.134431917e-04,1.109731281e-03,1.346644850e-03,9.113982931e-05,1.437784680e-03
-9.6,4.372869777e-04,-2.159124822e-04,2.213744955e-04,8.498658094e-06,-1.001685340e-04,-9.166987587e-05,1.073833210e-03,-1.280712377e-05,1.061026086e-03,1.043396849e-03,-2.551662425e-05,1.017880225e-03,7.111648806e-04,-3.298253597e-04,3.813395209e-04,9.315747184e-04,-1.733524845e-04,7.582222339e-04,4.285009631e-04,-3.146495898e-04,1.138513734e-04,6.577702935e-04,-2.156626932e-04,4.421076003e-04,4.040386108e-04,-2.278464392e-04,1.761921716e-04,2.904486532e-04,-2.541647836e-04,3.628386966e-05,1.385597134e-03,-4.652344373e-04,9.203626963e-04,4.090179852e-04,-9.643770205e-05,3.125802832e-04,1.045286646e-03,-4.642099807e-05,9.988656482e-04,6.434620046e-04,-3.643448420e-05,6.070275204e-04,1.260880001e-03,7.224470501e-05,1.333124706e-03,1.511059196e-03,-9.111841952e-05,1.419940777e-03,1.843950393e-03,-4.461469139e-05,1.799335702e-03,1.275159977e-03,-3.840878019e-04,8.910721748e-04,1.044244156e-03,-1.248307987e-04,9.194133575e-04,6.512479425e-04,-9.395949801e-05,5.572884445e-04,6.586433268e-04,-5.740649806e-05,6.012368287e-04,3.709518780e-04,-7.207941805e-05,2.988724599e-04,9.729238206e-04,-1.790941056e-04,7.938297150e-04,3.036886940e-04,-6.256499654e-05,2.411236975e-04,1.371791876e-03,-2.106239378e-04,1.161167938e-03,2.994353832e-04,-1.188367391e-04,1.805986441e-04,1.462065743e-03,3.695249634e-05,1.499018239e-03,5.706072208e-04,-1.470690522e-04,4.235381686e-04,4.478244238e-04,-7.526897843e-05,3.725554454e-04,4.629680976e-04,-8.111907094e-05,3.818490267e-04,1.258139089e-03,-6.244803466e-06,1.251894285e-03,7.963864839e-04,-3.901635014e-05,7.573701337e-04,6.240337982e-04,-2.367737637e-04,3.872600345e-04,7.164827019e-04,-2.876101443e-05,6.877216875e-04,1.198117917e-03,-1.204413461e-04,1.077676571e-03,1.283488908e-03,8.357487824e-05,1.367063786e-03
-9.5,4.055918526e-04,-2.069601906e-04,1.986316620e-04,-1.289773440e-05,-9.838702498e-05,-1.112847594e-04,1.032594995e-03,-1.879292749e-05,1.013802067e-03,9.946297676e-04,-3.090577591e-05,9.637239917e-04,6.608844476e-04,-3.246973007e-04,3.361871469e-04,8.624877240e-04,-1.657365670e-04,6.967511570e-04,3.738740199e-04,-3.057297268e-04,6.814429308e-05,6.318036587e-04,-2.063485909e-04,4.254550678e-04,3.542904810e-04,-2.222321338e-04,1.320583472e-04,2.400808516e-04,-2.418686075e-04,-1.787755863e-06,1.327602023e-03,-4.611504593e-04,8.664515637e-04,3.272687646e-04,-9.631381515e-05,2.309549494e-04,9.637678284e-04,-3.869915107e-05,9.250686773e-04,5.608086067e-04,-3.499729758e-05,5.258113092e-04,1.187723068e-03,5.562827078e-05,1.243351339e-03,1.429658472e-03,-9.192308379e-05,1.337735388e-03,1.789447242e-03,-2.938117463e-05,1.760066067e-03,1.165400471e-03,-3.723906722e-04,7.930097984e-04,1.012297032e-03,-1.182331899e-04,8.940638416e-04,6.055772514e-04,-9.400831010e-05,5.115689413e-04,6.184962942e-04,-5.630946960e-05,5.621868246e-04,3.656850133e-04,-7.365330036e-05,2.920317129e-04,9.246114956e-04,-1.667549735e-04,7.578565222e-04,3.149530867e-04,-5.228815641e-05,2.626649302e-04,1.324725137e-03,-2.288230293e-04,1.095902107e-03,2.454839784e-04,-1.079328690e-04,1.375511094e-04,1.433485542e-03,3.693895695e-05,1.470424499e-03,5.527025535e-04,-1.367755751e-04,4.159269784e-04,4.375003594e-04,-7.456005482e-05,3.629403045e-04,4.059396497e-04,-7.640361155e-05,3.295360382e-04,1.250289664e-03,-3.099060874e-06,1.247190603e-03,7.639653534e-04,-3.802248303e-05,7.259428704e-04,6.270675162e-04,-2.417158417e-04,3.853516745e-04,6.837141407e-04,-2.738206917e-05,6.563320715e-04,1.166440354e-03,-1.266595160e-04,1.039780838e-03,1.213945936e-03,7.612463023e-05,1.290070567e-03
-9.4,3.738029918e-04,-1.981721412e-04,1.756308506e-04,-3.415871506e-05,-9.571718264e-05,-1.298758977e-04,9.908505675e-04,-2.403851256e-05,9.668120550e-04,9.449927279e-04,-3.578967140e-05,9.092030565e-04,6.081695461e-04,-3.187961258e-04,2.893734203e-04,7.919298109e-04,-1.576246005e-04,6.343052103e-04,3.176109139e-04,-2.964495039e-04,2.116141005e-05,6.037176932e-04,-1.968839721e-04,4.068337211e-04,3.017204578e-04,-2.163630525e-04,8.535740531e-05,1.875947140e-04,-2.292329622e-04,-4.163824812e-05,1.265385364e-03,-4.557662541e-04,8.096191103e-04,2.441915585e-04,-9.607419781e-05,1.481173607e-04,8.744162573e-04,-2.965409859e-05,8.447621587e-04,4.769388585e-04,-3.295833609e-05,4.439805224e-04,1.109770339e-03,3.978559898e-05,1.149555938e-03,1.342187016e-03,-9.221991313e-05,1.249967103e-03,1.729451685e-03,-1.501625007e-05,1.714435435e-03,1.050968683e-03,-3.597082332e-04,6.912604494e-04,9.742026699e-04,-1.114536268e-04,8.627490431e-04,5.579254403e-04,-9.378464806e-05,4.641407922e-04,5.765004304e-04,-5.488690305e-05,5.216135274e-04,3.580134667e-04,-7.467551058e-05,2.833379561e-04,8.744130093e-04,-1.544294654e-04,7.199835439e-04,3.246761327e-04,-4.227809953e-05,2.823980332e-04,1.271419424e-03,-2.452144915e-04,1.026204932e-03,1.891655760e-04,-9.681671312e-05,9.234886286e-05,1.396644256e-03,3.721646606e-05,1.433860722e-03,5.299943312e-04,-1.262813645e-04,4.037129667e-04,4.231817474e-04,-7.329127371e-05,3.498904737e-04,3.452633304e-04,-7.145133698e-05,2.738119934e-04,1.238661244e-03,-1.308745372e-07,1.238530369e-03,7.280499626e-04,-3.715145896e-05,6.908985036e-04,6.260322009e-04,-2.458156775e-04,3.802165235e-04,6.455056461e-04,-2.555292134e-05,6.199527248e-04,1.128465454e-03,-1.319816204e-04,9.964838334e-04,1.138433953e-03,6.882072637e-05,1.207254679e-03
-9.3,3.421898377e-04,-1.895122112e-04,1.526776264e-04,-5.536984491e-05,-9.222594779e-05,-1.475957927e-04,9.485716010e-04,-2.857071055e-05,9.200008905e-04,8.944911889e-04,-4.018080555e-05,8.543103833e-04,5.533344999e-04,-3.121374517e-04,2.411970482e-04,7.201560289e-04,-1.490418730e-04,5.711141559e-04,2.600343423e-04,-2.868243100e-04,-2.678996773e-05,5.736515777e-04,-1.872851786e-04,3.863663991e-04,2.467098048e-04,-2.102397419e-04,3.647006283e-05,1.333776541e-04,-2.162946382e-04,-8.291698413e-05,1.199331583e-03,-4.490807677e-04,7.502508151e-04,1.602017702e-04,-9.561252767e-05,6.458924257e-05,7.778975980e-04,-1.943596438e-05,7.584616337e-04,3.921710524e-04,-3.032015633e-05,3.618508961e-04,1.027441245e-03,2.475426328e-05,1.052195508e-03,1.249189271e-03,-9.202825925e-05,1.157161012e-03,1.664289594e-03,-1.517215789e-06,1.662772379e-03,9.325756143e-04,-3.460933695e-04,5.864822448e-04,9.302423555e-04,-1.045152680e-04,8.257270875e-04,5.085515336e-04,-9.328076593e-05,4.152707677e-04,5.328656939e-04,-5.314766395e-05,4.797180299e-04,3.481326779e-04,-7.515436970e-05,2.729783082e-04,8.226265056e-04,-1.421491724e-04,6.804773331e-04,3.329075282e-04,-3.257213544e-05,3.003353927e-04,1.212056007e-03,-2.595559902e-04,9.525000168e-04,1.309235443e-04,-8.549599105e-05,4.542755329e-05,1.351836973e-03,3.772873898e-05,1.389565712e-03,5.027729799e-04,-1.155772017e-04,3.871957782e-04,4.051382489e-04,-7.145880376e-05,3.336794452e-04,2.814497649e-04,-6.629879193e-05,2.151509730e-04,1.223477256e-03,2.649578486e-06,1.226126835e-03,6.889832169e-04,-3.636419666e-05,6.526190203e-04,6.211209533e-04,-2.490278274e-04,3.720931259e-04,6.021324711e-04,-2.326226135e-05,5.788702097e-04,1.084572259e-03,-1.363139141e-04,9.482583447e-04,1.057440783e-03,6.168425138e-05,1.119125034e-03
-9.2,3.110174419e-04,-1.809525845e-04,1.300648574e-04,-7.657740406e-05,-8.798031023e-05,-1.645577143e-04,9.057618546e-04,-3.242109217e-05,8.733407624e-04,8.431583212e-04,-4.409286020e-05,7.990654610e-04,4.967221781e-04,-3.047401191e-04,1.919820589e-04,6.474422067e-04,-1.400171094e-04,5.074250973e-04,2.014876112e-04,-2.768703256e-04,-7.538271446e-05,5.417564150e-04,-1.775689873e-04,3.641874277e-04,1.896750702e-04,-2.038612193e-04,-1.418614910e-05,7.784135910e-05,-2.030927076e-04,-1.252513485e-04,1.129860182e-03,-4.410995291e-04,6.887606530e-04,7.573506298e-05,-9.482124117e-05,-1.908617819e-05,6.749578430e-04,-8.220456184e-06,6.667373868e-04,3.068680508e-04,-2.708432212e-05,2.797837287e-04,9.411881334e-04,1.057891218e-05,9.517670456e-04,1.151257310e-03,-9.137226002e-05,1.059885050e-03,1.594280865e-03,1.115307323e-05,1.605433938e-03,8.109775309e-04,-3.316026799e-04,4.793748510e-04,8.807512558e-04,-9.744113537e-05,7.833101205e-04,4.577340259e-04,-9.249064667e-05,3.652433792e-04,4.878243987e-04,-5.110231706e-05,4.367220816e-04,3.362693769e-04,-7.510178671e-05,2.611675902e-04,7.695686874e-04,-1.299456813e-04,6.396230061e-04,3.397188559e-04,-2.320716273e-05,3.165116932e-04,1.146886892e-03,-2.716299924e-04,8.752568997e-04,7.122342485e-05,-7.397911323e-05,-2.755688378e-06,1.299433514e-03,3.841056520e-05,1.337844079e-03,4.713731504e-04,-1.046538123e-04,3.667193381e-04,3.836766335e-04,-6.906533643e-05,3.146112971e-04,2.150463906e-04,-6.098685382e-05,1.540595368e-04,1.204986590e-03,5.232659950e-06,1.210219250e-03,6.471352771e-04,-3.562301471e-05,6.115122624e-04,6.125539314e-04,-2.513215235e-04,3.612324079e-04,5.539194189e-04,-2.051059654e-05,5.334088224e-04,1.035193310e-03,-1.395869937e-04,8.956063164e-04,9.715196789e-04,5.472450774e-05,1.026244187e-03
-9.1,2.805454656e-04,-1.724738398e-04,1.080716259e-04,-9.778840881e-05,-8.304716568e-05,-1.808355745e-04,8.624577919e-04,-3.562535180e-05,8.268324401e-04,7.910552876e-04,-4.754046240e-05,7.435148252e-04,4.386989401e-04,-2.966260968e-04,1.420728433e-04,5.740829536e-04,-1.305825018e-04,4.435004518e-04,1.423289881e-04,-2.666044278e-04,-1.242754398e-04,5.081944987e-04,-1.677527510e-04,3.404417477e-04,1.310599377e-04,-1.972251302e-04,-6.616519254e-05,2.141442452e-05,-1.896684339e-04,-1.682540093e-04,1.057418965e-03,-4.318350137e-04,6.255839514e-04,-8.752615884e-06,-9.359567408e-05,-1.023482900e-04,5.664153878e-04,3.795973993e-06,5.702113618e-04,2.214317721e-04,-2.325190963e-05,1.981798625e-04,8.514901426e-04,-2.685371569e-06,8.488047711e-04,1.049024495e-03,-9.028072185e-05,9.587437734e-04,1.519739913e-03,2.306196711e-05,1.542801880e-03,6.869652378e-04,-3.162957360e-04,3.706695018e-04,8.261161197e-04,-9.025549723e-05,7.358606224e-04,4.057680541e-04,-9.141024599e-05,3.143578081e-04,4.416287456e-04,-4.876317810e-05,3.928655675e-04,3.226772650e-04,-7.453358731e-05,2.481436777e-04,7.155695941e-04,-1.178508169e-04,5.977187772e-04,3.452005177e-04,-1.421920078e-05,3.309813170e-04,1.076233934e-03,-2.812466059e-04,7.949873286e-04,1.054519061e-05,-6.227517707e-05,-5.172998646e-05,1.239874759e-03,3.918841881e-05,1.279063178e-03,4.361706885e-04,-9.350546847e-05,3.426652201e-04,3.591334218e-04,-6.612127334e-05,2.930121485e-04,1.466280240e-04,-5.555976768e-05,9.106825635e-05,1.183458077e-03,7.609702341e-06,1.191067780e-03,6.028987435e-04,-3.489316547e-05,5.680055781e-04,6.005737336e-04,-2.526794919e-04,3.478942417e-04,5.012379580e-04,-1.730962599e-05,4.839283320e-04,9.808094017e-04,-1.417572654e-04,8.390521363e-04,8.812811789e-04,4.793815852e-05,9.292193374e-04
-9,2.510257471e-04,-1.640647832e-04,8.696096397e-05,-1.189732338e-04,-7.749310458e-05,-1.964663383e-04,8.187267614e-04,-3.822265540e-05,7.805041060e-04,7.382696096e-04,-5.053892698e-05,6.877306826e-04,3.796464675e-04,-2.878203094e-04,9.182615808e-05,5.003880550e-04,-1.207737341e-04,3.796143208e-04,8.292338510e-05,-2.560440933e-04,-1.731207082e-04,4.731380112e-04,-1.578544195e-04,3.152835918e-04,7.132354646e-05,-1.903280239e-04,-1.190044775e-04,-3.546743602e-05,-1.760650876e-04,-2.115325237e-04,9.824745345e-04,-4.213068989e-04,5.611676356e-04,-9.278753763e-05,-9.183829036e-05,-1.846258280e-04,4.531499380e-04,1.640026937e-05,4.695502073e-04,1.362947374e-04,-1.882467565e-05,1.174700617e-04,7.588450144e-04,-1.497187932e-05,7.438731351e-04,9.431566434e-04,-8.878692954e-05,8.543697139e-04,1.440977516e-03,3.430037276e-05,1.475277888e-03,5.613500971e-04,-3.002346612e-04,2.611154359e-04,7.667694951e-04,-8.298543475e-05,6.837840604e-04,3.529612941e-04,-9.003756125e-05,2.629237329e-04,3.945466634e-04,-4.614423107e-05,3.484024323e-04,3.076306686e-04,-7.346972199e-05,2.341609466e-04,6.609659995e-04,-1.058968630e-04,5.550691364e-04,3.494573083e-04,-5.642888912e-06,3.438144194e-04,1.000484145e-03,-2.882457918e-04,7.122383530e-04,-5.062668076e-05,-5.039434549e-05,-1.010210263e-04,1.173664968e-03,3.998167470e-05,1.213646642e-03,3.975754200e-04,-8.213309465e-05,3.154423253e-04,3.318649690e-04,-6.264554251e-05,2.692194265e-04,7.678498581e-05,-5.006394128e-05,2.672104453e-05,1.159172399e-03,9.773864711e-06,1.168946264e-03,5.566815277e-04,-3.414406240e-05,5.225374653e-04,5.854384300e-04,-2.530968650e-04,3.323415650e-04,4.445007675e-04,-1.368121175e-05,4.308195557e-04,9.219416544e-04,-1.428073465e-04,7.791343079e-04,7.873816633e-04,4.130937051e-05,8.286910338e-04
-8.9,2.226988272e-04,-1.557220971e-04,6.697673016e-05,-1.400702656e-04,-7.138413790e-05,-2.114544035e-04,7.746633160e-04,-4.025502518e-05,7.344082908e-04,6.849120317e-04,-5.310403263e-05,6.318079991e-04,3.199518538e-04,-2.783504191e-04,4.160143469e-05,4.266776664e-04,-1.106299251e-04,3.160477413e-04,2.363286584e-05,-2.452072927e-04,-2.215744269e-04,4.367673205e-04,-1.478924683e-04,2.888748521e-04,1.092721385e-05,-1.831657053e-04,-1.722384915e-04,-9.237202141e-05,-1.623276111e-04,-2.546996325e-04,9.055016599e-04,-4.095421674e-04,4.959594926e-04,-1.758831451e-04,-8.946244275e-05,-2.653455878e-04,3.360886298e-04,2.936573867e-05,3.654543685e-04,5.190975427e-05,-1.380669782e-05,3.810305646e-05,6.637604336e-04,-2.620383708e-05,6.375565965e-04,8.343415694e-04,-8.692846712e-05,7.474131023e-04,1.358303360e-03,4.497450255e-05,1.403277862e-03,4.349482072e-04,-2.834839289e-04,1.514642783e-04,7.031810252e-04,-7.566192491e-05,6.275191003e-04,2.996289989e-04,-8.837255460e-05,2.112564443e-04,3.468565915e-04,-4.326095950e-05,3.035956320e-04,2.914170684e-04,-7.193431152e-05,2.194827569e-04,6.060944464e-04,-9.411670394e-05,5.119777425e-04,3.526033461e-04,2.488968594e-06,3.550923147e-04,9.200819209e-04,-2.924988951e-04,6.275830258e-04,-1.118138384e-04,-3.834871963e-05,-1.501625581e-04,1.101360183e-03,4.070589690e-05,1.142066080e-03,3.560210014e-04,-7.054686684e-05,2.854741346e-04,3.022369142e-04,-5.866600460e-05,2.435709096e-04,6.110418351e-06,-4.454665396e-05,-3.843623561e-05,1.132412649e-03,1.172129110e-05,1.144133940e-03,5.088986994e-04,-3.335012829e-05,4.755485711e-04,5.674135228e-04,-2.525800725e-04,3.148334503e-04,3.841547163e-04,-9.656112374e-06,3.744986039e-04,8.591417335e-04,-1.427448130e-04,7.163969205e-04,6.905101797e-04,3.481105568e-05,7.253212354e-04
-8.8,1.957900764e-04,-1.474498674e-04,4.834020900e-05,-1.609917518e-04,-6.478537976e-05,-2.257771315e-04,7.303844861e-04,-4.176675715e-05,6.886177289e-04,6.311125092e-04,-5.525182444e-05,5.758606847e-04,2.599976819e-04,-2.682465557e-04,-8.248873758e-06,3.532769882e-04,-1.001934338e-04,2.530835544e-04,-3.519225475e-05,-2.341123709e-04,-2.693046257e-04,3.992691093e-04,-1.378857740e-04,2.613833353e-04,-4.967807646e-05,-1.757336798e-04,-2.254117563e-04,-1.488802784e-04,-1.485021565e-04,-2.973824349e-04,8.269734228e-04,-3.965750847e-04,4.303983381e-04,-2.575475122e-04,-8.639450328e-05,-3.439420155e-04,2.161902718e-04,4.245480143e-05,2.586450732e-04,-3.126083495e-05,-8.206212196e-06,-3.946704714e-05,5.667459822e-04,-3.629809493e-05,5.304478873e-04,7.232780813e-04,-8.474702858e-05,6.385310527e-04,1.272028474e-03,5.519740300e-05,1.327225877e-03,3.085646588e-04,-2.661102306e-04,4.245442823e-05,6.358471556e-04,-6.832004721e-05,5.675271083e-04,2.460888625e-04,-8.641709925e-05,1.596717632e-04,2.988420836e-04,-4.013025867e-05,2.587118250e-04,2.743296759e-04,-6.995560879e-05,2.043740671e-04,5.512850521e-04,-8.254382579e-05,4.687412263e-04,3.547571674e-04,1.014575609e-05,3.649029235e-04,8.355195830e-04,-2.939099778e-04,5.416096052e-04,-1.725537202e-04,-2.615367768e-05,-1.987073979e-04,1.023555141e-03,4.127744376e-05,1.064832585e-03,3.119539156e-04,-5.876821726e-05,2.531856983e-04,2.706151256e-04,-5.421947364e-05,2.163956520e-04,-6.481124075e-05,-3.905475649e-05,-1.038659972e-04,1.103455303e-03,1.345215848e-05,1.116907461e-03,4.599646523e-04,-3.249121759e-05,4.274734347e-04,5.467637129e-04,-2.511446611e-04,2.956190518e-04,3.206731968e-04,-5.272650783e-06,3.154005460e-04,7.929814919e-04,-1.415993767e-04,6.513821153e-04,5.913757310e-04,2.840696813e-05,6.197826991e-04
-8.7,1.705061621e-04,-1.392589343e-04,3.124722779e-05,-1.816298158e-04,-5.776069727e-05,-2.393905130e-04,6.860249835e-04,-4.280384184e-05,6.432211417e-04,5.770160978e-04,-5.699843044e-05,5.200176674e-04,2.001539664e-04,-2.575409875e-04,-5.738702111e-05,2.805112577e-04,-8.950953467e-05,1.910017230e-04,-9.321987413e-05,-2.227779519e-04,-3.159978261e-04,3.608346256e-04,-1.278535274e-04,2.329810982e-04,-1.100609472e-04,-1.680277518e-04,-2.780886990e-04,-2.045930975e-04,-1.346356022e-04,-3.392286998e-04,7.473540833e-04,-3.824471497e-04,3.649069336e-04,-3.372924829e-04,-8.257355942e-05,-4.198660423e-04,9.442934357e-05,5.542265675e-05,1.498520003e-04,-1.127544512e-04,-2.037588442e-06,-1.147920397e-04,4.683069121e-04,-4.516973062e-05,4.231371815e-04,6.106656399e-04,-8.228812617e-05,5.283775137e-04,1.182467625e-03,6.508100035e-05,1.247548626e-03,1.829800628e-04,-2.481822483e-04,-6.520218557e-05,5.652812242e-04,-6.099833192e-05,5.042828923e-04,1.926564152e-04,-8.417504047e-05,1.084813747e-04,2.507870927e-04,-3.677049000e-05,2.140166028e-04,2.566611668e-04,-6.756589564e-05,1.890952711e-04,4.968571158e-04,-7.121209174e-05,4.256450241e-04,3.560377713e-04,1.729931270e-05,3.733370840e-04,7.473276423e-04,-2.924171637e-04,4.549104786e-04,-2.324066730e-04,-1.382940683e-05,-2.462360798e-04,9.408722604e-04,4.161719609e-05,9.824894565e-04,2.658239254e-04,-4.683074784e-05,2.189931775e-04,2.373601176e-04,-4.935140075e-05,1.880087168e-04,-1.354126415e-04,-3.363345834e-05,-1.690460999e-04,1.072563522e-03,1.497122594e-05,1.087534748e-03,4.102868748e-04,-3.155266064e-05,3.787342141e-04,5.237454992e-04,-2.488117895e-04,2.749337097e-04,2.545482800e-04,-5.752287486e-07,2.539730512e-04,7.240437280e-04,-1.394193355e-04,5.846243924e-04,4.906964557e-04,2.205439844e-05,5.127508542e-04
-8.6,1.470325174e-04,-1.311659549e-04,1.586656253e-05,-2.018616184e-04,-5.037235655e-05,-2.522339750e-04,6.417332377e-04,-4.341341679e-05,5.983198209e-04,5.227794973e-04,-5.835993551e-05,4.644195618e-04,1.407734648e-04,-2.462677748e-04,-1.054943100e-04,2.087017745e-04,-7.862601788e-05,1.300757566e-04,-1.501388359e-04,-2.112229251e-04,-3.613617610e-04,3.216583357e-04,-1.178153151e-04,2.038430206e-04,-1.698140824e-04,-1.600447635e-04,-3.298588459e-04,-2.591341918e-04,-1.207751239e-04,-3.799093157e-04,6.670957772e-04,-3.672070806e-04,2.998886966e-04,-4.146422022e-04,-7.794936177e-05,-4.925915640e-04,-2.821870265e-05,6.802240173e-05,3.980369908e-05,-1.921145207e-04,4.676598666e-06,-1.874379220e-04,3.689405205e-04,-5.273619427e-05,3.162043262e-04,4.971958974e-04,-7.960056866e-05,4.175953288e-04,1.089942990e-03,7.472821626e-05,1.164671207e-03,5.894122986e-05,-2.297702807e-04,-1.708290509e-04,4.920060167e-04,-5.373772436e-05,4.382682923e-04,1.396413747e-04,-8.165228648e-05,5.798908818e-05,2.029724682e-04,-3.320155437e-05,1.697709138e-04,2.386991742e-04,-6.480122438e-05,1.738979498e-04,4.431169216e-04,-6.015526477e-05,3.829616569e-04,3.565621031e-04,2.392418317e-05,3.804862862e-04,6.560660894e-04,-2.879936278e-04,3.680724616e-04,-2.909593175e-04,-1.402372746e-06,-2.923616903e-04,8.539548994e-04,4.165246629e-05,8.956073657e-04,2.180778678e-04,-3.477969482e-05,1.832981730e-04,2.028257195e-04,-4.411531865e-05,1.587104009e-04,-2.051477961e-04,-2.832536321e-05,-2.334731593e-04,1.039983885e-03,1.628777625e-05,1.056271661e-03,3.602621222e-04,-3.052508646e-05,3.297370357e-04,4.986023385e-04,-2.456048927e-04,2.529974458e-04,1.862831187e-04,4.387459257e-06,1.906705779e-04,6.529151305e-04,-1.362680365e-04,5.166470940e-04,3.891907102e-04,1.570717978e-05,4.048978900e-04
-8.5,1.255321357e-04,-1.231921864e-04,2.339949376e-06,-2.215531315e-04,-4.268073977e-05,-2.642338712e-04,5.976685991e-04,-4.364332007e-05,5.540252791e-04,4.685686023e-04,-5.935237832e-05,4.092162240e-04,8.219055563e-05,-2.344624872e-04,-1.522719316e-04,1.381631552e-04,-6.759275182e-05,7.057040335e-05,-2.056581512e-04,-1.994665338e-04,-4.051246850e-04,2.819370552e-04,-1.077914033e-04,1.741456520e-04,-2.285543823e-04,-1.517833425e-04,-3.803377248e-04,-3.121496775e-04,-1.069678154e-04,-4.191174929e-04,5.866383795e-04,-3.509108045e-04,2.357275750e-04,-4.891388102e-04,-7.248024691e-05,-5.616190571e-04,-1.507903158e-04,8.001158223e-05,-7.077873360e-05,-2.688934059e-04,1.190367948e-05,-2.569897264e-04,2.691345018e-04,-5.891984261e-05,2.102146592e-04,3.835467456e-04,-7.673565778e-05,3.068110878e-04,9.947902067e-04,8.422455722e-05,1.079014764e-03,-6.284338803e-05,-2.109459052e-04,-2.737892933e-04,4.165497069e-04,-4.658067194e-05,3.699690350e-04,8.734491465e-05,-7.885682348e-05,8.488091172e-06,1.556735815e-04,-2.944484961e-05,1.262287319e-04,2.207233123e-04,-6.170098402e-05,1.590223283e-04,3.903570474e-04,-4.940640312e-05,3.409506442e-04,3.564438119e-04,2.999793457e-05,3.864417465e-04,5.623179306e-04,-2.806482290e-04,2.816697016e-04,-3.478240162e-04,1.109327782e-05,-3.367307383e-04,7.634644446e-04,4.131811063e-05,8.047825552e-04,1.691571030e-04,-2.267026025e-05,1.464868428e-04,1.673606896e-04,-3.857223926e-05,1.287884504e-04,-2.734933585e-04,-2.316984088e-05,-2.966631994e-04,1.005946111e-03,1.741505618e-05,1.023361168e-03,3.102746586e-04,-2.940418826e-05,2.808704704e-04,4.715636761e-04,-2.415484979e-04,2.300151782e-04,1.163852210e-04,9.564293395e-06,1.259495144e-04,5.801811223e-04,-1.322204759e-04,4.479606464e-04,2.875693641e-04,9.318497065e-06,2.968878611e-04
-8.4,1.061454305e-04,-1.153621361e-04,-9.216705628e-06,-2.405618614e-04,-3.474421379e-05,-2.753060752e-04,5.539992026e-04,-4.354175422e-05,5.104574484e-04,4.145567546e-04,-5.999186214e-05,3.545648924e-04,2.472214576e-05,-2.221620257e-04,-1.974398800e-04,6.920134799e-05,-5.646119484e-05,1.274015315e-05,-2.595046342e-04,-1.875285193e-04,-4.470331535e-04,2.418692801e-04,-9.780308185e-05,1.440661982e-04,-2.859212926e-04,-1.432445059e-04,-4.291657986e-04,-3.633065348e-04,-9.326032477e-05,-4.565668595e-04,5.064103614e-04,-3.336213693e-04,1.727889921e-04,-5.603449766e-04,-6.613241418e-05,-6.264773908e-04,-2.723453458e-04,9.115967850e-05,-1.811856673e-04,-3.426531887e-04,1.959944342e-05,-3.230537453e-04,1.693657356e-04,-6.364865941e-05,1.057170762e-04,2.703784127e-04,-7.374624352e-05,1.966321691e-04,8.973659190e-04,9.362951938e-05,9.909954384e-04,-1.817048291e-04,-1.917819360e-04,-3.734867651e-04,3.394438400e-04,-3.957029343e-05,2.998735465e-04,3.605746371e-05,-7.579869230e-05,-3.974122858e-05,1.091584585e-04,-2.552313812e-05,8.363532033e-05,2.030028347e-04,-5.830741693e-05,1.446954178e-04,3.388558030e-04,-3.899732780e-05,2.998584752e-04,3.557925182e-04,3.550158020e-05,3.912940984e-04,4.666854056e-04,-2.704264136e-04,1.962589920e-04,-4.026360726e-04,2.361437234e-05,-3.790217003e-04,6.700785709e-04,4.055836701e-05,7.106369379e-04,1.194967524e-04,-1.056548860e-05,1.089312638e-04,1.313105548e-04,-3.279020337e-05,9.852035146e-05,-3.399494544e-04,-1.820268020e-05,-3.581521346e-04,9.706641475e-04,1.836935342e-05,9.890335010e-04,2.606951632e-04,-2.819047627e-05,2.325046869e-04,4.428472326e-04,-2.366698708e-04,2.061773618e-04,4.536078326e-05,1.490320748e-05,6.026399074e-05,5.064214715e-04,-1.273600537e-04,3.790614178e-04,1.865286671e-04,2.842853451e-06,1.893715205e-04
-8.3,8.899043776e-05,-1.077022125e-04,-1.871177473e-05,-2.587394927e-04,-2.661914396e-05,-2.853586367e-04,5.108995099e-04,-4.315697880e-05,4.677425311e-04,3.609229574e-04,-6.029467985e-05,3.006282775e-04,-3.133171648e-05,-2.094044994e-04,-2.407362159e-04,2.111625226e-06,-4.528384252e-05,-4.317221729e-05,-3.114213825e-04,-1.754292595e-04,-4.868506421e-04,2.016542612e-04,-8.787282736e-05,1.137814339e-04,-3.415760324e-04,-1.344320707e-04,-4.760081031e-04,-4.122922577e-04,-7.969850861e-05,-4.919907663e-04,4.268284347e-04,-3.154087424e-04,1.114196923e-04,-6.278449669e-04,-5.888075342e-05,-6.867257203e-04,-3.919777452e-04,1.012552617e-04,-2.907224835e-04,-4.129662848e-04,2.770726402e-05,-3.852590208e-04,7.009835330e-05,-6.685618687e-05,3.242166428e-06,1.583303477e-04,-7.068586638e-05,8.764448129e-05,7.980542848e-04,1.029688473e-04,9.010231321e-04,-2.970138551e-04,-1.723527918e-04,-4.693666469e-04,2.612207194e-04,-3.274920634e-05,2.284715131e-04,-1.394345322e-05,-7.249003229e-05,-8.643348551e-05,6.368566597e-05,-2.146044583e-05,4.222522014e-05,1.857939341e-04,-5.466519977e-05,1.311287344e-04,2.888756713e-04,-2.895825219e-05,2.599174191e-04,3.547127710e-04,4.042010420e-05,3.951328752e-04,3.697877592e-04,-2.574116310e-04,1.123761282e-04,-4.550514070e-04,3.610774708e-05,-4.189436599e-04,5.744876316e-04,3.933001575e-05,6.138176473e-04,6.952391102e-05,1.465930608e-06,7.098984162e-05,9.501735620e-05,-2.684400173e-05,6.817335448e-05,-4.040420447e-04,-1.345594752e-05,-4.174979922e-04,9.343369252e-04,1.916886650e-05,9.535057917e-04,2.118787620e-04,-2.688888372e-05,1.849898783e-04,4.126624517e-04,-2.310025787e-04,1.816598730e-04,-2.629053854e-05,2.035202639e-05,-5.938512155e-06,4.322055921e-04,-1.217757193e-04,3.104298728e-04,8.674291017e-05,-3.763069656e-06,8.297984051e-05
-8.2,7.416263006e-05,-1.002394203e-04,-2.607679026e-05,-2.759353493e-04,-1.835993852e-05,-2.942952878e-04,4.685467908e-04,-4.253695241e-05,4.260098384e-04,3.078494321e-04,-6.027736757e-05,2.475720646e-04,-8.568914640e-05,-1.962290811e-04,-2.819182275e-04,-6.282401793e-05,-3.411364970e-05,-9.693766764e-05,-3.611685802e-04,-1.631898793e-04,-5.243584595e-04,1.614905285e-04,-7.802414433e-05,8.346638417e-05,-3.952032159e-04,-1.253529057e-04,-5.205561217e-04,-4.588168616e-04,-6.632712996e-05,-5.251439915e-04,3.482948802e-04,-2.963494981e-04,5.194538204e-05,-6.912464790e-04,-5.071045458e-05,-7.419569335e-04,-5.088256664e-04,1.101111817e-04,-3.987144847e-04,-4.794179444e-04,3.615799609e-05,-4.432599483e-04,-2.821922047e-05,-6.848224611e-05,-9.670146658e-05,4.801765794e-05,-6.760805994e-05,-1.959040200e-05,6.972699992e-04,1.122289408e-04,8.094989400e-04,-4.081824117e-04,-1.527351512e-04,-5.609175629e-04,1.824084726e-04,-2.615785867e-05,1.562506140e-04,-6.239572646e-05,-6.894517046e-05,-1.313408969e-04,1.950144394e-05,-1.728201429e-05,2.219429658e-06,1.693360560e-04,-5.082106010e-05,1.185149959e-04,2.406603713e-04,-1.931750646e-05,2.213428649e-04,3.533022974e-04,4.474304824e-05,3.980453456e-04,2.722585920e-04,-2.417266546e-04,3.053193732e-05,-5.047467416e-04,4.851009769e-05,-4.562366439e-04,4.773877764e-04,3.760640144e-05,5.149941778e-04,1.965303055e-05,1.335199671e-05,3.300502725e-05,5.881637034e-05,-2.081482286e-05,3.800154748e-05,-4.653271348e-04,-8.958113033e-06,-4.742852478e-04,8.971478524e-04,1.983257795e-05,9.169804303e-04,1.641613390e-04,-2.550798155e-05,1.386533575e-04,3.812131270e-04,-2.245904081e-04,1.566227189e-04,-9.808112744e-05,2.585861880e-05,-7.222250864e-05,3.580867624e-04,-1.155596070e-04,2.425271554e-04,-1.114396607e-05,-1.054024505e-05,-2.168421112e-05
-8.1,6.173397043e-05,-9.300015844e-05,-3.126618801e-05,-2.920010051e-04,-1.001903832e-05,-3.020200434e-04,4.271164018e-04,-4.172893737e-05,3.853874644e-04,2.555183272e-04,-5.995669896e-05,1.955616282e-04,-1.380899512e-04,-1.826758265e-04,-3.207657777e-04,-1.253401891e-04,-2.300349425e-05,-1.483436834e-04,-4.085267055e-04,-1.508323479e-04,-5.593590533e-04,1.215738503e-04,-6.828110699e-05,5.329274331e-05,-4.465148870e-04,-1.160170483e-04,-5.625319353e-04,-5.026170936e-04,-5.318956903e-05,-5.558066626e-04,2.711926832e-04,-2.765263812e-04,-5.333697982e-06,-7.501843847e-04,-4.161861623e-05,-7.918030010e-04,-6.220809811e-04,1.175670351e-04,-5.045139460e-04,-5.416117725e-04,4.487077605e-05,-4.967409964e-04,-1.251580172e-04,-6.847559597e-05,-1.936336132e-04,-5.997364900e-05,-6.456563313e-05,-1.245392821e-04,5.954567148e-04,1.213548143e-04,7.168115291e-04,-5.146672025e-04,-1.330085187e-04,-6.476757212e-04,1.035238732e-04,-1.983272597e-05,8.369114726e-05,-1.090556999e-04,-6.518059656e-05,-1.742362964e-04,-2.316403068e-05,-1.301419451e-05,-3.617822520e-05,1.538471557e-04,-4.682331622e-05,1.070238395e-04,1.944308481e-04,-1.010125950e-05,1.843295886e-04,3.516496491e-04,4.846507688e-05,4.001147260e-04,1.747413602e-04,-2.235340471e-04,-4.879268694e-05,-5.514225864e-04,6.074869441e-05,-4.906738920e-04,3.794710344e-04,3.538154956e-05,4.148525840e-04,-2.972165505e-05,2.502002964e-05,-4.701625411e-06,2.303010690e-05,-1.478945536e-05,8.240651542e-06,-5.233960697e-04,-4.734573276e-06,-5.281306430e-04,8.592629022e-04,2.037927378e-05,8.796421760e-04,1.178542227e-04,-2.405869076e-05,9.379553193e-05,3.486981465e-04,-2.174903668e-04,1.312077797e-04,-1.695413087e-04,3.137041500e-05,-1.381708937e-04,2.845948715e-04,-1.088049454e-04,1.757899261e-04,-1.065277611e-04,-1.752712233e-05,-1.240548835e-04
-8,5.175127806e-05,-8.600924143e-05,-3.425796338e-05,-3.067957635e-04,-1.646899454e-06,-3.084426630e-04,3.867762283e-04,-4.077913466e-05,3.459970936e-04,2.041077724e-04,-5.934967867e-05,1.447580937e-04,-1.883006661e-04,-1.687854872e-04,-3.570861532e-04,-1.851919231e-04,-1.200570055e-05,-1.971976236e-04,-4.533012384e-04,-1.383795601e-04,-5.916807984e-04,8.209480768e-05,-5.866770280e-05,2.342710488e-05,-4.952559484e-04,-1.064376618e-04,-6.016936102e-04,-5.434618227e-04,-4.032746621e-05,-5.837892889e-04,1.958794371e-04,-2.560277050e-04,-6.014826794e-05,-8.043260399e-04,-3.161563706e-05,-8.359416770e-04,-7.309983636e-04,1.234897369e-04,-6.075086268e-04,-5.991779732e-04,5.375457639e-05,-5.454233968e-04,-2.203125079e-04,-6.679867217e-05,-2.871111801e-04,-1.650928048e-04,-6.160966710e-05,-2.267024719e-04,4.930812396e-04,1.302523427e-04,6.233335822e-04,-6.159751528e-04,-1.132552530e-04,-7.292304058e-04,2.506416051e-05,-1.380496579e-05,1.125919472e-05,-1.537015570e-04,-6.121473465e-05,-2.149162916e-04,-6.410092010e-05,-8.684211957e-06,-7.278513206e-05,1.395183846e-04,-4.272127209e-05,9.679711247e-05,1.503809602e-04,-1.333214206e-06,1.490477460e-04,3.498317077e-04,5.158639233e-05,4.014181001e-04,7.788267191e-05,-2.030354705e-04,-1.251527986e-04,-5.948080455e-04,7.274264197e-05,-5.220654036e-04,2.814133179e-04,3.267348915e-05,3.140868071e-04,-7.823547937e-05,3.639950072e-05,-4.183597865e-05,-1.203918912e-05,-8.858852098e-06,-2.089804122e-05,-5.778810550e-04,-8.084572550e-07,-5.786895122e-04,8.208279084e-04,2.082664205e-05,8.416545505e-04,7.323811936e-05,-2.255271602e-05,5.068540334e-05,3.153102144e-04,-2.097742298e-04,1.055359846e-04,-2.402254657e-04,3.683375066e-05,-2.033917151e-04,2.122280222e-04,-1.016039828e-04,1.106240394e-04,-1.988531400e-04,-2.475900470e-05,-2.236121447e-04
-7.9,4.423431856e-05,-7.928923511e-05,-3.505491655e-05,-3.201923471e-04,6.707972588e-06,-3.134843745e-04,3.476809441e-04,-3.973236549e-05,3.079485786e-04,1.537877061e-04,-5.847354531e-05,9.531416079e-05,-2.361198063e-04,-1.545993293e-04,-3.907191356e-04,-2.421585563e-04,-1.171569125e-06,-2.433301255e-04,-4.953274408e-04,-1.258553713e-04,-6.211828121e-04,4.323626936e-05,-4.920710781e-05,-5.970838448e-06,-5.412093356e-04,-9.663086077e-05,-6.378401964e-04,-5.811571186e-04,-2.778026789e-05,-6.089373865e-04,1.226814727e-04,-2.349465887e-04,-1.122651161e-04,-8.533770877e-04,-2.072654470e-05,-8.741036324e-04,-8.349039851e-04,1.277738368e-04,-7.071301483e-04,-6.517830441e-04,6.271033906e-05,-5.890727050e-04,-3.133040056e-04,-6.343355062e-05,-3.767375562e-04,-2.668312575e-04,-5.878813405e-05,-3.256193915e-04,3.906244926e-04,1.387943971e-04,5.294188896e-04,-7.116697018e-04,-9.355983749e-05,-8.052295393e-04,-5.250073220e-05,-8.099804728e-06,-6.060053693e-05,-1.961365421e-04,-5.706762093e-05,-2.532041631e-04,-1.031238585e-04,-4.319883692e-06,-1.074437422e-04,1.265091022e-04,-3.856449696e-05,8.794460525e-05,1.086738678e-04,6.965711739e-06,1.156395796e-04,3.479116680e-04,5.411287639e-05,4.020245444e-04,-1.767610145e-05,-1.804700532e-04,-1.981461546e-04,-6.346660831e-04,8.440446941e-05,-5.502616137e-04,1.838618670e-04,2.952544570e-05,2.133873127e-04,-1.255623441e-04,4.742459641e-05,-7.813774768e-05,-4.611663891e-05,-3.116164427e-06,-4.923280333e-05,-6.284600330e-04,2.798683891e-06,-6.256613491e-04,7.819662092e-04,2.119024029e-05,8.031564495e-04,3.055759368e-05,-2.100112541e-05,9.556468262e-06,2.812332716e-04,-2.015286988e-04,7.970457282e-05,-3.097180465e-04,4.219380451e-05,-2.675242420e-04,1.414442967e-04,-9.404599298e-05,4.739830368e-05,-2.876209357e-04,-3.226701614e-05,-3.198879519e-04
-7.8,3.917419455e-05,-7.286004956e-05,-3.368585501e-05,-3.320819969e-04,1.499900902e-05,-3.170829879e-04,3.099668911e-04,-3.863174492e-05,2.713351462e-04,1.047160384e-04,-5.734574199e-05,4.737029645e-05,-2.813817780e-04,-1.401589359e-04,-4.215407139e-04,-2.960470546e-04,9.449140730e-06,-2.865979139e-04,-5.344735750e-04,-1.132845710e-04,-6.477581460e-04,5.171154385e-06,-3.992106565e-05,-3.474991127e-05,-5.841989771e-04,-8.661551815e-05,-6.708144953e-04,-6.155493556e-04,-1.558475618e-05,-6.311341118e-04,5.188986770e-05,-2.133801154e-04,-1.614902476e-04,-8.970862126e-04,-8.992498028e-06,-9.060787106e-04,-9.332032081e-04,1.303426216e-04,-8.028605865e-04,-6.991391425e-04,7.163363777e-05,-6.275055048e-04,-4.037827625e-04,-5.838779620e-05,-4.621705587e-04,-3.647292904e-04,-5.614424319e-05,-4.208735335e-04,2.885699171e-04,1.468301555e-04,4.354000726e-04,-8.013762775e-04,-7.400747601e-05,-8.753837535e-04,-1.287345828e-04,-2.736255508e-06,-1.314708383e-04,-2.361913954e-04,-5.276065592e-05,-2.889520514e-04,-1.400751469e-04,5.060262203e-08,-1.400245443e-04,1.149432461e-04,-3.440206172e-05,8.054118442e-05,6.944002885e-05,1.477773824e-05,8.421776709e-05,3.459381041e-04,5.605592951e-05,4.019940336e-04,-1.113077235e-04,-1.561121940e-04,-2.674199174e-04,-6.707978371e-04,9.564211271e-05,-5.751557244e-04,8.742404732e-05,2.600378816e-05,1.134278355e-04,-1.714209287e-04,5.803599673e-05,-1.133849319e-04,-7.895955130e-05,2.345586599e-06,-7.661396470e-05,-6.748597868e-04,6.066680213e-06,-6.687931066e-04,7.427779102e-04,2.148225208e-05,7.642601623e-04,-9.982500796e-06,-1.941339141e-05,-2.939589221e-05,2.466401421e-04,-1.928544381e-04,5.378570399e-05,-3.776386760e-04,4.739542451e-05,-3.302432515e-04,7.265568006e-05,-8.621588047e-05,-1.356020042e-05,-3.723923825e-04,-4.007706159e-05,-4.124694441e-04
-7.7,3.653258464e-05,-6.673860994e-05,-3.020602531e-05,-3.423781970e-04,2.318170943e-05,-3.191964875e-04,2.737483536e-04,-3.751830457e-05,2.362300491e-04,5.703573146e-05,-5.598384319e-05,1.051888274e-06,-3.239580943e-04,-1.255059883e-04,-4.494640825e-04,-3.466941863e-04,1.980875054e-05,-3.268854357e-04,-5.706412542e-04,-1.006928285e-04,-6.713340826e-04,-3.193913063e-05,-3.082955034e-05,-6.276868097e-05,-6.240890413e-04,-7.641316456e-05,-7.005022059e-04,-6.465251011e-04,-3.774683690e-06,-6.502997848e-04,-1.624044533e-05,-1.914285107e-04,-2.076689560e-04,-9.352472315e-04,3.527589977e-06,-9.317196415e-04,-1.025385811e-03,1.311497094e-04,-8.942361018e-04,-7.410112018e-04,8.041769921e-05,-6.605935026e-04,-4.914285082e-04,-5.169902425e-05,-5.431275325e-04,-4.583809823e-04,-5.371471146e-05,-5.120956937e-04,1.873905058e-04,1.541968642e-04,3.415873700e-04,-8.847852289e-04,-5.468226527e-05,-9.394674942e-04,-2.032393451e-04,2.273493761e-06,-2.009658513e-04,-2.737255920e-04,-4.831644643e-05,-3.220420385e-04,-1.748264486e-04,4.398876350e-06,-1.704275722e-04,1.049077846e-04,-3.028177414e-05,7.462601045e-05,3.277717856e-05,2.208862058e-05,5.486579914e-05,3.439454590e-04,5.743211762e-05,4.013775766e-04,-2.024070549e-04,-1.302686744e-04,-3.326757292e-04,-7.030447061e-04,1.063613855e-04,-5.966833206e-04,-7.340715969e-06,2.219300075e-05,1.485228478e-05,-2.155764907e-04,6.818167000e-05,-1.473948207e-04,-1.103590814e-04,7.436155955e-06,-1.029229254e-04,-7.168565332e-04,8.977189812e-06,-7.078793434e-04,7.033415456e-04,2.171027455e-05,7.250518201e-04,-4.821763599e-05,-1.779696334e-05,-6.601459933e-05,2.116921608e-04,-1.838643223e-04,2.782783852e-05,-4.436453106e-04,5.238449848e-05,-3.912608121e-04,6.225773765e-06,-7.819392034e-05,-7.196814658e-05,-4.527895858e-04,-4.820903847e-05,-5.009986243e-04
-7.6,3.624213903e-05,-6.093847691e-05,-2.469633788e-05,-3.510185361e-04,3.121392555e-05,-3.198046105e-04,2.391155909e-04,-3.643058839e-05,2.026850025e-04,1.087310099e-05,-5.440549565e-05,-4.353239466e-05,-3.637555652e-04,-1.106820883e-04,-4.744376535e-04,-3.939672839e-04,2.986215056e-05,-3.641051334e-04,-6.037628624e-04,-8.810666672e-05,-6.918695291e-04,-6.794545437e-05,-2.195078918e-05,-8.989624355e-05,-6.607796571e-04,-6.604796471e-05,-7.268276218e-04,-6.740079638e-04,7.619442301e-06,-6.663885215e-04,-8.148868271e-05,-1.691943508e-04,-2.506830335e-04,-9.676982032e-04,1.675591639e-05,-9.509422868e-04,-1.111027551e-03,1.301801397e-04,-9.808474114e-04,-7.772206595e-04,8.895645416e-05,-6.882642053e-04,-5.759499163e-04,-4.343727639e-05,-6.193871927e-04,-5.474367259e-04,-5.152824270e-05,-5.989649686e-04,8.753689542e-05,1.607324055e-04,2.482693010e-04,-9.616514644e-04,-3.566528412e-05,-9.973167486e-04,-2.756573503e-04,6.925182870e-06,-2.687321675e-04,-3.086274269e-04,-4.375861152e-05,-3.523860384e-04,-2.072789771e-04,8.696657812e-06,-1.985823193e-04,9.645321322e-05,-2.624943844e-05,7.020377478e-05,-1.248198910e-06,2.888802040e-05,2.763982149e-05,3.419557359e-04,5.826280436e-05,4.002185402e-04,-2.903971122e-04,-1.032743062e-04,-3.936714184e-04,-7.312878178e-04,1.164689150e-04,-6.148189028e-04,-9.992506397e-05,1.818937086e-05,-8.173569311e-05,-2.578384404e-04,7.781671536e-05,-1.800217250e-04,-1.401394819e-04,1.207096007e-05,-1.280685218e-04,-7.542745662e-04,1.151466988e-05,-7.427598963e-04,6.637177821e-04,2.187653625e-05,6.855943183e-04,-8.402147136e-05,-1.615726419e-05,-1.001787356e-04,1.765413761e-04,-1.746812334e-04,1.860142764e-06,-5.074349782e-04,5.710950592e-05,-4.503254723e-04,-5.752874500e-05,-7.005654711e-05,-1.275852921e-04,-5.284928176e-04,-5.667588228e-05,-5.851686999e-04
-7.5,3.820789419e-05,-5.546948369e-05,-1.726158950e-05,-3.579648495e-04,3.905615100e-05,-3.189086985e-04,2.061342852e-04,-3.540426527e-05,1.707300199e-04,-3.366288548e-05,-5.262842518e-05,-8.629131066e-05,-4.007126521e-04,-9.572869008e-05,-4.964413422e-04,-4.377639550e-04,3.956721359e-05,-3.981967414e-04,-6.337975970e-04,-7.555347223e-05,-7.093510693e-04,-1.027112104e-04,-1.330153894e-05,-1.160127493e-04,-6.942013069e-04,-5.554664858e-05,-7.497479555e-04,-6.979542654e-04,1.857047511e-05,-6.793837903e-04,-1.436651736e-04,-1.467817244e-04,-2.904468980e-04,-9.943190396e-04,3.059566586e-05,-9.637233737e-04,-1.189788749e-03,1.274505034e-04,-1.062338246e-03,-8.076462229e-04,9.714738887e-05,-7.104988340e-04,-6.570842127e-04,-3.370452964e-05,-6.907887423e-04,-6.316034548e-04,-4.960444666e-05,-6.812079014e-04,-1.057092414e-05,1.662861798e-04,1.557152557e-04,-1.031791840e-03,-1.703294578e-05,-1.048824785e-03,-3.456717327e-04,1.122375374e-05,-3.344479790e-04,-3.408133989e-04,-3.911147998e-05,-3.799248789e-04,-2.373627486e-04,1.291614097e-05,-2.244466076e-04,8.959522484e-05,-2.234820939e-05,6.724701545e-05,-3.259905791e-05,3.516972113e-05,2.570663218e-06,3.399805686e-04,5.857386154e-05,3.985544302e-04,-3.747334133e-04,-7.548552474e-05,-4.502189381e-04,-7.554459419e-04,1.258754286e-04,-6.295705133e-04,-1.898750891e-04,1.409549098e-05,-1.757795981e-04,-2.980556182e-04,8.690235920e-05,-2.111532590e-04,-1.681568487e-04,1.617390992e-05,-1.519829388e-04,-7.869845440e-04,1.366748836e-05,-7.733170556e-04,6.239536677e-04,2.197775240e-05,6.459314201e-04,-1.173025523e-04,-1.449793892e-05,-1.318004913e-04,1.413337943e-04,-1.654352390e-04,-2.410144475e-05,-5.687426447e-04,6.152308129e-05,-5.072195634e-04,-1.183347311e-04,-6.187762536e-05,-1.802123565e-04,-5.992364927e-04,-6.548179544e-05,-6.647182882e-04
-7.4,4.230914147e-05,-5.033755323e-05,-8.028411762e-06,-3.632024127e-04,4.667165805e-05,-3.165307546e-04,1.748455739e-04,-3.447175743e-05,1.403738165e-04,-7.648095810e-05,-5.067046746e-05,-1.271514256e-04,-4.347959976e-04,-8.068713333e-05,-5.154831309e-04,-4.780115175e-04,4.888519358e-05,-4.291263239e-04,-6.607282914e-04,-6.306149225e-05,-7.237897836e-04,-1.361125432e-04,-4.897388121e-06,-1.410099313e-04,-7.243106281e-04,-4.493830850e-05,-7.692489366e-04,-7.183498502e-04,2.905470191e-05,-6.892951483e-04,-2.026095105e-04,-1.242952972e-04,-3.269048077e-04,-1.015029654e-03,4.493167775e-05,-9.700979759e-04,-1.261412061e-03,1.230084278e-04,-1.138403634e-03,-8.322232334e-04,1.048941404e-04,-7.273290931e-04,-7.345978858e-04,-2.263164502e-05,-7.572295308e-04,-7.106436227e-04,-4.795316653e-05,-7.585967892e-04,-1.065476862e-04,1.707266165e-04,6.417893036e-05,-1.095082381e-03,1.144173456e-06,-1.093938207e-03,-4.130064938e-04,1.518441712e-05,-3.978220767e-04,-3.702274584e-04,-3.439974269e-05,-4.046272011e-04,-2.650356813e-04,1.703036493e-05,-2.480053163e-04,8.431641390e-05,-1.861813890e-05,6.569827501e-05,-6.126673419e-05,4.093161664e-05,-2.033511755e-05,3.380226987e-04,5.839543693e-05,3.964181356e-04,-4.549078778e-04,-4.727212451e-05,-5.021800023e-04,-7.754736526e-04,1.344991407e-04,-6.409745119e-04,-2.767916568e-04,1.001715148e-05,-2.667745053e-04,-3.361117848e-04,9.540444247e-05,-2.407073423e-04,-1.942990580e-04,1.967979149e-05,-1.746192665e-04,-8.149028815e-04,1.542877963e-05,-7.994741018e-04,5.840857160e-04,2.200550371e-05,6.060912197e-04,-1.480016997e-04,-1.282122685e-05,-1.608229266e-04,1.062112333e-04,-1.562596035e-04,-5.004837026e-05,-6.273391738e-04,6.558333383e-05,-5.617558400e-04,-1.759593344e-04,-5.372979877e-05,-2.296891331e-04,-6.648055640e-04,-7.461973555e-05,-7.394252996e-04
-7.3,4.840105681e-05,-4.554473024e-05,2.856326573e-06,-3.667391483e-04,5.402645732e-05,-3.127126910e-04,1.452659004e-04,-3.366185210e-05,1.116040483e-04,-1.175081690e-04,-4.854952568e-05,-1.660576947e-04,-4.659986819e-04,-6.559869957e-05,-5.315973815e-04,-5.146668272e-04,5.778115749e-05,-4.568856698e-04,-6.845604039e-04,-5.065976633e-05,-7.352201702e-04,-1.680388999e-04,3.247104339e-06,-1.647917955e-04,-7.510891804e-04,-3.425408619e-05,-7.853432666e-04,-7.352093093e-04,3.905188547e-05,-6.961574238e-04,-2.581910771e-04,-1.018393165e-04,-3.600303936e-04,-1.029789885e-03,5.963140341e-05,-9.701584821e-04,-1.325720959e-03,1.169315129e-04,-1.208789446e-03,-8.509432311e-04,1.121087978e-04,-7.388344333e-04,-8.082882523e-04,-1.037445665e-05,-8.186627090e-04,-7.843741956e-04,-4.657401664e-05,-8.309482123e-04,-2.000442893e-04,1.739454508e-04,-2.609883845e-05,-1.151456797e-03,1.880198827e-05,-1.132654809e-03,-4.774273733e-04,1.883311237e-05,-4.585942609e-04,-3.968405144e-04,-2.964812327e-05,-4.264886377e-04,-2.902831172e-04,2.101348245e-05,-2.692696347e-04,8.056725734e-05,-1.509592399e-05,6.547133335e-05,-8.727113893e-05,4.617550990e-05,-4.109562903e-05,3.360762815e-04,5.776173150e-05,3.938380130e-04,-5.304537552e-04,-1.900777483e-05,-5.494615301e-04,-7.913610126e-04,1.422688711e-04,-6.490921415e-04,-3.603334203e-04,6.063192957e-06,-3.542702273e-04,-3.719230671e-04,1.032919015e-04,-2.686311656e-04,-2.184874453e-04,2.253592828e-05,-1.959515170e-04,-8.379927785e-04,1.679693533e-05,-8.211958432e-04,5.441409314e-04,2.194690082e-05,5.660878323e-04,-1.760909962e-04,-1.112841319e-05,-1.872194094e-04,7.131053166e-05,-1.472857925e-04,-7.597526080e-05,-6.830291571e-04,6.925460479e-05,-6.137745524e-04,-2.302080000e-04,-4.568577339e-05,-2.758937733e-04,-7.250331805e-04,-8.406889310e-05,-8.091020736e-04
-7.2,5.631563658e-05,-4.108932356e-05,1.522631303e-05,-3.686054822e-04,6.108917865e-05,-3.075163035e-04,1.173863421e-04,-3.299929840e-05,8.438704365e-05,-1.566910681e-04,-4.628341860e-05,-2.029744867e-04,-4.943406308e-04,-5.050463456e-05,-5.448452653e-04,-5.477167200e-04,6.622440563e-05,-4.814923144e-04,-7.053233087e-04,-3.837799253e-05,-7.437013013e-04,-1.983939895e-04,1.111849498e-05,-1.872754945e-04,-7.745452057e-04,-2.352681639e-05,-7.980720221e-04,-7.485775250e-04,4.854527219e-05,-7.000322528e-04,-3.103118504e-04,-7.951662268e-05,-3.898284731e-04,-1.038601397e-03,7.454610060e-05,-9.640552964e-04,-1.382618854e-03,1.093250997e-04,-1.273293754e-03,-8.638545446e-04,1.187137880e-04,-7.451407566e-04,-8.779850868e-04,2.889348897e-06,-8.750957379e-04,-8.526663717e-04,-4.545600514e-05,-8.981223769e-04,-2.907486600e-04,1.758600120e-04,-1.148886480e-04,-1.200906423e-03,3.588313610e-05,-1.165023287e-03,-5.387435170e-04,2.220599327e-05,-5.165375237e-04,-4.206503396e-04,-2.488099800e-05,-4.455313376e-04,-3.131179728e-04,2.484099490e-05,-2.882769779e-04,7.826622631e-05,-1.181470991e-05,6.645151641e-05,-1.106620185e-04,5.090680288e-05,-5.975521558e-05,3.341260467e-04,5.671073759e-05,3.908367843e-04,-6.009522313e-04,8.939898110e-06,-5.920123332e-04,-8.031349947e-04,1.491266292e-04,-6.540083655e-04,-4.402210109e-04,2.347412681e-06,-4.378735982e-04,-4.054376875e-04,1.105355065e-04,-2.949021810e-04,-2.406796785e-04,2.470309059e-05,-2.159765879e-04,-8.562663561e-04,1.777583507e-05,-8.384905210e-04,5.041359287e-04,2.178538827e-05,5.259213169e-04,-2.015742083e-04,-9.420317281e-06,-2.109945255e-04,3.676026979e-05,-1.386383993e-04,-1.018781295e-04,-7.356490394e-04,7.250757561e-05,-6.631414638e-04,-2.809239487e-04,-3.781931362e-05,-3.187432623e-04,-7.798000549e-04,-9.379265859e-05,-8.735927135e-04
-7.1,6.586194349e-05,-3.696610232e-05,2.889584117e-05,-3.688549083e-04,6.783096650e-05,-3.010239418e-04,9.117151853e-05,-3.250444965e-05,5.866706889e-05,-1.939973124e-04,-4.388968011e-05,-2.378869925e-04,-5.198705813e-04,-3.544614970e-05,-5.553167310e-04,-5.771788531e-04,7.418879075e-05,-5.029900624e-04,-7.230730584e-04,-2.624635949e-05,-7.493194179e-04,-2.270970347e-04,1.870472165e-05,-2.083923130e-04,-7.947173109e-04,-1.279063919e-05,-8.075079501e-04,-7.585325052e-04,5.752160056e-05,-7.010109047e-04,-3.589105021e-04,-5.742767580e-05,-4.163381779e-04,-1.041511051e-03,8.951274757e-05,-9.519983035e-04,-1.432087868e-03,1.003183281e-04,-1.331769540e-03,-8.710636572e-04,1.246431878e-04,-7.464204694e-04,-9.435518809e-04,1.696240144e-05,-9.265894795e-04,-9.154459042e-04,-4.457730885e-05,-9.600232130e-04,-3.783870176e-04,1.764146740e-04,-2.019723436e-04,-1.243480911e-03,5.233697039e-05,-1.191143940e-03,-5.968091593e-04,2.534789895e-05,-5.714612603e-04,-4.416817248e-04,-2.012185422e-05,-4.618035791e-04,-3.335813289e-04,2.849008106e-05,-3.050912478e-04,7.729943332e-05,-8.803763837e-06,6.849566948e-05,-1.315205391e-04,5.513412800e-05,-7.638641109e-05,3.321458189e-04,5.528384798e-05,3.874296668e-04,-6.660399913e-04,3.621838798e-05,-6.298216033e-04,-8.108619825e-04,1.550295607e-04,-6.558324218e-04,-5.162406627e-04,-1.009852636e-06,-5.172505153e-04,-4.366370937e-04,1.171067855e-04,-3.195303082e-04,-2.608726982e-04,2.615583173e-05,-2.347168665e-04,-8.697866030e-04,1.837486047e-05,-8.514117426e-04,4.640749374e-04,2.150166205e-05,4.855765995e-04,-2.244878760e-04,-7.697739281e-06,-2.321856152e-04,2.675582698e-06,-1.304305318e-04,-1.277549491e-04,-7.850656252e-04,7.531893842e-05,-7.097466868e-04,-3.279890946e-04,-3.020560736e-05,-3.581947019e-04,-8.290355674e-04,-1.037373234e-04,-9.327728908e-04
-7,7.682610917e-05,-3.316658512e-05,4.365952405e-05,-3.675648342e-04,7.422541508e-05,-2.933394191e-04,6.655854077e-05,-3.219301637e-05,3.436552440e-05,-2.294173169e-04,-4.138538679e-05,-2.708027036e-04,-5.426683414e-04,-2.046442547e-05,-5.631327669e-04,-6.031024746e-04,8.165291207e-05,-5.214495625e-04,-7.378951892e-04,-1.429535834e-05,-7.521905475e-04,-2.540840630e-04,2.599544184e-05,-2.280886211e-04,-8.116782574e-04,-2.080562561e-06,-8.137588200e-04,-7.651879414e-04,6.597114756e-05,-6.992167938e-04,-4.039662660e-04,-3.566956920e-05,-4.396358352e-04,-1.038614866e-03,1.043573885e-04,-9.342574775e-04,-1.474186201e-03,9.005889850e-05,-1.384127303e-03,-8.727362665e-04,1.298433754e-04,-7.428928911e-04,-1.004886149e-03,3.162954295e-05,-9.732566064e-04,-9.726932754e-04,-4.390540723e-05,-1.016598683e-03,-4.627254495e-04,1.755819762e-04,-2.871434733e-04,-1.279288663e-03,6.811949934e-05,-1.211169164e-03,-6.515243864e-04,2.831010351e-05,-6.232142829e-04,-4.599864368e-04,-1.539263496e-05,-4.753790718e-04,-3.517428737e-04,3.194001097e-05,-3.198028628e-04,7.752063188e-05,-6.087974272e-06,7.143265761e-05,-1.499600758e-04,5.886895966e-05,-9.109111614e-05,3.300971767e-04,5.352521522e-05,3.836223919e-04,-7.254161367e-04,6.249722461e-05,-6.629189121e-04,-8.146500985e-04,1.599511596e-04,-6.546989389e-04,-5.882457986e-04,-3.882779489e-06,-5.921285781e-04,-4.655371737e-04,1.229770533e-04,-3.425601204e-04,-2.791043768e-04,2.688254980e-05,-2.522218270e-04,-8.786675295e-04,1.860862843e-05,-8.600589011e-04,4.239477246e-04,2.107470993e-05,4.450224345e-04,-2.449020977e-04,-5.961765295e-06,-2.508638630e-04,-3.084819319e-05,-1.227595399e-04,-1.536077330e-04,-8.311747189e-04,7.767087584e-05,-7.535038431e-04,-3.713259909e-04,-2.292073899e-05,-3.942467299e-04,-8.727195157e-04,-1.138321511e-04,-9.865516668e-04
-6.9,8.897178950e-05,-2.967940925e-05,5.929238026e-05,-3.648369878e-04,8.024855181e-05,-2.845884360e-04,4.345672308e-05,-3.207594029e-05,1.138078278e-05,-2.629653743e-04,-3.878703444e-05,-3.017524087e-04,-5.628456860e-04,-5.600595330e-06,-5.684462813e-04,-6.255684944e-04,8.860022231e-05,-5.369682721e-04,-7.499057952e-04,-2.555570478e-06,-7.524613657e-04,-2.793088895e-04,3.298230085e-05,-2.463265886e-04,-8.255365426e-04,8.567986830e-06,-8.169685557e-04,-7.686936295e-04,7.388778043e-05,-6.948058491e-04,-4.455006996e-04,-1.433504876e-05,-4.598357484e-04,-1.030061070e-03,1.189001761e-04,-9.111608944e-04,-1.509043417e-03,7.870765216e-05,-1.430335765e-03,-8.690966567e-04,1.342731146e-04,-7.348235422e-04,-1.061917509e-03,4.665966871e-05,-1.015257840e-03,-1.024442769e-03,-4.339767499e-05,-1.067840444e-03,-5.435713870e-04,1.733635617e-04,-3.702078254e-04,-1.308495737e-03,8.319337678e-05,-1.225302360e-03,-7.028341028e-04,3.114779111e-05,-6.716863117e-04,-4.756423401e-04,-1.071318377e-05,-4.863555238e-04,-3.677003434e-04,3.517249605e-05,-3.325278474e-04,7.875261424e-05,-3.687287398e-06,7.506532684e-05,-1.661249991e-04,6.212529404e-05,-1.039997051e-04,3.279290473e-04,5.148080350e-05,3.794098508e-04,-7.788471807e-04,8.747266752e-05,-6.913745132e-04,-8.146498296e-04,1.638816381e-04,-6.507681915e-04,-6.561558314e-04,-6.144080458e-06,-6.622999118e-04,-4.921883447e-04,1.281167659e-04,-3.640715788e-04,-2.954523380e-04,2.688542394e-05,-2.685669140e-04,-8.830710199e-04,1.849645185e-05,-8.645745681e-04,3.837286089e-04,2.048292027e-05,4.042115292e-04,-2.629200402e-04,-4.213824922e-06,-2.671338651e-04,-6.374182288e-05,-1.157029443e-04,-1.794447672e-04,-8.738993065e-04,7.955039463e-05,-7.943489119e-04,-4.108996649e-04,-1.604023744e-05,-4.269399024e-04,-9.108827522e-04,-1.239914056e-04,-1.034874158e-03
-6.8,1.020418029e-04,-2.649065888e-05,7.555114398e-05,-3.607965415e-04,8.587890992e-05,-2.749176315e-04,2.174888844e-05,-3.215936871e-05,-1.041048027e-05,-2.946795479e-04,-3.611045549e-05,-3.307900034e-04,-5.805441653e-04,9.104325336e-06,-5.714398400e-04,-6.446881345e-04,9.501904672e-05,-5.496690878e-04,-7.592491141e-04,8.942552983e-06,-7.503065611e-04,-3.027434075e-04,3.965898366e-05,-2.630844238e-04,-8.364335439e-04,1.911952867e-05,-8.173140152e-04,-7.692320209e-04,8.126891774e-05,-6.879631031e-04,-4.835755901e-04,6.488373966e-06,-4.770872162e-04,-1.016050250e-03,1.329612768e-04,-8.830889737e-04,-1.536853135e-03,6.643370581e-05,-1.470419430e-03,-8.604241502e-04,1.379033780e-04,-7.225207722e-04,-1.114602279e-03,6.180744235e-05,-1.052794837e-03,-1.070779484e-03,-4.300233185e-05,-1.113781816e-03,-6.207743104e-04,1.697910484e-04,-4.509832621e-04,-1.331321741e-03,9.752800026e-05,-1.233793741e-03,-7.507244239e-04,3.391772569e-05,-7.168066982e-04,-4.887510976e-04,-6.100949523e-06,-4.948520471e-04,-3.815771483e-04,3.817188099e-05,-3.434052673e-04,8.079097886e-05,-1.616222537e-06,7.917475633e-05,-1.801866713e-04,6.491949443e-05,-1.152671768e-04,3.255787970e-04,4.919723003e-05,3.747760271e-04,-8.261697409e-04,1.108714384e-04,-7.152983025e-04,-8.110515743e-04,1.668275358e-04,-6.442240386e-04,-7.199519128e-04,-7.670445960e-06,-7.276223588e-04,-5.166732307e-04,1.324956289e-04,-3.841776018e-04,-3.100285705e-04,2.618007671e-05,-2.838484938e-04,-8.831994897e-04,1.806170027e-05,-8.651377894e-04,3.433777999e-04,1.970514409e-05,3.630829440e-04,-2.786751863e-04,-2.455521998e-06,-2.811307083e-04,-9.596663507e-05,-1.093145843e-04,-2.052812194e-04,-9.131864981e-04,8.094848834e-05,-8.322380098e-04,-4.467176049e-04,-9.636926127e-06,-4.563545311e-04,-9.436053659e-04,-1.341179182e-04,-1.077723284e-03
-6.7,1.157614951e-04,-2.358406728e-05,9.217742779e-05,-3.555892278e-04,9.109771020e-05,-2.644915176e-04,1.294844626e-06,-3.244474599e-05,-3.114990137e-05,-3.246197684e-04,-3.337079760e-05,-3.579905660e-04,-5.959288085e-04,2.360954047e-05,-5.723192680e-04,-6.605996100e-04,1.009024481e-04,-5.596971619e-04,-7.660907948e-04,2.016887926e-05,-7.459219155e-04,-3.243769092e-04,4.602095418e-05,-2.783559550e-04,-8.445353613e-04,2.953875144e-05,-8.149966099e-04,-7.670102649e-04,8.811532766e-05,-6.788949372e-04,-5.182863807e-04,2.671914338e-05,-4.915672373e-04,-9.968310236e-04,1.463661544e-04,-8.504648692e-04,-1.557862611e-03,5.341006357e-05,-1.504452547e-03,-8.470460272e-04,1.407173013e-04,-7.063287259e-04,-1.162914537e-03,7.681551300e-05,-1.086099024e-03,-1.111833536e-03,-4.265971740e-05,-1.154493253e-03,-6.942243937e-04,1.649266708e-04,-5.292977229e-04,-1.348031715e-03,1.110997741e-04,-1.236931941e-03,-7.952158894e-04,3.667629608e-05,-7.585395933e-04,-4.994342427e-04,-1.570910529e-06,-5.010051533e-04,-3.935178852e-04,4.092525357e-05,-3.525926316e-04,8.341064282e-05,1.164539394e-07,8.352709676e-05,-1.923368553e-04,6.727027168e-05,-1.250665836e-04,3.229748620e-04,4.672060256e-05,3.696954646e-04,-8.672907873e-04,1.324546460e-04,-7.348361413e-04,-8.040794710e-04,1.688108593e-04,-6.352686116e-04,-7.796694952e-04,-8.347705205e-06,-7.880172005e-04,-5.391008405e-04,1.360837097e-04,-4.030171308e-04,-3.229698049e-04,2.479476733e-05,-2.981750376e-04,-8.792848612e-04,1.733124744e-05,-8.619536138e-04,3.028456383e-04,1.872173161e-05,3.215673699e-04,-2.923256699e-04,-6.884639537e-07,-2.930141338e-04,-1.275151762e-04,-1.036212642e-04,-2.311364405e-04,-9.490028741e-04,8.185937224e-05,-8.671435019e-04,-4.788265924e-04,-3.778375033e-06,-4.826049674e-04,-9.710117324e-04,-1.441072101e-04,-1.115118943e-03
-6.6,1.298438921e-04,-2.094116818e-05,1.089027239e-04,-3.493763109e-04,9.588907856e-05,-2.534872324e-04,-1.806312265e-05,-3.292906792e-05,-5.099219057e-05,-3.528641274e-04,-3.058259039e-05,-3.834467178e-04,-6.091784004e-04,3.787452462e-05,-5.713038758e-04,-6.734629468e-04,1.062479021e-04,-5.672150447e-04,-7.706079420e-04,3.109372963e-05,-7.395142123e-04,-3.442144816e-04,5.206491626e-05,-2.921495654e-04,-8.500209892e-04,3.979063747e-05,-8.102303518e-04,-7.622491607e-04,9.443077930e-05,-6.678183814e-04,-5.497525059e-04,4.628222611e-05,-5.034702798e-04,-9.726917305e-04,1.589495158e-04,-8.137422146e-04,-1.572359365e-03,3.980949144e-05,-1.532549874e-03,-8.293274551e-04,1.427104363e-04,-6.866170188e-04,-1.206835133e-03,9.141824530e-05,-1.115416888e-03,-1.147771401e-03,-4.230406420e-05,-1.190075465e-03,-7.638479587e-04,1.588630061e-04,-6.049849527e-04,-1.358924562e-03,1.238925322e-04,-1.235032030e-03,-8.363535351e-04,3.947764195e-05,-7.968758932e-04,-5.078279933e-04,2.864407299e-06,-5.049635860e-04,-4.036822286e-04,4.342259348e-05,-3.602596351e-04,8.637439696e-05,1.507874986e-06,8.788227194e-05,-2.027798458e-04,6.919861316e-05,-1.335812326e-04,3.200402743e-04,4.409550551e-05,3.641357798e-04,-9.021850268e-04,1.520219581e-04,-7.501630686e-04,-7.939821728e-04,1.698679900e-04,-6.241141827e-04,-8.353875639e-04,-8.075148454e-06,-8.434627123e-04,-5.595977568e-04,1.388534473e-04,-4.207443096e-04,-3.344256356e-04,2.276912888e-05,-3.116565067e-04,-8.715760383e-04,1.633499190e-05,-8.552410464e-04,2.620788576e-04,1.751578341e-05,2.795946410e-04,-3.040462230e-04,1.085709858e-06,-3.029605131e-04,-1.584070675e-04,-9.862071970e-05,-2.570277872e-04,-9.813289267e-04,8.228033812e-05,-8.990485886e-04,-5.073067335e-04,1.475974090e-06,-5.058307594e-04,-9.932625120e-04,-1.538516601e-04,-1.147114172e-03
-6.5,1.439960262e-04,-1.854154462e-05,1.254544816e-04,-3.423281743e-04,1.002401759e-04,-2.420879984e-04,-3.649372031e-05,-3.360529636e-05,-7.009901667e-05,-3.795040664e-04,-2.775986265e-05,-4.072639290e-04,-6.204746826e-04,5.185898496e-05,-5.686156977e-04,-6.834538135e-04,1.110568604e-04,-5.723969531e-04,-7.729786482e-04,4.168800112e-05,-7.312906471e-04,-3.622749057e-04,5.778819859e-05,-3.044867071e-04,-8.530702641e-04,4.984059258e-05,-8.032296715e-04,-7.551719709e-04,1.002216152e-04,-6.549503558e-04,-5.781074515e-04,6.510957323e-05,-5.129978783e-04,-9.439508088e-04,1.705584847e-04,-7.733923242e-04,-1.580656396e-03,2.580085390e-05,-1.554855542e-03,-8.076601453e-04,1.438911185e-04,-6.637690268e-04,-1.246341185e-03,1.053470554e-04,-1.140994130e-03,-1.178785483e-03,-4.186588589e-05,-1.220651369e-03,-8.296002569e-04,1.517210288e-04,-6.778792282e-04,-1.364320261e-03,1.358979410e-04,-1.228422320e-03,-8.741952895e-04,4.237156193e-05,-8.318237276e-04,-5.140775964e-04,7.194849415e-06,-5.068827470e-04,-4.122382660e-04,4.565694747e-05,-3.665813185e-04,8.944194869e-05,2.561016665e-06,9.200296535e-05,-2.117250558e-04,7.072747711e-05,-1.409975787e-04,3.166960243e-04,4.136414557e-05,3.580601698e-04,-9.308893750e-04,1.694153317e-04,-7.614740433e-04,-7.810224561e-04,1.700483193e-04,-6.109741368e-04,-8.872146845e-04,-6.769676693e-06,-8.939843612e-04,-5.782987558e-04,1.407822377e-04,-4.375165181e-04,-3.445473554e-04,2.015256739e-05,-3.243947880e-04,-8.603277187e-04,1.510529113e-05,-8.452224275e-04,2.210269301e-04,1.607475310e-05,2.371016832e-04,-3.140194608e-04,2.865142756e-06,-3.111543180e-04,-1.886812388e-04,-9.428171886e-05,-2.829629576e-04,-1.010153975e-03,8.221268842e-05,-9.279412867e-04,-5.322645151e-04,6.078026189e-06,-5.261864889e-04,-1.010544839e-03,-1.632445967e-04,-1.173789436e-03
-6.4,1.579253683e-04,-1.636321425e-05,1.415621541e-04,-3.346178703e-04,1.041411932e-04,-2.304766771e-04,-5.417036659e-05,-3.446285882e-05,-8.863322541e-05,-4.046394697e-04,-2.491620824e-05,-4.295556780e-04,-6.299931034e-04,6.552279289e-05,-5.644703105e-04,-6.907575059e-04,1.153343260e-04,-5.754231799e-04,-7.733736531e-04,5.192333830e-05,-7.214503148e-04,-3.785886010e-04,6.318832630e-05,-3.154002747e-04,-8.538546372e-04,5.965463876e-05,-7.941999984e-04,-7.459957538e-04,1.054962885e-04,-6.404994654e-04,-6.034910176e-04,8.314049391e-05,-5.203505237e-04,-9.109485728e-04,1.810557691e-04,-7.298928037e-04,-1.583078425e-03,1.154635657e-05,-1.571532068e-03,-7.824518068e-04,1.442805629e-04,-6.381712438e-04,-1.281398637e-03,1.183365457e-04,-1.163062091e-03,-1.205083543e-03,-4.127482379e-05,-1.246358366e-03,-8.914578038e-04,1.436463433e-04,-7.478114604e-04,-1.364548417e-03,1.471155584e-04,-1.217432858e-03,-9.088013129e-04,4.540142408e-05,-8.633998888e-04,-5.183320446e-04,1.141244718e-05,-5.069195974e-04,-4.193563574e-04,4.762451446e-05,-3.717318430e-04,9.237792944e-05,3.284398863e-06,9.566232830e-05,-2.193813230e-04,7.188124266e-05,-1.475000804e-04,3.128633919e-04,3.856561106e-05,3.514290030e-04,-9.534955868e-04,1.845216885e-04,-7.689738984e-04,-7.654678313e-04,1.694124359e-04,-5.960553955e-04,-9.352729302e-04,-4.370633550e-06,-9.396435637e-04,-5.953391572e-04,1.418550621e-04,-4.534840952e-04,-3.534797125e-04,1.700241008e-05,-3.364773024e-04,-8.457926713e-04,1.367629965e-05,-8.321163717e-04,1.796468054e-04,1.439215833e-05,1.940389637e-04,-3.224283622e-04,4.647633538e-06,-3.177807287e-04,-2.183871946e-04,-9.054636108e-05,-3.089335556e-04,-1.035472533e-03,8.166372695e-05,-9.538088065e-04,-5.538265843e-04,9.994190416e-06,-5.438323939e-04,-1.023062840e-03,-1.721838751e-04,-1.195246715e-03
-6.3,1.713453839e-04,-1.438303986e-05,1.569623440e-04,-3.264158224e-04,1.075852822e-04,-2.188305402e-04,-7.126608350e-05,-3.548814998e-05,-1.067542335e-04,-4.283744473e-04,-2.206472798e-05,-4.504391752e-04,-6.378966820e-04,7.882597706e-05,-5.590707049e-04,-6.955638833e-04,1.190884808e-04,-5.764754026e-04,-7.719514238e-04,6.177238015e-05,-7.101790436e-04,-3.931959338e-04,6.826291512e-05,-3.249330187e-04,-8.525320503e-04,6.919964798e-05,-7.833324023e-04,-7.349263266e-04,1.102648754e-04,-6.246614513e-04,-6.260448122e-04,1.003219174e-04,-5.257228948e-04,-8.740415015e-04,1.903228734e-04,-6.837186281e-04,-1.579951426e-03,-2.799967911e-06,-1.582751394e-03,-7.541178186e-04,1.439123529e-04,-6.102054657e-04,-1.311959696e-03,1.301307790e-04,-1.181828917e-03,-1.226879402e-03,-4.046264330e-05,-1.267342045e-03,-9.494125486e-04,1.348041288e-04,-8.146084197e-04,-1.359939795e-03,1.575522589e-04,-1.202387536e-03,-9.402264917e-04,4.860255482e-05,-8.916239369e-04,-5.207397821e-04,1.551116750e-05,-5.052286146e-04,-4.252042339e-04,4.932460121e-05,-3.758796327e-04,9.495802423e-05,3.691571978e-06,9.864959621e-05,-2.259533400e-04,7.268507229e-05,-1.532682677e-04,3.084649525e-04,3.573524563e-05,3.442001982e-04,-9.701428049e-04,1.972742539e-04,-7.728685509e-04,-7.475836487e-04,1.680298762e-04,-5.795537725e-04,-9.796822306e-04,-8.448207344e-07,-9.805270514e-04,-6.108496827e-04,1.420665668e-04,-4.687831159e-04,-3.613563570e-04,1.338195604e-05,-3.479744009e-04,-8.282182408e-04,1.208341836e-05,-8.161348225e-04,1.379053664e-04,1.246897833e-05,1.503743447e-04,-3.294510453e-04,6.430818477e-06,-3.230202268e-04,-2.475772210e-04,-8.733415912e-05,-3.349113801e-04,-1.057282290e-03,8.064925990e-05,-9.766330305e-04,-5.721349833e-04,1.320774829e-05,-5.589272350e-04,-1.031030489e-03,-1.805742011e-04,-1.211604690e-03
-6.2,1.839797315e-04,-1.257705645e-05,1.714026750e-04,-3.178862316e-04,1.105685101e-04,-2.073177215e-04,-8.794985033e-05,-3.666501391e-05,-1.246148642e-04,-4.508141161e-04,-1.921787002e-05,-4.700319861e-04,-6.443332035e-04,9.172880903e-05,-5.526043945e-04,-6.980635140e-04,1.223303038e-04,-5.757332102e-04,-7.688565701e-04,7.120905675e-05,-6.976475133e-04,-4.061459001e-04,7.300983305e-05,-3.331360670e-04,-8.492456423e-04,7.844358263e-05,-7.708020596e-04,-7.221565640e-04,1.145386021e-04,-6.076179618e-04,-6.459107206e-04,1.166085517e-04,-5.293021689e-04,-8.335988634e-04,1.982629693e-04,-6.353358942e-04,-1.571596355e-03,-1.709269274e-05,-1.588689048e-03,-7.230755359e-04,1.428312452e-04,-5.802442907e-04,-1.337965620e-03,1.404893866e-04,-1.197476233e-03,-1.244385795e-03,-3.936608879e-05,-1.283751884e-03,-1.003468653e-03,1.253735031e-04,-8.780951502e-04,-1.350821209e-03,1.672209523e-04,-1.183600256e-03,-9.685167745e-04,5.200128542e-05,-9.165154890e-04,-5.214456786e-04,1.948673598e-05,-5.019589426e-04,-4.299435900e-04,5.075954189e-05,-3.791840481e-04,9.697310128e-05,3.800533336e-06,1.007736346e-04,-2.316398771e-04,7.316435797e-05,-1.584755191e-04,3.034244923e-04,3.290416105e-05,3.363286533e-04,-9.810113233e-04,2.076522324e-04,-7.733590909e-04,-7.276291202e-04,1.659766620e-04,-5.616524582e-04,-1.020548512e-03,3.810179063e-06,-1.016738333e-03,-6.249538342e-04,1.414224315e-04,-4.835314028e-04,-3.682986633e-04,9.358685777e-06,-3.589399775e-04,-8.078464800e-04,1.036300460e-05,-7.974834754e-04,9.577983410e-05,1.031445616e-05,1.060942903e-04,-3.352579977e-04,8.212793190e-06,-3.270452045e-04,-2.763000109e-04,-8.454727750e-05,-3.608472884e-04,-1.075583446e-03,7.919578509e-05,-9.963876611e-04,-5.873440597e-04,1.572005284e-05,-5.716240068e-04,-1.034667873e-03,-1.883277944e-04,-1.222995667e-03
-6.1,1.955652120e-04,-1.092076189e-05,1.846444501e-04,-3.091850685e-04,1.130898488e-04,-1.960952197e-04,-1.043841652e-04,-3.797523042e-05,-1.423593956e-04,-4.720622679e-04,-1.638724651e-05,-4.884495144e-04,-6.494349953e-04,1.041919530e-04,-5.452430423e-04,-6.984448667e-04,1.250731226e-04,-5.733717441e-04,-7.642206171e-04,8.020890512e-05,-6.840117120e-04,-4.174950406e-04,7.742750703e-05,-3.400675335e-04,-8.441251188e-04,8.735574828e-05,-7.567693705e-04,-7.078669302e-04,1.183294733e-04,-5.895374569e-04,-6.632313410e-04,1.319630033e-04,-5.312683377e-04,-7.900008516e-04,2.048029318e-04,-5.851979198e-04,-1.558326327e-03,-3.119501497e-05,-1.589521342e-03,-6.897407830e-04,1.410915394e-04,-5.486492436e-04,-1.359353895e-03,1.491932876e-04,-1.210160607e-03,-1.257809738e-03,-3.792932344e-05,-1.295739062e-03,-1.053640979e-03,1.155416347e-04,-9.380993440e-04,-1.337513039e-03,1.761387592e-04,-1.161374280e-03,-9.937086773e-04,5.561446575e-05,-9.380942116e-04,-5.205891442e-04,2.333660992e-05,-4.972525342e-04,-4.337279464e-04,5.193465692e-05,-3.817932894e-04,9.823178238e-05,3.633191921e-06,1.018649743e-04,-2.366329842e-04,7.334431289e-05,-1.632886713e-04,2.976663894e-04,3.009886503e-05,3.277652544e-04,-9.863177860e-04,2.156782644e-04,-7.706395215e-04,-7.058556625e-04,1.633328031e-04,-5.425228595e-04,-1.057957629e-03,9.565569485e-06,-1.048392060e-03,-6.377674912e-04,1.399401915e-04,-4.978272997e-04,-3.744168076e-04,5.002774837e-06,-3.694140327e-04,-7.849161890e-04,8.552211596e-06,-7.763639774e-04,5.325692616e-05,7.946235970e-06,6.120316213e-05,-3.400110925e-04,9.992979729e-06,-3.300181128e-04,-3.045957783e-04,-8.207597129e-05,-3.866717495e-04,-1.090379057e-03,7.734167707e-05,-1.013037380e-03,-5.996189394e-04,1.755072127e-05,-5.820682181e-04,-1.034200575e-03,-1.953635330e-04,-1.229564108e-03
-6,2.058539660e-04,-9.389502990e-06,1.964644630e-04,-3.004590691e-04,1.151511510e-04,-1.853079181e-04,-1.207232323e-04,-3.939899612e-05,-1.601222284e-04,-4.922195198e-04,-1.358347430e-05,-5.058029941e-04,-6.533199763e-04,1.161766642e-04,-5.371433121e-04,-6.968921262e-04,1.273321251e-04,-5.695600011e-04,-7.581636580e-04,8.874939689e-05,-6.694142611e-04,-4.273064130e-04,8.151529574e-05,-3.457911173e-04,-8.372890690e-04,9.590705914e-05,-7.413820099e-04,-6.922267102e-04,1.216500579e-04,-5.705766523e-04,-6.781509260e-04,1.463559020e-04,-5.317950240e-04,-7.436368062e-04,2.098939403e-04,-5.337428659e-04,-1.540445825e-03,-4.497872248e-05,-1.585424547e-03,-6.545254622e-04,1.387554031e-04,-5.157700590e-04,-1.376067736e-03,1.560499160e-04,-1.220017820e-03,-1.267350125e-03,-3.610579475e-05,-1.303455919e-03,-1.099953630e-03,1.054974631e-04,-9.944561666e-04,-1.320327962e-03,1.843248838e-04,-1.136003078e-03,-1.015830538e-03,5.944906727e-05,-9.563814708e-04,-5.183028954e-04,2.706000803e-05,-4.912428874e-04,-4.367011625e-04,5.285817774e-05,-3.838429847e-04,9.856231437e-05,3.214838401e-06,1.017771528e-04,-2.411170852e-04,7.324968279e-05,-1.678674024e-04,2.911151613e-04,2.734093848e-05,3.184560998e-04,-9.863112849e-04,2.214134702e-04,-7.648978147e-04,-6.825063215e-04,1.601798396e-04,-5.223264819e-04,-1.091974314e-03,1.636315973e-05,-1.075611154e-03,-6.493993332e-04,1.376493622e-04,-5.117499709e-04,-3.798112037e-04,3.857744424e-07,-3.794254293e-04,-7.596645191e-04,6.688662749e-06,-7.529758563e-04,1.033186025e-05,5.389946356e-06,1.572180661e-05,-3.438631489e-04,1.177278549e-05,-3.320903634e-04,-3.324926365e-04,-7.980354977e-05,-4.122961863e-04,-1.101676035e-03,7.513717154e-05,-1.026538863e-03,-6.091347173e-04,1.873715505e-05,-5.903975622e-04,-1.029860653e-03,-2.016050841e-04,-1.231465738e-03
-5.9,2.146155291e-04,-7.958961935e-06,2.066565671e-04,-2.918448801e-04,1.167570870e-04,-1.750877930e-04,-1.371110127e-04,-4.091534060e-05,-1.780263533e-04,-5.113813787e-04,-1.081603027e-05,-5.221974090e-04,-6.560923537e-04,1.276450537e-04,-5.284473000e-04,-6.935830503e-04,1.291238985e-04,-5.644591518e-04,-7.507951515e-04,9.681026819e-05,-6.539848833e-04,-4.356483963e-04,8.527384591e-05,-3.503745504e-04,-8.288461164e-04,1.040702584e-04,-7.247758581e-04,-6.753941417e-04,1.245133837e-04,-5.508807580e-04,-6.908150502e-04,1.597659724e-04,-5.310490777e-04,-6.949018168e-04,2.135103456e-04,-4.813914712e-04,-1.518250715e-03,-5.832366490e-05,-1.576574380e-03,-6.178348008e-04,1.358913751e-04,-4.819434257e-04,-1.388064861e-03,1.608977895e-04,-1.227167071e-03,-1.273196314e-03,-3.385966510e-05,-1.307055979e-03,-1.142437270e-03,9.542509842e-05,-1.047012171e-03,-1.299569205e-03,1.917984775e-04,-1.107770728e-03,-1.034903777e-03,6.350144727e-05,-9.714023298e-04,-5.147116997e-04,3.065783831e-05,-4.840538614e-04,-4.389957756e-04,5.354100412e-05,-3.854547715e-04,9.781479443e-05,2.573514882e-06,1.003883093e-04,-2.452668255e-04,7.290456148e-05,-1.723622640e-04,2.836959163e-04,2.464673045e-05,3.083426467e-04,-9.812696463e-04,2.249509199e-04,-7.563187264e-04,-6.578148657e-04,1.565986103e-04,-5.012162554e-04,-1.122643614e-03,2.411823231e-05,-1.098525381e-03,-6.599498323e-04,1.345905636e-04,-5.253592686e-04,-3.845720031e-04,-4.420796722e-06,-3.889927998e-04,-7.323259908e-04,4.809857133e-06,-7.275161337e-04,-3.299160770e-05,2.678427021e-06,-3.031318068e-05,-3.469566038e-04,1.355573788e-05,-3.334008659e-04,-3.600031659e-04,-7.761100583e-05,-4.376141717e-04,-1.109486294e-03,7.264332811e-05,-1.036842966e-03,-6.160748601e-04,1.933361363e-05,-5.967412465e-04,-1.021887074e-03,-2.069787855e-04,-1.228865859e-03
-5.8,2.216393213e-04,-6.605586119e-06,2.150337352e-04,-2.834674276e-04,1.179150646e-04,-1.655523630e-04,-1.536783592e-04,-4.250245161e-05,-1.961808108e-04,-5.296355878e-04,-8.093114646e-06,-5.377287025e-04,-6.578413349e-04,1.385604151e-04,-5.192809198e-04,-6.886862176e-04,1.304660075e-04,-5.582202101e-04,-7.422122654e-04,1.043738095e-04,-6.378384559e-04,-4.425930206e-04,8.870527799e-05,-3.538877426e-04,-8.188928875e-04,1.118200320e-04,-7.070728555e-04,-6.575138235e-04,1.269328196e-04,-5.305810039e-04,-7.013673897e-04,1.721799377e-04,-5.291874520e-04,-6.441904034e-04,2.156471891e-04,-4.285432143e-04,-1.492028057e-03,-7.111614659e-05,-1.563144204e-03,-5.800627677e-04,1.325730123e-04,-4.474897554e-04,-1.395322700e-03,1.636101861e-04,-1.231712514e-03,-1.275525985e-03,-3.116709434e-05,-1.306693079e-03,-1.181124897e-03,8.549777853e-05,-1.095627119e-03,-1.275526843e-03,1.985769132e-04,-1.076949930e-03,-1.050942451e-03,6.775605206e-05,-9.831863992e-04,-5.099305097e-04,3.413247385e-05,-4.757980358e-04,-4.407304395e-04,5.399628607e-05,-3.867341534e-04,9.586460642e-05,1.739300299e-06,9.760390672e-05,-2.492428900e-04,7.233232137e-05,-1.769105686e-04,2.753363285e-04,2.202713468e-05,2.973634632e-04,-9.714949438e-04,2.264088640e-04,-7.450860798e-04,-6.320032340e-04,1.526675117e-04,-4.793357223e-04,-1.149992458e-03,3.272306559e-05,-1.117269393e-03,-6.695072739e-04,1.308139823e-04,-5.386932916e-04,-3.887749724e-04,-9.347015604e-06,-3.981219880e-04,-7.031278229e-04,2.952561114e-06,-7.001752618e-04,-7.669903115e-05,-1.492983929e-07,-7.684832955e-05,-3.494201527e-04,1.534714239e-05,-3.340730103e-04,-3.871195288e-04,-7.538182056e-05,-4.625013494e-04,-1.113826989e-03,6.993002346e-05,-1.043896965e-03,-6.206274318e-04,1.940993156e-05,-6.012175002e-04,-1.010523717e-03,-2.114121639e-04,-1.221935881e-03
-5.7,2.267380446e-04,-5.306842151e-06,2.214312025e-04,-2.754368673e-04,1.186351441e-04,-1.568017232e-04,-1.705387941e-04,-4.413797507e-05,-2.146767692e-04,-5.470583173e-04,-5.421574930e-06,-5.524798922e-04,-6.586369767e-04,1.488875398e-04,-5.097494370e-04,-6.823572269e-04,1.313765494e-04,-5.509806775e-04,-7.324951790e-04,1.114250558e-04,-6.210701232e-04,-4.482135977e-04,9.181305019e-05,-3.564005475e-04,-8.075081650e-04,1.191330410e-04,-6.883751240e-04,-6.387109950e-04,1.289218737e-04,-5.097891213e-04,-7.099432232e-04,1.835921947e-04,-5.263510285e-04,-5.918873011e-04,2.163172177e-04,-3.755700834e-04,-1.462054675e-03,-8.324639905e-05,-1.545301074e-03,-5.415849337e-04,1.288775724e-04,-4.127073613e-04,-1.397838994e-03,1.640980143e-04,-1.233740980e-03,-1.274501090e-03,-2.801744412e-05,-1.302518535e-03,-1.216046464e-03,7.587317286e-05,-1.140173292e-03,-1.248471333e-03,2.046748157e-04,-1.043796518e-03,-1.063949960e-03,7.218384964e-05,-9.917661100e-04,-5.040617754e-04,3.748744250e-05,-4.665743329e-04,-4.420062279e-04,5.423895975e-05,-3.877672682e-04,9.261719701e-05,7.436370632e-07,9.336083408e-05,-2.531860081e-04,7.155561891e-05,-1.816303891e-04,2.659702350e-04,1.948757422e-05,2.854578092e-04,-9.573069923e-04,2.259244295e-04,-7.313825628e-04,-6.052765041e-04,1.484613112e-04,-4.568151929e-04,-1.174030278e-03,4.205144111e-05,-1.131978837e-03,-6.781409793e-04,1.263780406e-04,-5.517629388e-04,-3.924739940e-04,-1.432607694e-05,-4.068000709e-04,-6.722821653e-04,1.152492433e-06,-6.711296728e-04,-1.207606453e-04,-3.049335349e-06,-1.238099806e-04,-3.513631641e-04,1.715345841e-05,-3.342097057e-04,-4.138060707e-04,-7.300720210e-05,-4.868132728e-04,-1.114718557e-03,6.707287315e-05,-1.047645684e-03,-6.229787276e-04,1.904984475e-05,-6.039288828e-04,-9.960143364e-04,-2.148335543e-04,-1.210847891e-03
-5.6,2.297520541e-04,-4.041360414e-06,2.257106937e-04,-2.678441649e-04,1.189298739e-04,-1.489142910e-04,-1.877832433e-04,-4.579938013e-05,-2.335826234e-04,-5.637093198e-04,-2.806953284e-06,-5.665162730e-04,-6.585239149e-04,1.585929400e-04,-4.999309748e-04,-6.747340278e-04,1.318736410e-04,-5.428603868e-04,-7.217005623e-04,1.179518559e-04,-6.037487064e-04,-4.525817706e-04,9.460151093e-05,-3.579802597e-04,-7.947449550e-04,1.259879744e-04,-6.687569807e-04,-6.190842687e-04,1.304939213e-04,-4.885903474e-04,-7.166612266e-04,1.940043052e-04,-5.226569214e-04,-5.383571508e-04,2.155483393e-04,-3.228088115e-04,-1.428594016e-03,-9.460603242e-05,-1.523200048e-03,-5.027494002e-04,1.248846348e-04,-3.778647654e-04,-1.395628629e-03,1.623120060e-04,-1.233316623e-03,-1.270262037e-03,-2.441423189e-05,-1.294676268e-03,-1.247222818e-03,6.668981418e-05,-1.180533004e-03,-1.218645007e-03,2.101038844e-04,-1.008541122e-03,-1.073913157e-03,7.674121985e-05,-9.971719375e-04,-4.971922606e-04,4.072706409e-05,-4.564651965e-04,-4.429023074e-04,5.428532659e-05,-3.886169808e-04,8.801332027e-05,-3.812539104e-07,8.763206636e-05,-2.572105509e-04,7.059635907e-05,-1.866141918e-04,2.555421154e-04,1.702826903e-05,2.725703844e-04,-9.390343342e-04,2.236478538e-04,-7.153864803e-04,-5.778158234e-04,1.440502901e-04,-4.337655333e-04,-1.194748890e-03,5.196437237e-05,-1.142784518e-03,-6.858933965e-04,1.213487207e-04,-5.645446758e-04,-3.956927126e-04,-1.929550509e-05,-4.149882176e-04,-6.399775028e-04,-5.557453042e-07,-6.405332481e-04,-1.651252501e-04,-5.974520377e-06,-1.710997705e-04,-3.528690209e-04,1.898144642e-05,-3.338875745e-04,-4.399904724e-04,-7.039128949e-05,-5.103817619e-04,-1.112180340e-03,6.414931476e-05,-1.048031025e-03,-6.233053147e-04,1.834877522e-05,-6.049565394e-04,-9.785955048e-04,-2.171724758e-04,-1.195767981e-03
-5.5,2.305540733e-04,-2.789107501e-06,2.277649658e-04,-2.607561814e-04,1.188139184e-04,-1.419422630e-04,-2.054747795e-04,-4.746439202e-05,-2.529391716e-04,-5.796268438e-04,-2.536373594e-07,-5.798804812e-04,-6.575151956e-04,1.676449762e-04,-4.898702194e-04,-6.659322499e-04,1.319748947e-04,-5.339573551e-04,-7.098557456e-04,1.239448629e-04,-5.859108827e-04,-4.557644779e-04,9.707536409e-05,-3.586891138e-04,-7.806236497e-04,1.323656994e-04,-6.482579503e-04,-5.986995911e-04,1.316619154e-04,-4.670376757e-04,-7.216162568e-04,2.034243795e-04,-5.181918773e-04,-4.839356294e-04,2.133821551e-04,-2.705534743e-04,-1.391891694e-03,-1.050865084e-04,-1.496978203e-03,-4.638675550e-04,1.206744564e-04,-3.431930986e-04,-1.388718449e-03,1.582439083e-04,-1.230474541e-03,-1.262921449e-03,-2.037563042e-05,-1.283297080e-03,-1.274659883e-03,5.806443449e-05,-1.216595448e-03,-1.186253799e-03,2.148732445e-04,-9.713805545e-04,-1.080795808e-03,8.136990584e-05,-9.994259020e-04,-4.893900712e-04,4.385597287e-05,-4.455340984e-04,-4.434719848e-04,5.415262270e-05,-3.893193621e-04,8.203332732e-05,-1.602989264e-06,8.043033805e-05,-2.613995428e-04,6.947552487e-05,-1.919240179e-04,2.440111887e-04,1.464476755e-05,2.586559562e-04,-9.170039691e-04,2.197373186e-04,-6.972666505e-04,-5.497712743e-04,1.394994490e-04,-4.102718252e-04,-1.212122641e-03,6.231663848e-05,-1.149806003e-03,-6.927734569e-04,1.157991938e-04,-5.769742631e-04,-3.984185754e-04,-2.419790462e-05,-4.226164800e-04,-6.063719760e-04,-2.138785291e-06,-6.085107613e-04,-2.097145461e-04,-8.876184884e-06,-2.185907310e-04,-3.539893852e-04,2.083706528e-05,-3.331523199e-04,-4.655567342e-04,-6.745497881e-05,-5.330117130e-04,-1.106225141e-03,6.123449186e-05,-1.044990649e-03,-6.217663732e-04,1.741092163e-05,-6.043554515e-04,-9.584895555e-04,-2.183602350e-04,-1.176849790e-03
-5.4,2.290531549e-04,-1.531609671e-06,2.275215452e-04,-2.542115393e-04,1.183034430e-04,-1.359080963e-04,-2.236446055e-04,-4.911139830e-05,-2.727560038e-04,-5.948233685e-04,2.234979412e-06,-5.925883891e-04,-6.555885864e-04,1.760139643e-04,-4.795746221e-04,-6.560416078e-04,1.316969794e-04,-5.243446284e-04,-6.969558631e-04,1.293975088e-04,-5.675583543e-04,-4.578214103e-04,9.923931877e-05,-3.585820915e-04,-7.651288987e-04,1.382494816e-04,-6.268794171e-04,-5.775876397e-04,1.324380892e-04,-4.451495505e-04,-7.248752663e-04,2.118663774e-04,-5.130088889e-04,-4.289237052e-04,2.098734885e-04,-2.190502167e-04,-1.352170666e-03,-1.145794612e-04,-1.466750127e-03,-4.252067362e-04,1.163258442e-04,-3.088808920e-04,-1.377142031e-03,1.519263703e-04,-1.225215661e-03,-1.252559462e-03,-1.593428147e-05,-1.268493743e-03,-1.298344407e-03,5.009064544e-05,-1.248253762e-03,-1.151461726e-03,2.189899149e-04,-9.324718112e-04,-1.084533908e-03,8.599805463e-05,-9.985358538e-04,-4.807026450e-04,4.687849164e-05,-4.338241533e-04,-4.437400880e-04,5.385849887e-05,-3.898815891e-04,7.469929280e-05,-2.889788234e-06,7.180950456e-05,-2.658022693e-04,6.821289145e-05,-1.975893779e-04,2.313540693e-04,1.232870414e-05,2.436827735e-04,-8.915321175e-04,2.143545968e-04,-6.771775207e-04,-5.212571141e-04,1.348677258e-04,-3.863893884e-04,-1.226109898e-03,7.296328615e-05,-1.153146612e-03,-6.987533594e-04,1.098092067e-04,-5.889441527e-04,-4.006012374e-04,-2.898128346e-05,-4.295825209e-04,-5.715903811e-04,-3.564894609e-06,-5.751552757e-04,-2.544196336e-04,-1.170588820e-05,-2.661255218e-04,-3.547411252e-04,2.272427226e-05,-3.320168529e-04,-4.903429967e-04,-6.413716670e-05,-5.544801634e-04,-1.096854789e-03,5.839756529e-05,-1.038457224e-03,-6.184979788e-04,1.634566253e-05,-6.021523162e-04,-9.358992464e-04,-2.183308279e-04,-1.154230074e-03
-5.3,2.251969988e-04,-2.521531577e-07,2.249448456e-04,-2.482183170e-04,1.174153980e-04,-1.308029191e-04,-2.422900541e-04,-5.071973532e-05,-2.930097894e-04,-6.092829438e-04,4.656389774e-06,-6.046265540e-04,-6.526866550e-04,1.836723304e-04,-4.690143247e-04,-6.451240943e-04,1.310552953e-04,-5.140687991e-04,-6.829649451e-04,1.343059810e-04,-5.486589641e-04,-4.588033127e-04,1.010980298e-04,-3.577052828e-04,-7.482111731e-04,1.436251856e-04,-6.045859876e-04,-5.557453782e-04,1.328336515e-04,-4.229117267e-04,-7.264771205e-04,2.193493198e-04,-5.071278008e-04,-3.735855364e-04,2.050903133e-04,-1.684952231e-04,-1.309626933e-03,-1.229792699e-04,-1.432606203e-03,-3.869864198e-04,1.119135669e-04,-2.750728529e-04,-1.360936724e-03,1.434319570e-04,-1.217504767e-03,-1.239222182e-03,-1.113618425e-05,-1.250358366e-03,-1.318242022e-03,4.283885289e-05,-1.275403169e-03,-1.114389553e-03,2.224590848e-04,-8.919304687e-04,-1.085034569e-03,9.054198325e-05,-9.944925857e-04,-4.711562351e-04,4.979798442e-05,-4.213582507e-04,-4.437022472e-04,5.342046054e-05,-3.902817867e-04,6.607437591e-05,-4.211293432e-06,6.186308248e-05,-2.704346698e-04,6.682671907e-05,-2.036079508e-04,2.175655852e-04,1.006875307e-05,2.276343382e-04,-8.629178941e-04,2.076620206e-04,-6.552558735e-04,-4.923508714e-04,1.302073894e-04,-3.621434820e-04,-1.236656541e-03,8.376539880e-05,-1.152891142e-03,-7.037698301e-04,1.034641003e-04,-6.003057299e-04,-4.021555003e-04,-3.359910944e-05,-4.357546097e-04,-5.357251254e-04,-4.804725350e-06,-5.405298508e-04,-2.991004955e-04,-1.441693011e-05,-3.135174256e-04,-3.551066789e-04,2.464405262e-05,-3.304626263e-04,-5.141447247e-04,-6.039367894e-05,-5.745384037e-04,-1.084058182e-03,5.569880195e-05,-1.028359380e-03,-6.136100924e-04,1.526350016e-05,-5.983465922e-04,-9.110053072e-04,-2.170224693e-04,-1.128027776e-03
-5.2,2.189723518e-04,1.064072363e-06,2.200364242e-04,-2.427539668e-04,1.161668876e-04,-1.265870792e-04,-2.613747281e-04,-5.226984047e-05,-3.136445686e-04,-6.229604213e-04,7.008887781e-06,-6.159515335e-04,-6.487205868e-04,1.905948127e-04,-4.581257740e-04,-6.332141473e-04,1.300637400e-04,-5.031504073e-04,-6.678206324e-04,1.386691930e-04,-5.291514394e-04,-4.587512075e-04,1.026562674e-04,-3.560949401e-04,-7.297925993e-04,1.484814111e-04,-5.813111882e-04,-5.331412449e-04,1.328585293e-04,-4.002827156e-04,-7.264359229e-04,2.258964486e-04,-5.005394743e-04,-3.181499674e-04,1.991136422e-04,-1.190363252e-04,-1.264426655e-03,-1.301874489e-04,-1.394614104e-03,-3.493785081e-04,1.075055410e-04,-2.418729671e-04,-1.340144783e-03,1.328721261e-04,-1.207272657e-03,-1.222924014e-03,-6.038654328e-06,-1.228962669e-03,-1.334297330e-03,3.635614306e-05,-1.297941187e-03,-1.075117780e-03,2.252841711e-04,-8.498336087e-04,-1.082178776e-03,9.490840577e-05,-9.872703702e-04,-4.607570591e-04,5.261639856e-05,-4.081406605e-04,-4.433261800e-04,5.285541078e-05,-3.904707693e-04,5.625945985e-05,-5.539216446e-06,5.072024341e-05,-2.752819711e-04,6.533349154e-05,-2.099484796e-04,2.026579945e-04,7.851690997e-06,2.105096855e-04,-8.314405423e-04,1.998212829e-04,-6.316192594e-04,-4.630963467e-04,1.255637181e-04,-3.375326286e-04,-1.243701275e-03,9.459464339e-05,-1.149106632e-03,-7.077293639e-04,9.685354527e-05,-6.108758186e-04,-4.029677824e-04,-3.801025285e-05,-4.409780353e-04,-4.988402882e-04,-5.832467547e-06,-5.046727558e-04,-3.435884878e-04,-1.696551078e-05,-3.605539986e-04,-3.550376269e-04,2.659393557e-05,-3.284436913e-04,-5.367219417e-04,-5.619523971e-05,-5.929171814e-04,-1.067812154e-03,5.318745303e-05,-1.014624701e-03,-6.071863682e-04,1.427194079e-05,-5.929144274e-04,-8.839673282e-04,-2.143797267e-04,-1.098347055e-03
-5.1,2.104037247e-04,2.429847935e-06,2.128335726e-04,-2.377671812e-04,1.145746785e-04,-1.231925027e-04,-2.808304129e-04,-5.374329761e-05,-3.345737105e-04,-6.357824574e-04,9.291450709e-06,-6.264910067e-04,-6.435768136e-04,1.967586847e-04,-4.468181289e-04,-6.203205933e-04,1.287345831e-04,-4.915860102e-04,-6.514413752e-04,1.424887490e-04,-5.089526262e-04,-4.576964310e-04,1.039192120e-04,-3.537772190e-04,-7.097757417e-04,1.528095760e-04,-5.569661658e-04,-5.097227287e-04,1.325212498e-04,-3.772014789e-04,-7.247467267e-04,2.315344160e-04,-4.932123107e-04,-2.628151536e-04,1.920372544e-04,-7.077789914e-05,-1.216705495e-03,-1.361176855e-04,-1.352823180e-03,-3.125111078e-04,1.031600718e-04,-2.093510360e-04,-1.314818798e-03,1.203964246e-04,-1.194422374e-03,-1.203653260e-03,-7.076763847e-07,-1.204360936e-03,-1.346435444e-03,3.066519616e-05,-1.315770248e-03,-1.033693029e-03,2.274668005e-04,-8.062262288e-04,-1.075827571e-03,9.899717146e-05,-9.768303998e-04,-4.494938675e-04,5.533407236e-05,-3.941597952e-04,-4.425546490e-04,5.217935019e-05,-3.903752988e-04,4.538770936e-05,-6.847720176e-06,3.853998919e-05,-2.803026607e-04,6.374771080e-05,-2.165549499e-04,1.866591992e-04,5.663407920e-06,1.923226071e-04,-7.973597906e-04,1.909937929e-04,-6.063659976e-04,-4.335095289e-04,1.209748056e-04,-3.125347233e-04,-1.247181604e-03,1.053360414e-04,-1.141845563e-03,-7.105156931e-04,9.006983877e-05,-6.204458544e-04,-4.029045846e-04,-4.217884159e-05,-4.450834262e-04,-4.609773678e-04,-6.627311095e-06,-4.676046789e-04,-3.876912357e-04,-1.931155472e-05,-4.070027904e-04,-3.544605525e-04,2.856800613e-05,-3.258925463e-04,-5.578090647e-04,-5.152542208e-05,-6.093344868e-04,-1.048084587e-03,5.090017665e-05,-9.971844104e-04,-5.992865326e-04,1.347178862e-05,-5.858147440e-04,-8.549272928e-04,-2.103559153e-04,-1.065283208e-03
-5,1.995509003e-04,3.855799151e-06,2.034066995e-04,-2.331810542e-04,1.126548079e-04,-1.205262463e-04,-3.005601604e-04,-5.512276825e-05,-3.556829287e-04,-6.476499373e-04,1.150358983e-05,-6.361463475e-04,-6.371250542e-04,2.021440033e-04,-4.349810510e-04,-6.064299092e-04,1.270784947e-04,-4.793514145e-04,-6.337345660e-04,1.457689241e-04,-4.879656419e-04,-4.556612365e-04,1.048927657e-04,-3.507684708e-04,-6.880534420e-04,1.566039347e-04,-5.314495073e-04,-4.854246805e-04,1.318289935e-04,-3.535956870e-04,-7.213920696e-04,2.362925434e-04,-4.850995262e-04,-2.077549350e-04,1.839669387e-04,-2.378799628e-05,-1.166570492e-03,-1.407004554e-04,-1.307270948e-03,-2.764742995e-04,9.892342756e-05,-1.775508719e-04,-1.285029593e-03,1.061913603e-04,-1.178838232e-03,-1.181379461e-03,4.784880326e-06,-1.176594581e-03,-1.354564673e-03,2.576304902e-05,-1.328801624e-03,-9.901363579e-04,2.290068645e-04,-7.611294935e-04,-1.065830911e-03,1.027047511e-04,-9.631261601e-04,-4.373413721e-04,5.794967692e-05,-3.793916951e-04,-4.413094025e-04,5.140712593e-05,-3.899022766e-04,3.361809898e-05,-8.113660250e-06,2.550443873e-05,-2.854327534e-04,6.208175314e-05,-2.233510003e-04,1.696106468e-04,3.489727419e-06,1.731003742e-04,-7.609186726e-04,1.813418076e-04,-5.795768649e-04,-4.035858888e-04,1.164711993e-04,-2.871146894e-04,-1.247038777e-03,1.158882630e-04,-1.131150514e-03,-7.119975371e-04,8.320559857e-05,-6.287919385e-04,-4.018212528e-04,-4.607389340e-05,-4.478951462e-04,-4.221611833e-04,-7.174876866e-06,-4.293360602e-04,-4.311987607e-04,-2.141934571e-05,-4.526181065e-04,-3.532839347e-04,3.055723315e-05,-3.227267015e-04,-5.771261363e-04,-4.637877244e-05,-6.235049087e-04,-1.024839005e-03,4.885993046e-05,-9.759790741e-04,-5.899507001e-04,1.295429454e-05,-5.769964055e-04,-8.240143095e-04,-2.049151468e-04,-1.028929456e-03
-4.9,1.865057865e-04,5.350354088e-06,1.918561406e-04,-2.288967737e-04,1.104223209e-04,-1.184744527e-04,-3.204418333e-04,-5.639177691e-05,-3.768336102e-04,-6.584412604e-04,1.364521564e-05,-6.447960447e-04,-6.292261119e-04,2.067339101e-04,-4.224922019e-04,-5.915100992e-04,1.251047144e-04,-4.664053848e-04,-6.146038405e-04,1.485166534e-04,-4.660871871e-04,-4.526596050e-04,1.055837306e-04,-3.470758744e-04,-6.645174702e-04,1.598614625e-04,-5.046560077e-04,-4.601764792e-04,1.307877501e-04,-3.293887292e-04,-7.163475135e-04,2.402021048e-04,-4.761454086e-04,-1.531245753e-04,1.750185264e-04,2.189395109e-05,-1.114103668e-03,-1.438869385e-04,-1.257990607e-03,-2.413259512e-04,9.482793704e-05,-1.464980141e-04,-1.250873842e-03,9.047835877e-05,-1.160395483e-03,-1.156060798e-03,1.036381452e-05,-1.145696983e-03,-1.358580328e-03,2.162145100e-05,-1.336958877e-03,-9.444517558e-04,2.299027522e-04,-7.145490036e-04,-1.052038014e-03,1.059285129e-04,-9.461095007e-04,-4.242638561e-04,6.046013589e-05,-3.638037202e-04,-4.394952286e-04,5.055211250e-05,-3.889431161e-04,2.112908213e-05,-9.316783676e-06,1.181229845e-05,-2.905892845e-04,6.034582842e-05,-2.302434560e-04,1.515655953e-04,1.316991427e-06,1.528825867e-04,-7.223481932e-04,1.710298582e-04,-5.513183350e-04,-3.733073498e-04,1.120752674e-04,-2.612320824e-04,-1.243220241e-03,1.261610803e-04,-1.117059161e-03,-7.120351114e-04,7.635107255e-05,-6.356840389e-04,-3.995692936e-04,-4.966853008e-05,-4.492378237e-04,-3.824045522e-04,-7.468181661e-06,-3.898727338e-04,-4.738893361e-04,-2.325810485e-05,-4.971474410e-04,-3.514047756e-04,3.254997033e-05,-3.188548053e-04,-5.943901078e-04,-4.075909131e-05,-6.351491991e-04,-9.980400057e-04,4.707565213e-05,-9.509643535e-04,-5.792044283e-04,1.279931124e-05,-5.664051171e-04,-7.913490281e-04,-1.980334784e-04,-9.893825065e-04
-4.8,1.713892408e-04,6.919906059e-06,1.783091469e-04,-2.247970178e-04,1.078912139e-04,-1.169058039e-04,-3.403313163e-04,-5.753437846e-05,-3.978656947e-04,-6.680157552e-04,1.571652309e-05,-6.522992321e-04,-6.197377108e-04,2.105149680e-04,-4.092227428e-04,-5.755143330e-04,1.228212670e-04,-4.526930660e-04,-5.939538024e-04,1.507414778e-04,-4.432123246e-04,-4.486978765e-04,1.059997181e-04,-3.426981584e-04,-6.390638800e-04,1.625815518e-04,-4.764823282e-04,-4.339063284e-04,1.294024814e-04,-3.045038470e-04,-7.095845500e-04,2.432955768e-04,-4.662889732e-04,-9.906356390e-05,1.653143518e-04,6.625078786e-05,-1.059365477e-03,-1.456526754e-04,-1.205018153e-03,-2.070957138e-04,9.089070270e-05,-1.162050111e-04,-1.212478727e-03,7.351062432e-05,-1.138968103e-03,-1.127650206e-03,1.595282307e-05,-1.111697383e-03,-1.358369151e-03,1.818928904e-05,-1.340179862e-03,-8.966329951e-04,2.301517852e-04,-6.664812099e-04,-1.034307185e-03,1.085713188e-04,-9.257358660e-04,-4.102183640e-04,6.286051966e-05,-3.473578443e-04,-4.370033260e-04,4.962586096e-05,-3.873774651e-04,8.113349528e-06,-1.043981268e-05,-2.326463156e-06,-2.956722724e-04,5.854808452e-05,-2.371241879e-04,1.325882663e-04,-8.675432237e-07,1.317207231e-04,-6.818723490e-04,1.602258993e-04,-5.216464497e-04,-3.426473618e-04,1.078005439e-04,-2.348468179e-04,-1.235678991e-03,1.360705860e-04,-1.099608405e-03,-7.104839395e-04,6.959141434e-05,-6.408925251e-04,-3.960008429e-04,-5.293874233e-05,-4.489395853e-04,-3.417107816e-04,-7.507922355e-06,-3.492187040e-04,-5.155337274e-04,-2.480253968e-05,-5.403362671e-04,-3.487138086e-04,3.453263574e-05,-3.141811729e-04,-6.093247246e-04,-3.467774832e-05,-6.440024729e-04,-9.676586090e-04,4.554288820e-05,-9.221157208e-04,-5.670629116e-04,1.307419693e-05,-5.539887147e-04,-7.570459952e-04,-1.896994610e-04,-9.467454562e-04
-4.7,1.543484725e-04,8.569171485e-06,1.629176440e-04,-2.207483309e-04,1.050745584e-04,-1.156737725e-04,-3.600647781e-04,-5.853481129e-05,-4.185995894e-04,-6.762165627e-04,1.771784214e-05,-6.584987206e-04,-6.085172419e-04,2.134774592e-04,-3.950397827e-04,-5.583836794e-04,1.202351368e-04,-4.381485426e-04,-5.716912154e-04,1.524553923e-04,-4.192358231e-04,-4.437749740e-04,1.061487616e-04,-3.376262124e-04,-6.115941658e-04,1.647655647e-04,-4.468286011e-04,-4.065420121e-04,1.276772604e-04,-2.788647517e-04,-7.010703033e-04,2.456058747e-04,-4.554644286e-04,-4.569474211e-05,1.549787922e-04,1.092840501e-04,-1.002396184e-03,-1.460012874e-04,-1.148397471e-03,-1.737862294e-04,8.711307321e-05,-8.667315618e-05,-1.170001751e-03,5.556890668e-05,-1.114432845e-03,-1.096099455e-03,2.147651163e-05,-1.074622943e-03,-1.353813261e-03,1.539578596e-05,-1.338417475e-03,-8.466673846e-04,2.297507896e-04,-6.169165951e-04,-1.012513075e-03,1.105457300e-04,-9.019673450e-04,-3.951571214e-04,6.514400033e-05,-3.300131211e-04,-4.337136141e-04,4.863784609e-05,-3.850757680e-04,-5.225993748e-06,-1.146832588e-05,-1.669431963e-05,-3.005652702e-04,5.669481304e-05,-2.438704571e-04,1.127539833e-04,-3.075401571e-06,1.096785818e-04,-6.397110228e-04,1.491011152e-04,-4.906099076e-04,-3.115731016e-04,1.036514188e-04,-2.079216827e-04,-1.224369953e-03,1.455335098e-04,-1.078836444e-03,-7.071949720e-04,6.300414156e-05,-6.441908304e-04,-3.909701682e-04,-5.586195098e-05,-4.468321192e-04,-3.000740013e-04,-7.302232751e-06,-3.073762341e-04,-5.558972514e-04,-2.603332452e-05,-5.819305760e-04,-3.450985859e-04,3.649052478e-05,-3.086080611e-04,-6.216678032e-04,-2.815191573e-05,-6.498197189e-04,-9.336761798e-04,4.424500662e-05,-8.894311732e-04,-5.535332294e-04,1.383314888e-05,-5.397000805e-04,-7.212124127e-04,-1.799151219e-04,-9.011275346e-04
-4.6,1.355552138e-04,1.030158413e-05,1.458567979e-04,-2.166023243e-04,1.019846288e-04,-1.146176955e-04,-3.794600300e-04,-5.937722672e-05,-4.388372567e-04,-6.828728539e-04,1.964941690e-05,-6.632234370e-04,-5.954218250e-04,2.156155695e-04,-3.798062555e-04,-5.400488917e-04,1.173523965e-04,-4.226964952e-04,-5.477234486e-04,1.536726002e-04,-3.940508484e-04,-4.378823061e-04,1.060387527e-04,-3.318435534e-04,-5.820134712e-04,1.664163503e-04,-4.155971209e-04,-3.780092809e-04,1.256154138e-04,-2.523938670e-04,-6.907652226e-04,2.471656533e-04,-4.435995693e-04,6.878825000e-06,1.441340782e-04,1.510129032e-04,-9.432149292e-04,-1.449674262e-04,-1.088182355e-03,-1.413721238e-04,8.348106001e-05,-5.789106382e-05,-1.123625500e-03,3.695622950e-05,-1.086669271e-03,-1.061361068e-03,2.686220737e-05,-1.034498860e-03,-1.344792845e-03,1.315304676e-05,-1.331639798e-03,-7.945365638e-04,2.286966359e-04,-5.658399279e-04,-9.865507388e-04,1.117774242e-04,-8.747733146e-04,-3.790292482e-04,6.730186079e-05,-3.117273874e-04,-4.294962392e-04,4.759534384e-05,-3.819008954e-04,-1.867831686e-05,-1.239052014e-05,-3.106883700e-05,-3.051355998e-04,5.479061919e-05,-2.503449806e-04,9.214976355e-05,-5.316603018e-06,8.683316054e-05,-5.960791613e-04,1.378277702e-04,-4.582513911e-04,-2.800451121e-04,9.962331734e-05,-1.804217947e-04,-1.209244131e-03,1.544619818e-04,-1.054782149e-03,-7.020119551e-04,5.665702871e-05,-6.453549264e-04,-3.843337587e-04,-5.841574569e-05,-4.427495044e-04,-2.574787886e-04,-6.866171371e-06,-2.643449600e-04,-5.947402075e-04,-2.693747668e-05,-6.216776841e-04,-3.404446981e-04,3.840846709e-05,-3.020362310e-04,-6.311755524e-04,-2.120292722e-05,-6.523784797e-04,-8.960863027e-04,4.315465288e-05,-8.529316498e-04,-5.386149722e-04,1.511687158e-05,-5.234981007e-04,-6.839434230e-04,-1.686979307e-04,-8.526413537e-04
-4.5,1.152041767e-04,1.211960427e-05,1.273237809e-04,-2.121963857e-04,9.863287962e-05,-1.135635060e-04,-3.983177984e-04,-6.004548870e-05,-4.583632871e-04,-6.878018973e-04,2.151116199e-05,-6.662907353e-04,-5.803076400e-04,2.169274642e-04,-3.633801758e-04,-5.204318755e-04,1.141783409e-04,-4.062535347e-04,-5.219564846e-04,1.544092216e-04,-3.675472630e-04,-4.310037142e-04,1.056769041e-04,-3.253268101e-04,-5.502286579e-04,1.675378023e-04,-3.826908557e-04,-3.482303498e-04,1.232196785e-04,-2.250106713e-04,-6.786211092e-04,2.480067060e-04,-4.306144032e-04,5.857663596e-05,1.328970599e-04,1.914736959e-04,-8.818185075e-04,-1.426172738e-04,-1.024435781e-03,-1.097985751e-04,7.996669011e-05,-2.983188498e-05,-1.073549248e-03,1.799172187e-05,-1.055557526e-03,-1.023388972e-03,3.204147747e-05,-9.913474942e-04,-1.331187958e-03,1.135775424e-05,-1.319830204e-03,-7.402162464e-04,2.269865146e-04,-5.132297318e-04,-9.563377045e-04,1.122077969e-04,-8.441299075e-04,-3.617821896e-04,6.932344539e-05,-2.924587442e-04,-4.242130179e-04,4.650333502e-05,-3.777096828e-04,-3.202839879e-05,-1.319703546e-05,-4.522543425e-05,-3.092356569e-04,5.283846170e-05,-2.563971952e-04,7.087446317e-05,-7.599359684e-06,6.327510349e-05,-5.511830931e-04,1.265756977e-04,-4.246073953e-04,-2.480160730e-04,9.570326305e-05,-1.523128100e-04,-1.190242010e-03,1.627599294e-04,-1.027482080e-03,-6.947686682e-04,5.060662500e-05,-6.441620432e-04,-3.759512011e-04,-6.057707552e-05,-4.365282766e-04,-2.139012937e-04,-6.220984773e-06,-2.201222785e-04,-6.318180883e-04,-2.750858938e-05,-6.593266777e-04,-3.346364377e-04,4.027103163e-05,-2.943654061e-04,-6.376249216e-04,-1.385512733e-05,-6.514800489e-04,-8.548953476e-04,4.223549017e-05,-8.126598574e-04,-5.223006419e-04,1.695253459e-05,-5.053481073e-04,-6.453161203e-04,-1.560832461e-04,-8.013993664e-04
-4.4,9.351097546e-05,1.402496821e-05,1.075359437e-04,-2.073549750e-04,9.502979969e-05,-1.123251753e-04,-4.164239302e-04,-6.052298035e-05,-4.769469106e-04,-6.908117200e-04,2.330248806e-05,-6.675092320e-04,-5.630306803e-04,2.174153160e-04,-3.456153643e-04,-4.994476622e-04,1.107176528e-04,-3.887300095e-04,-4.942947418e-04,1.546829983e-04,-3.396117435e-04,-4.231158703e-04,1.050694145e-04,-3.180464558e-04,-5.161487268e-04,1.681344625e-04,-3.480142643e-04,-3.171246487e-04,1.204923528e-04,-1.966322959e-04,-6.645814463e-04,2.481594373e-04,-4.164220090e-04,1.093411731e-04,1.213767589e-04,2.307179320e-04,-8.181823159e-04,-1.390456236e-04,-9.572279395e-04,-7.898144207e-05,7.653003904e-05,-2.451403025e-06,-1.019980523e-03,-9.961380157e-07,-1.020976661e-03,-9.821393121e-04,3.695133641e-05,-9.451879757e-04,-1.312880545e-03,9.892862899e-06,-1.302987682e-03,-6.836772348e-04,2.246178954e-04,-4.590593395e-04,-9.218158008e-04,1.117956218e-04,-8.100201790e-04,-3.433634175e-04,7.119601382e-05,-2.721674037e-04,-4.177195952e-04,4.536436734e-05,-3.723552278e-04,-4.506030229e-05,-1.388089980e-05,-5.894120208e-05,-3.127061708e-04,5.083962131e-05,-2.618665495e-04,4.903774398e-05,-9.929741195e-06,3.910800279e-05,-5.052162544e-04,1.155082581e-04,-3.897079963e-04,-2.154307104e-04,9.187065709e-05,-1.235600533e-04,-1.167288466e-03,1.703219409e-04,-9.969665247e-04,-6.852881334e-04,4.489715300e-05,-6.403909804e-04,-3.656883747e-04,-6.232192602e-05,-4.280103007e-04,-1.693133694e-04,-5.393044700e-06,-1.747064141e-04,-6.668830462e-04,-2.774682318e-05,-6.946298694e-04,-3.275585242e-04,4.206232984e-05,-2.854961943e-04,-6.408156274e-04,-6.135345054e-06,-6.469509724e-04,-8.101230713e-04,4.144422848e-05,-7.686788428e-04,-5.045771864e-04,1.935389828e-05,-4.852232881e-04,-6.053852100e-04,-1.421262489e-04,-7.475114589e-04
-4.3,7.070894375e-05,1.601896033e-05,8.672790408e-05,-2.018922468e-04,9.118475418e-05,-1.107074926e-04,-4.335531139e-04,-6.079240482e-05,-4.943455187e-04,-6.917048232e-04,2.502223219e-05,-6.666825910e-04,-5.434500279e-04,2.170853262e-04,-3.263647017e-04,-4.770074099e-04,1.069745922e-04,-3.700328177e-04,-4.646436732e-04,1.545130019e-04,-3.101306713e-04,-4.141893297e-04,1.042214037e-04,-3.099679260e-04,-4.796885029e-04,1.682111652e-04,-3.114773376e-04,-2.846125390e-04,1.174354586e-04,-1.671770803e-04,-6.485847013e-04,2.476524100e-04,-4.009322913e-04,1.591352877e-04,1.096723218e-04,2.688076094e-04,-7.522646215e-04,-1.343700780e-04,-8.866346995e-04,-4.881038750e-05,7.312167060e-05,2.431128310e-05,-9.631290426e-04,-1.967645230e-05,-9.828054949e-04,-9.375725743e-04,4.153526583e-05,-8.960373084e-04,-1.289757589e-03,8.630092279e-06,-1.281127497e-03,-6.248890527e-04,2.215884025e-04,-4.033006502e-04,-8.829537817e-04,1.105174342e-04,-7.724363475e-04,-3.237228280e-04,7.290464139e-05,-2.508181866e-04,-4.098687861e-04,4.417846701e-05,-3.656903191e-04,-5.756259046e-05,-1.443746166e-05,-7.200005212e-05,-3.153815319e-04,4.879373190e-05,-2.665878000e-04,2.675764087e-05,-1.231128689e-05,1.444635398e-05,-4.583559520e-04,1.047776732e-04,-3.535782788e-04,-1.822280369e-04,8.809815393e-05,-9.412988292e-05,-1.140291277e-03,1.770347242e-04,-9.632565524e-04,-6.733843869e-04,3.955932420e-05,-6.338250627e-04,-3.534233162e-04,-6.362537677e-05,-4.170486930e-04,-1.236897128e-04,-4.412472657e-06,-1.281021854e-04,-6.996874053e-04,-2.765856840e-05,-7.273459737e-04,-3.190997810e-04,4.376572771e-05,-2.753340533e-04,-6.405729391e-04,1.927049304e-06,-6.386458898e-04,-7.618041602e-04,4.073271401e-05,-7.210714461e-04,-4.854292969e-04,2.232151489e-05,-4.631077820e-04,-5.641820903e-04,-1.269028625e-04,-6.910849528e-04
-4.2,4.704473203e-05,1.810273665e-05,6.514746868e-05,-1.956161147e-04,8.710586303e-05,-1.085102517e-04,-4.494741293e-04,-6.083564112e-05,-5.103097704e-04,-6.902829881e-04,2.666865305e-05,-6.636143350e-04,-5.214335405e-04,2.159477160e-04,-3.054858245e-04,-4.530225170e-04,1.029532060e-04,-3.500693110e-04,-4.329148225e-04,1.539193494e-04,-2.789954732e-04,-4.041902079e-04,1.031370851e-04,-3.010531228e-04,-4.407750572e-04,1.677727690e-04,-2.730022882e-04,-2.506214295e-04,1.140509975e-04,-1.365704320e-04,-6.305701228e-04,2.465120449e-04,-3.840580780e-04,2.079368756e-04,9.787136354e-05,3.058082391e-04,-6.840137382e-04,-1.287238726e-04,-8.127376108e-04,-1.915552605e-05,6.968534163e-05,5.052981558e-05,-9.032034456e-04,-3.772302188e-05,-9.409264674e-04,-8.896573980e-04,4.574416233e-05,-8.439132357e-04,-1.261715713e-03,7.433105880e-06,-1.254282607e-03,-5.638262728e-04,2.178958456e-04,-3.459304272e-04,-8.397511208e-04,1.083666261e-04,-7.313844947e-04,-3.028159520e-04,7.443235193e-05,-2.283836001e-04,-4.005151128e-04,4.294323098e-05,-3.575718819e-04,-6.933470165e-05,-1.486414811e-05,-8.419884976e-05,-3.170966535e-04,4.669894095e-05,-2.703977125e-04,4.157011116e-06,-1.474459375e-05,-1.058758263e-05,-4.107618424e-04,9.451945634e-05,-3.162423860e-04,-1.483460167e-04,8.435255780e-05,-6.399345894e-05,-1.109144494e-03,1.827807110e-04,-9.263637831e-04,-6.588666979e-04,3.460902217e-05,-6.242576757e-04,-3.390540084e-04,-6.446200397e-05,-4.035160123e-04,-7.701680316e-05,-3.311679334e-06,-8.032848249e-05,-7.299890809e-04,-2.725582659e-05,-7.572449075e-04,-3.091585561e-04,4.536369951e-05,-2.637948566e-04,-6.367513874e-04,1.029961341e-05,-6.264517740e-04,-7.099909937e-04,4.004988729e-05,-6.699411064e-04,-4.648443240e-04,2.584296373e-05,-4.390013602e-04,-5.217171144e-04,-1.105100699e-04,-6.322271843e-04
-4.1,2.277295148e-05,2.027765138e-05,4.305060286e-05,-1.883334437e-04,8.279990167e-05,-1.055335420e-04,-4.639562467e-04,-6.063370364e-05,-5.245899503e-04,-6.863528951e-04,2.823945707e-05,-6.581134380e-04,-4.968650570e-04,2.140166741e-04,-2.828483828e-04,-4.274095708e-04,9.865757903e-05,-3.287519917e-04,-3.990322635e-04,1.529229521e-04,-2.461093114e-04,-3.930822956e-04,1.018200982e-04,-2.912621974e-04,-3.993554806e-04,1.668240283e-04,-2.325314523e-04,-2.150930071e-04,1.103413711e-04,-1.047516361e-04,-6.104848605e-04,2.447625539e-04,-3.657223066e-04,2.557316756e-04,8.604891868e-05,3.417805943e-04,-6.133767897e-04,-1.222489907e-04,-7.356257805e-04,1.012307497e-05,6.616082915e-05,7.628390412e-05,-8.404098695e-04,-5.482214737e-05,-8.952320168e-04,-8.383757688e-04,4.953721522e-05,-7.888385536e-04,-1.228667286e-03,6.160630884e-06,-1.222506655e-03,-5.004766350e-04,2.135384110e-04,-2.869382240e-04,-7.922429596e-04,1.053517697e-04,-6.868911899e-04,-2.806077218e-04,7.576050782e-05,-2.048472140e-04,-3.895201014e-04,4.165408136e-05,-3.478660201e-04,-8.019379680e-05,-1.516003089e-05,-9.535382770e-05,-3.176944134e-04,4.455217818e-05,-2.731422353e-04,-1.864053694e-05,-1.722696379e-05,-3.586750073e-05,-3.625765696e-04,8.484677068e-05,-2.777297989e-04,-1.137278701e-04,8.059569957e-05,-3.313217054e-05,-1.073736786e-03,1.874430914e-04,-8.862936944e-04,-6.415459293e-04,3.004636359e-05,-6.114995657e-04,-3.225065941e-04,-6.480664753e-05,-3.873132417e-04,-2.930185521e-05,-2.124143536e-06,-3.142599875e-05,-7.575580766e-04,-2.655549739e-05,-7.841135740e-04,-2.976490184e-04,4.683785132e-05,-2.508111671e-04,-6.292392077e-04,1.894627881e-05,-6.102929289e-04,-6.547574547e-04,3.934351835e-05,-6.154139363e-04,-4.428179939e-04,2.989302592e-05,-4.129249680e-04,-4.779836389e-04,-9.306615918e-05,-5.710497981e-04
-4,-1.849621173e-06,2.254551885e-05,2.069589767e-05,-1.798558329e-04,7.827224505e-05,-1.015835879e-04,-4.767761695e-04,-6.016678598e-05,-5.369429555e-04,-6.797320811e-04,2.973188047e-05,-6.500002006e-04,-4.696518032e-04,2.113102942e-04,-2.583415089e-04,-4.000955862e-04,9.409213375e-05,-3.060034525e-04,-3.629389654e-04,1.515453192e-04,-2.113936462e-04,-3.808293510e-04,1.002738997e-04,-2.805554512e-04,-3.554041408e-04,1.653695753e-04,-1.900345655e-04,-1.779899302e-04,1.063099256e-04,-7.168000459e-05,-5.882908290e-04,2.424260916e-04,-3.458647374e-04,3.025054472e-04,7.426709673e-05,3.767725439e-04,-5.403084585e-04,-1.150907216e-04,-6.553991801e-04,3.916479961e-05,6.248664629e-05,1.016514459e-04,-7.749513541e-04,-7.068118158e-05,-8.456325356e-04,-7.837288851e-04,5.288269750e-05,-7.308461876e-04,-1.190547907e-03,4.669087360e-06,-1.185878819e-03,-4.348494790e-04,2.085149245e-04,-2.263345544e-04,-7.405054562e-04,1.014947032e-04,-6.390107530e-04,-2.570762391e-04,7.686931203e-05,-1.802069271e-04,-3.767575939e-04,4.030453290e-05,-3.364530610e-04,-8.998110321e-05,-1.532531969e-05,-1.053064229e-04,-3.170325452e-04,4.234951657e-05,-2.746830287e-04,-4.151450216e-05,-1.975219765e-05,-6.126669981e-05,-3.139285317e-04,7.584611770e-05,-2.380824140e-04,-7.832862754e-05,7.678527645e-05,-1.543351082e-06,-1.033963403e-03,1.909113690e-04,-8.430520344e-04,-6.212422595e-04,2.585576359e-05,-5.953864960e-04,-3.037421497e-04,-6.463542865e-05,-3.683775783e-04,1.942001406e-05,-8.836484513e-07,1.853636561e-05,-7.821828996e-04,-2.557876231e-05,-8.077616619e-04,-2.845072919e-04,4.816901059e-05,-2.363382814e-04,-6.179632615e-04,2.782751804e-05,-5.901357434e-04,-5.962030953e-04,3.856158986e-05,-5.576415054e-04,-4.193595876e-04,3.443360257e-05,-3.849259850e-04,-4.329628345e-04,-7.471064578e-05,-5.076734803e-04
-3.9,-2.656966528e-05,2.490882606e-05,-1.660839219e-06,-1.700052835e-04,7.352692039e-05,-9.647836309e-05,-4.877247584e-04,-5.941435461e-05,-5.471391130e-04,-6.702546212e-04,3.114285180e-05,-6.391117694e-04,-4.397304999e-04,2.078505423e-04,-2.318799576e-04,-3.710228374e-04,8.926193444e-05,-2.817609030e-04,-3.246015431e-04,1.498083950e-04,-1.747931481e-04,-3.673972648e-04,9.850208088e-05,-2.688951839e-04,-3.089274874e-04,1.634139133e-04,-1.455135742e-04,-1.393003231e-04,1.019614991e-04,-3.733882400e-05,-5.639696871e-04,2.395230255e-04,-3.244466616e-04,3.482372465e-04,6.257528179e-05,4.108125283e-04,-4.647782689e-04,-1.073939404e-04,-5.721722093e-04,6.809888881e-05,5.860243144e-05,1.267013203e-04,-7.070273960e-04,-8.503714004e-05,-7.920645361e-04,-7.257428148e-04,5.575871185e-05,-6.699841030e-04,-1.147324700e-03,2.814996180e-06,-1.144509704e-03,-3.669828815e-04,2.028252657e-04,-1.641576159e-04,-6.846599978e-04,9.682865094e-05,-5.878313469e-04,-2.322159316e-04,7.773829747e-05,-1.544776341e-04,-3.621183033e-04,3.888639720e-05,-3.232319061e-04,-9.856680118e-05,-1.536086170e-05,-1.139276629e-04,-3.149889393e-04,4.008665643e-05,-2.749022828e-04,-6.435045020e-05,-2.231056790e-05,-8.666101811e-05,-2.649358497e-04,6.757497201e-05,-1.973608777e-04,-4.212026461e-05,7.287562361e-05,3.075535900e-05,-9.897392684e-04,1.930864964e-04,-7.966527720e-04,-5.977927647e-04,2.200722675e-05,-5.757855380e-04,-2.827602773e-04,-6.392679931e-05,-3.466870766e-04,6.908179661e-05,3.760479498e-07,6.945784456e-05,-8.036757628e-04,-2.435059407e-05,-8.280263569e-04,-2.696962892e-04,4.933723788e-05,-2.203590513e-04,-6.028938713e-04,3.690161285e-05,-5.659922585e-04,-5.344564895e-04,3.765324843e-05,-4.968032411e-04,-3.944952961e-04,3.941330104e-05,-3.550819950e-04,-3.866291221e-04,-5.560303871e-05,-4.422321608e-04
-3.8,-5.114220295e-05,2.737096710e-05,-2.377123585e-05,-1.586189621e-04,6.856681392e-05,-9.005214817e-05,-4.966127792e-04,-5.835531085e-05,-5.549680901e-04,-6.577759152e-04,3.246918250e-05,-6.253067327e-04,-4.070709038e-04,2.036632277e-04,-2.034076761e-04,-3.401526329e-04,8.417291987e-05,-2.559797130e-04,-2.840123089e-04,1.477343766e-04,-1.362779323e-04,-3.527558185e-04,9.650846686e-05,-2.562473517e-04,-2.599652912e-04,1.609613558e-04,-9.900393540e-05,-9.903911893e-05,9.730287769e-05,-1.736241240e-06,-5.375250073e-04,2.360722484e-04,-3.014527589e-04,3.928952127e-04,5.101070509e-05,4.439059178e-04,-3.867754055e-04,-9.930068341e-05,-4.860760889e-04,9.703733024e-05,5.445096507e-05,1.514882953e-04,-6.368329120e-04,-9.766449239e-05,-7.344974044e-04,-6.644729553e-04,5.815386891e-05,-6.063190863e-04,-1.099004215e-03,4.576227936e-07,-1.098546592e-03,-2.969481551e-04,1.964710804e-04,-1.004770746e-04,-6.248748356e-04,9.139660452e-05,-5.334782311e-04,-2.060397009e-04,7.834682117e-05,-1.276928798e-04,-3.455131354e-04,3.739000449e-05,-3.081231309e-04,-1.058529470e-04,-1.526759384e-05,-1.211205409e-04,-3.114649083e-04,3.775952583e-05,-2.737053825e-04,-8.704173297e-05,-2.488893617e-05,-1.119306691e-04,-2.157103071e-04,6.006127325e-05,-1.556490338e-04,-5.094002376e-06,6.881836723e-05,6.372436485e-05,-9.410106951e-04,1.938849342e-04,-7.471257609e-04,-5.710571382e-04,1.845862354e-05,-5.525985147e-04,-2.595988719e-04,-6.266253299e-05,-3.222614049e-04,1.195841030e-04,1.621349379e-06,1.212054524e-04,-8.218759665e-04,-2.289924994e-05,-8.447752165e-04,-2.532083163e-04,5.032168376e-05,-2.028866325e-04,-5.840486372e-04,4.612670610e-05,-5.379219311e-04,-4.696766510e-04,3.656944411e-05,-4.331072069e-04,-3.682693505e-04,4.476708316e-05,-3.235022674e-04,-3.389564116e-04,-3.591990029e-05,-3.748763119e-04
-3.7,-7.533441181e-05,2.993647018e-05,-4.539794163e-05,-1.455525729e-04,6.339399642e-05,-8.215857647e-05,-5.032753026e-04,-5.696826545e-05,-5.602435680e-04,-6.421762775e-04,3.370769286e-05,-6.084685846e-04,-3.716765263e-04,1.987779015e-04,-1.728986249e-04,-3.074677950e-04,7.883201707e-05,-2.286357779e-04,-2.411887622e-04,1.453454742e-04,-9.584328806e-05,-3.368799445e-04,9.429694245e-05,-2.425830021e-04,-2.085889697e-04,1.580159428e-04,-5.057302684e-05,-5.724682806e-05,9.234316399e-05,3.509633593e-05,-5.089821889e-04,2.320915406e-04,-2.768906482e-04,4.364346793e-04,3.959952666e-05,4.760342060e-04,-3.063110581e-04,-9.094839755e-05,-3.972594556e-04,1.260703963e-04,4.998000783e-05,1.760504041e-04,-5.645563989e-04,-1.083813100e-04,-6.729377089e-04,-6.000066148e-04,6.006771796e-05,-5.399388968e-04,-1.045638268e-03,-2.538211120e-06,-1.048176479e-03,-2.248512089e-04,1.894566291e-04,-3.539457979e-05,-5.613639196e-04,8.525016351e-05,-4.761137560e-04,-1.785800759e-04,7.867462049e-05,-9.990545541e-05,-3.268753390e-04,3.580453236e-05,-2.910708066e-04,-1.117746961e-04,-1.504589221e-05,-1.268205884e-04,-3.063869666e-04,3.536487426e-05,-2.710220923e-04,-1.094902369e-04,-2.747094791e-05,-1.369611848e-04,-1.663608654e-04,5.330491087e-05,-1.130559545e-04,3.274052138e-05,6.456293869e-05,9.730346006e-05,-8.877644299e-04,1.932413839e-04,-6.945230460e-04,-5.409209341e-04,1.515870634e-05,-5.257622278e-04,-2.343312369e-04,-6.082874863e-05,-2.951599855e-04,1.707968573e-04,2.819031208e-06,1.736158885e-04,-8.366517182e-04,-2.125565972e-05,-8.579073779e-04,-2.350654782e-04,5.110032095e-05,-1.839651573e-04,-5.614942553e-04,5.546300349e-05,-5.060312518e-04,-4.020522032e-04,3.526346583e-05,-3.667887374e-04,-3.407437692e-04,5.041671390e-05,-2.903270553e-04,-2.899249144e-04,-1.585052644e-05,-3.057754409e-04
-3.6,-9.892846460e-05,3.261108603e-05,-6.631737857e-05,-1.306825272e-04,5.801006145e-05,-7.267246573e-05,-5.075750601e-04,-5.523191126e-05,-5.628069714e-04,-6.233636092e-04,3.485524928e-05,-5.885083599e-04,-3.335837428e-04,1.932276463e-04,-1.403560965e-04,-2.729742142e-04,7.324717087e-05,-1.997270433e-04,-1.961720400e-04,1.426636333e-04,-5.350840669e-05,-3.197507070e-04,9.187113283e-05,-2.278795742e-04,-1.548991738e-04,1.545814081e-04,-3.177656781e-07,-1.398764882e-05,8.709408804e-05,7.310643921e-05,-4.783878918e-04,2.275980150e-04,-2.507898768e-04,4.787968901e-04,2.835866817e-05,5.071555583e-04,-2.234195515e-04,-8.246850328e-05,-3.058880547e-04,1.552638294e-04,4.514412569e-05,2.004079551e-04,-4.903783124e-04,-1.170529839e-04,-6.074312963e-04,-5.324639250e-04,6.151071693e-05,-4.709532081e-04,-9.873271286e-04,-6.299352001e-06,-9.936264806e-04,-1.508317218e-04,1.817893474e-04,3.095762556e-05,-4.943842523e-04,7.844885630e-05,-4.159353960e-04,-1.498897348e-04,7.870238879e-05,-7.118734596e-05,-3.061620144e-04,3.411839405e-05,-2.720436204e-04,-1.163006756e-04,-1.469491536e-05,-1.309955910e-04,-2.997083035e-04,3.290069595e-05,-2.668076076e-04,-1.316069033e-04,-3.003725807e-05,-1.616441614e-04,-1.169976915e-04,4.728150082e-05,-6.971619072e-05,7.135785191e-05,6.005703610e-05,1.314148880e-04,-8.300338256e-04,1.911100210e-04,-6.389238046e-04,-5.072975679e-04,1.205077499e-05,-4.952467929e-04,-2.070627722e-04,-5.841705580e-05,-2.654798280e-04,2.225609345e-04,3.936623002e-06,2.264975575e-04,-8.479012640e-04,-1.945280016e-05,-8.673540642e-04,-2.153190112e-04,5.164962338e-05,-1.636693878e-04,-5.353457458e-04,6.487457442e-05,-4.704711714e-04,-3.317991072e-04,3.369149446e-05,-2.981076127e-04,-3.119982447e-04,5.627245398e-05,-2.557257907e-04,-2.395278291e-04,4.407705055e-06,-2.351201241e-04
-3.5,-1.217239146e-04,3.540168011e-05,-8.632223444e-05,-1.139076609e-04,5.241639333e-05,-6.149126762e-05,-5.094054765e-04,-5.312540726e-05,-5.625308838e-04,-6.012758005e-04,3.590878679e-05,-5.653670137e-04,-2.928612041e-04,1.870488119e-04,-1.058123921e-04,-2.367021981e-04,6.742736876e-05,-1.692748294e-04,-1.490262381e-04,1.397102754e-04,-9.315962742e-06,-3.013563762e-04,8.923416627e-05,-2.121222099e-04,-9.902483410e-05,1.506612302e-04,5.163639606e-05,3.065115006e-05,8.157025285e-05,1.122214029e-04,-4.458107292e-04,2.226086238e-04,-2.232021054e-04,5.199066375e-04,1.729830537e-05,5.372049428e-04,-1.381602015e-04,-7.398508887e-05,-2.121452904e-04,1.846565375e-04,3.990623779e-05,2.245627753e-04,-4.144712165e-04,-1.235931923e-04,-5.380644088e-04,-4.619981014e-04,6.250363826e-05,-3.994944631e-04,-9.242215846e-04,-1.094065594e-05,-9.351622406e-04,-7.506215781e-05,1.734800038e-04,9.841784600e-05,-4.242335594e-04,7.105977543e-05,-3.531737840e-04,-1.200418814e-04,7.841228547e-05,-4.162959593e-05,-2.833556285e-04,3.231957897e-05,-2.510360496e-04,-1.194333701e-04,-1.421211775e-05,-1.336454879e-04,-2.914108709e-04,3.036643288e-05,-2.610444380e-04,-1.533127279e-04,-3.256576707e-05,-1.858784950e-04,-6.773792921e-05,4.194790989e-05,-2.579001932e-05,1.107187817e-04,5.524728340e-05,1.659660651e-04,-7.679028155e-04,1.874641482e-04,-5.804386673e-04,-4.701310630e-04,9.076653585e-06,-4.610544094e-04,-1.779289214e-04,-5.542577372e-05,-2.333546951e-04,2.746880986e-04,4.942977927e-06,2.796310765e-04,-8.555542696e-04,-1.752514930e-05,-8.730794189e-04,-1.940489221e-04,5.194431071e-05,-1.421046114e-04,-5.057632914e-04,7.433029189e-05,-4.314329995e-04,-2.591583122e-04,3.181315107e-05,-2.273451611e-04,-2.821312020e-04,6.223575790e-05,-2.198954441e-04,-1.877775912e-04,2.465352430e-05,-1.631240669e-04
