Time,S1D1HbO,S1D1HbR,S1D1HbT,S2D2HbO,S2D2HbR,S2D2HbT,S3D3HbO,S3D3HbR,S3D3HbT,S4D4HbO,S4D4HbR,S4D4HbT,S5D5HbO,S5D5HbR,S5D5HbT,S6D6HbO,S6D6HbR,S6D6HbT,S7D7HbO,S7D7HbR,S7D7HbT,S8D8HbO,S8D8HbR,S8D8HbT,S9D9HbO,S9D9HbR,S9D9HbT,S10D10HbO,S10D10HbR,S10D10HbT,S11D11HbO,S11D11HbR,S11D11HbT,S12D12HbO,S12D12HbR,S12D12HbT,S13D13HbO,S13D13HbR,S13D13HbT,S14D14HbO,S14D14HbR,S14D14HbT,S15D15HbO,S15D15HbR,S15D15HbT,S16D16HbO,S16D16HbR,S16D16HbT,S17D17HbO,S17D17HbR,S17D17HbT,S18D18HbO,S18D18HbR,S18D18HbT,S19D19HbO,S19D19HbR,S19D19HbT,S20D20HbO,S20D20HbR,S20D20HbT,S21D21HbO,S21D21HbR,S21D21HbT,S22D22HbO,S22D22HbR,S22D22HbT,S23D23HbO,S23D23HbR,S23D23HbT,S24D24HbO,S24D24HbR,S24D24HbT,S25D25HbO,S25D25HbR,S25D25HbT,S26D26HbO,S26D26HbR,S26D26HbT,S27D27HbO,S27D27HbR,S27D27HbT,S28D28HbO,S28D28HbR,S28D28HbT,S29D29HbO,S29D29HbR,S29D29HbT,S30D30HbO,S30D30HbR,S30D30HbT,S31D31HbO,S31D31HbR,S31D31HbT,S32D32HbO,S32D32HbR,S32D32HbT,S33D33HbO,S33D33HbR,S33D33HbT,S34D34HbO,S34D34HbR,S34D34HbT,S35D35HbO,S35D35HbR,S35D35HbT,S36D36HbO,S36D36HbR,S36D36HbT
15.0,-0.0008313295812,0.0005086827053,-0.0003226468758,0.001846659109,-0.0006055753906,0.001241083718,-0.001092806698,-1.522330562e-05,-0.001108030003,-0.0009344295549,4.503514043e-05,-0.0008893944145,-0.001131501003,0.0004832944732,-0.0006482065303,-0.0004797614161,-0.0001377660397,-0.0006175274558,-0.0007541883585,0.0003365363253,-0.0004176520332,-0.0001644071415,0.0001291724536,-3.523468787e-05,-0.002647401893,1.734703201e-05,-0.002630054861,-0.0009961135173,0.0003553975623,-0.000640715955,-0.001194306754,-2.145520799e-05,-0.001215761962,0.002000474229,-0.0004512261839,0.001549248045,0.001120728564,0.0001823291599,0.001303057724,0.002614417741,-1.872348636e-05,0.002595694255,0.00455348283,-0.0008031137976,0.003750369032,0.001500239084,-0.0002659133055,0.001234325779,0.0009153260883,0.0001071786699,0.001022504758,0.001555498255,-0.000425682026,0.001129816229,0.001016460554,6.401923007e-05,0.001080479784,-7.84520519e-05,-0.0002536207028,-0.0003320727547,0.001078650369,-0.0001191263867,0.0009595239828,0.001116609989,-0.000181769303,0.000934840686,0.0002140477049,1.688902282e-06,0.0002157366072,0.0004694625514,0.000806621546,0.001276084097,0.002903383431,0.0001284159859,0.003031799416,0.0001968681009,0.0001658246842,0.000362692785,0.002480403063,0.0007487546566,0.003229157719,0.001333453261,-0.0003462171577,0.0009872361034,0.001114583285,-0.0003379689222,0.0007766143633,0.002177986794,-0.0002899292121,0.001888057582,8.441751202e-05,-0.000149160774,-6.474326195e-05,0.0003174267453,-9.774121407e-08,0.0003173290041,0.0001852744116,0.0004151986247,0.0006004730363,-0.0001249569228,0.0002481374275,0.0001231805046,-0.0004346908225,0.0004043062599,-3.03845626e-05,-0.001074382212,0.0006387427095,-0.0004356395028
15.1,-0.0008495333036,0.0005077420899,-0.0003417912137,0.001816837215,-0.0006089207813,0.001207916434,-0.001115734225,-4.698969281e-06,-0.001120433195,-0.0009559736557,4.915409046e-05,-0.0009068195652,-0.001181929822,0.0004935748705,-0.0006883549516,-0.0005155050523,-0.0001391441389,-0.0006546491911,-0.0007951015802,0.0003348756556,-0.0004602259246,-0.0001760599366,0.0001273284715,-4.873146511e-05,-0.002694624421,1.822946533e-05,-0.002676394956,-0.001015523546,0.0003569396582,-0.0006585838877,-0.001228698171,-1.244359545e-05,-0.001241141767,0.001934170023,-0.0004416761352,0.001492493887,0.001042541418,0.0001785750759,0.001221116494,0.002596742021,-2.104098774e-05,0.002575701033,0.004528079975,-0.0008093565287,0.003718723446,0.00144016515,-0.0002676311472,0.001172534003,0.0008556306927,9.291065714e-05,0.0009485413499,0.001443393652,-0.0004223365272,0.001021057125,0.0009360722736,5.42183156e-05,0.0009902905892,-0.0001043824338,-0.0002553216637,-0.0003597040976,0.001064707826,-0.0001189531456,0.0009457546803,0.001096483477,-0.0001779030089,0.0009185804683,0.0001973835189,1.723802344e-06,0.0001991073212,0.0004882951643,0.0008139781562,0.00130227332,0.002903625467,0.0001247315366,0.003028357003,0.0001806161406,0.0001713021222,0.0003519182628,0.002423164827,0.0007749378302,0.003198102657,0.001295080533,-0.0003501665564,0.0009449139769,0.001070159055,-0.0003378849751,0.0007322740797,0.002120344402,-0.0002800841869,0.001840260215,5.238109609e-05,-0.0001546357294,-0.0001022546333,0.0002753899615,-3.59509349e-06,0.000271794868,0.0001313414682,0.00040915044,0.0005404919082,-0.0001912115814,0.0002411077443,4.989616293e-05,-0.0004985252458,0.000405603592,-9.292165382e-05,-0.001169773939,0.0006292694593,-0.0005405044801
15.2,-0.000866275976,0.0005073685435,-0.0003589074324,0.001785580982,-0.000611691025,0.001173889957,-0.001136851602,6.679826441e-06,-0.001130171776,-0.0009778205766,5.353503633e-05,-0.0009242855402,-0.001233715598,0.000504492389,-0.0007292232087,-0.0005511227235,-0.0001402346445,-0.0006913573681,-0.0008372635173,0.0003332428483,-0.000504020669,-0.0001892091642,0.0001257071578,-6.350200639e-05,-0.002742310653,1.94010193e-05,-0.002722909634,-0.001036212881,0.0003583288199,-0.0006778840606,-0.00126369834,-3.43140404e-06,-0.001267129744,0.001866770288,-0.0004319397967,0.001434830491,0.0009604786242,0.0001734943797,0.001133973004,0.002577041054,-2.338985733e-05,0.002553651197,0.004497461225,-0.0008164888175,0.003680972408,0.001374202203,-0.0002694242968,0.001104777906,0.000791044025,7.642116685e-05,0.0008674651919,0.001325369357,-0.0004178364687,0.0009075328884,0.0008525511533,4.396319401e-05,0.0008965143473,-0.0001311200039,-0.0002563648485,-0.0003874848523,0.001050245007,-0.0001185386768,0.0009317063306,0.001075341942,-0.0001734840349,0.0009018579069,0.0001812203239,2.082006473e-06,0.0001833023304,0.0005061817821,0.0008208499739,0.001327031756,0.002901675603,0.0001210509829,0.003022726585,0.0001628255619,0.000176021016,0.0003388465779,0.002359098039,0.0008002950349,0.003159393074,0.00125155294,-0.0003541058899,0.0008974470499,0.001019823358,-0.0003375572003,0.0006822661574,0.002057211802,-0.0002703647628,0.001786847039,1.325842782e-05,-0.0001596585131,-0.0001464000852,0.0002273872819,-6.740213976e-06,0.0002206470679,7.090368459e-05,0.000402542088,0.0004734457726,-0.0002637858917,0.0002342411413,-2.954475033e-05,-0.0005662574518,0.0004063194595,-0.0001599379923,-0.00126888135,0.000618783835,-0.0006500975153
15.3,-0.0008815027917,0.0005075831881,-0.0003739196036,0.001752932951,-0.0006138734524,0.001139059499,-0.001156197284,1.890233486e-05,-0.00113729495,-0.000999958031,5.819972228e-05,-0.0009417583087,-0.001286708154,0.0005160381989,-0.0007706699546,-0.0005865393379,-0.0001410218159,-0.0007275611538,-0.0008805758961,0.0003316496564,-0.0005489262397,-0.0002039047362,0.000124312483,-7.959225322e-05,-0.002790323362,2.086555447e-05,-0.002769457808,-0.001058159069,0.0003595745033,-0.0006985845654,-0.001299212681,5.563606368e-06,-0.001293649074,0.001798439584,-0.0004221585725,0.001376281011,0.000874710708,0.0001669647513,0.001041675459,0.002555226843,-2.58059208e-05,0.002529420922,0.004461399098,-0.0008243858785,0.003637013219,0.001302489099,-0.0002713101129,0.001031178986,0.0007216545945,5.780972271e-05,0.0007794643172,0.001201778531,-0.0004121936601,0.0007895848708,0.0007660747314,3.335205866e-05,0.00079942679,-0.0001585698104,-0.0002567409207,-0.0004153107311,0.001035301076,-0.0001178695294,0.0009174315464,0.001053204521,-0.0001685091582,0.0008846953631,0.0001655553239,2.781937286e-06,0.0001683372612,0.0005229758063,0.000827219051,0.001350194857,0.002897354954,0.0001174503632,0.003014805317,0.0001434379868,0.0001799906577,0.0003234286445,0.002288288062,0.0008246172963,0.003112905358,0.00120286255,-0.000358021108,0.0008448414419,0.0009636559801,-0.0003369948987,0.0006266610814,0.001988831601,-0.0002608549785,0.001727976622,-3.300672176e-05,-0.0001641700971,-0.0001971768188,0.0001734920331,-9.549245901e-06,0.0001639427872,4.111935259e-06,0.0003954125566,0.0003995244919,-0.0003425715141,0.000227630792,-0.000114940722,-0.0006377163664,0.0004064264579,-0.0002312899085,-0.001371384034,0.0006073075659,-0.0007640764676
15.4,-0.0008951755168,0.0005084027636,-0.0003867727532,0.001718945297,-0.0006154583434,0.001103486954,-0.001173836624,3.194819773e-05,-0.001141888426,-0.001022372698,6.316802445e-05,-0.000959204674,-0.001340756262,0.0005281983541,-0.0008125579076,-0.0006216796451,-0.0001414913597,-0.0007631710048,-0.0009249417272,0.0003301081266,-0.0005948336005,-0.0002201874504,0.0001231472827,-9.704016772e-05,-0.002838534572,2.262509111e-05,-0.002815909481,-0.001081336532,0.0003606866496,-0.0007206498821,-0.001335151886,1.45271808e-05,-0.001320624705,0.001729339125,-0.0004124699319,0.001316869193,0.0007854348298,0.0001588699018,0.0009443047316,0.002531209831,-2.831929669e-05,0.002502890534,0.004419648847,-0.0008328853563,0.003586763491,0.001225193369,-0.0002733032586,0.00095189011,0.0006475420498,3.722635228e-05,0.0006847684021,0.001073011717,-0.000405430752,0.0006675809647,0.0006768293264,2.250062615e-05,0.0006993299526,-0.0001866374256,-0.0002564456838,-0.0004430831094,0.001019911303,-0.0001169340115,0.0009029772911,0.001030091505,-0.0001629791794,0.000867112326,0.0001503795584,3.838884196e-06,0.0001542184426,0.0005385463105,0.0008330728824,0.001371619193,0.002890490019,0.0001140110669,0.003004501086,0.0001223964608,0.0001832320669,0.0003056285277,0.002210889526,0.0008476815216,0.003058571048,0.001149039332,-0.0003619071828,0.0007871321493,0.0009017700221,-0.0003362099663,0.0005655600558,0.001915474299,-0.0002516331724,0.001663841127,-8.642669924e-05,-0.0001681173827,-0.000254544082,0.0001138132201,-1.203440148e-05,0.0001017788186,-6.885144478e-05,0.0003878307051,0.0003189792603,-0.0004274050535,0.0002213625686,-0.0002060424849,-0.000712717337,0.0004059122264,-0.0003068051106,-0.001476942695,0.0005948703982,-0.0008820722966
15.5,-0.0009072743106,0.0005098398001,-0.0003974345105,0.001683677886,-0.0006164387607,0.001067239125,-0.001189861388,4.578789222e-05,-0.001144073495,-0.00104505152,6.84578694e-05,-0.0009765936508,-0.001395712471,0.0005409539975,-0.000854758473,-0.0006564699064,-0.0001416303947,-0.000798100301,-0.0009702694571,0.0003286306159,-0.0006416388412,-0.0002380891948,0.0001222136812,-0.0001158755137,-0.002886829244,2.468004251e-05,-0.002862149201,-0.001105719279,0.0003616756661,-0.0007440436125,-0.001371435121,2.344863417e-05,-0.001347986487,0.001659620893,-0.0004030031291,0.001256617764,0.0006928673975,0.0001491040081,0.0008419714056,0.002504897576,-3.095328193e-05,0.002473944294,0.00437195006,-0.0008417931244,0.003530156936,0.001142505895,-0.0002754150897,0.0008670908054,0.0005687726284,1.486929548e-05,0.0005836419238,0.0009394894008,-0.0003975813841,0.0005419080167,0.000585005724,1.154059828e-05,0.0005965463223,-0.000215230116,-0.0002554798216,-0.0004707099376,0.001004105857,-0.0001157221993,0.0008883836577,0.001006023337,-0.000156898855,0.0008491244816,0.0001356775696,5.265128269e-06,0.0001409426979,0.0005527778677,0.000838404162,0.00139118203,0.002880911728,0.0001108140281,0.002991725756,9.964338682e-05,0.0001857767282,0.000285420115,0.002127119231,0.0008692530778,0.002996372308,0.001090146377,-0.0003657675137,0.000724378863,0.00083430905,-0.0003352160592,0.0004990929908,0.001837432404,-0.0002427707176,0.001594661686,-0.0001469717784,-0.000171454237,-0.0003184260154,4.849205074e-05,-1.420344438e-05,3.428860636e-05,-0.0001477814823,0.0003798974526,0.0002321159703,-0.0005180723235,0.0002155137646,-0.0003025585589,-0.0007910658701,0.0004047778435,-0.0003862880266,-0.001585205323,0.0005815102312,-0.001003695092
15.6,-0.0009177981503,0.0005119029505,-0.0004058951998,0.001647196939,-0.0006168102206,0.001030386719,-0.001204387619,6.038334624e-05,-0.001144004273,-0.001067982108,7.408516114e-05,-0.0009938969471,-0.00145143459,0.0005542816508,-0.000897152939,-0.0006908385608,-0.0001414274181,-0.0008322659789,-0.00101647317,0.0003272297202,-0.0006892434496,-0.0002576327224,0.0001215132689,-0.0001361194536,-0.002935104116,2.702935587e-05,-0.00290807476,-0.001131279775,0.0003625523486,-0.0007687274267,-0.001407989353,3.232075941e-05,-0.001375668594,0.001589425768,-0.0003938763659,0.001195549402,0.0005972366776,0.000137577054,0.0007348137316,0.002476195969,-3.372369669e-05,0.002442472273,0.004318031329,-0.0008508904343,0.003467140895,0.001054637197,-0.0002776533486,0.0007769838488,0.0004853981422,-9.01864421e-06,0.000476379498,0.0008016571491,-0.000388690111,0.0004129670381,0.0004907976183,6.168810253e-07,0.0004914144993,-0.0002442569626,-0.000253848492,-0.0004981054546,0.0009879102449,-0.0001142258303,0.0008736844146,0.000981021573,-0.0001502765217,0.0008307450513,0.0001214295668,7.070242225e-06,0.0001284998091,0.0005655713356,0.0008432103719,0.001408781707,0.002868456056,0.0001079343392,0.002976390395,7.512127512e-05,0.0001876650807,0.0002627863558,0.002037249646,0.0008890890856,0.002926338732,0.001026277683,-0.0003696126106,0.0006566650726,0.0007614475057,-0.0003340271033,0.0004274204023,0.001755018652,-0.0002343308829,0.00152068777,-0.0002145702557,-0.0001741422198,-0.0003887124754,-2.229947621e-05,-1.605975309e-05,-3.83592293e-05,-0.0002324552778,0.0003717448066,0.0001392895288,-0.0006143116697,0.0002101517229,-0.0004041599469,-0.0008725592047,0.0004030359843,-0.0004695232204,-0.001695812866,0.0005672743044,-0.001128538562
15.7,-0.0009267633605,0.0005145972626,-0.000412166098,0.001609575108,-0.0006165703415,0.0009930047661,-0.001217551528,7.568863791e-05,-0.00114186289,-0.001091151857,8.006363506e-05,-0.001011088222,-0.001507783166,0.0005681535286,-0.0009396296377,-0.0007247155138,-0.0001408722851,-0.0008655877989,-0.001063468564,0.0003259181001,-0.000737550464,-0.0002788308646,0.0001210469792,-0.0001577838854,-0.002983261884,2.967057705e-05,-0.002953591306,-0.001157984074,0.0003633277362,-0.0007946563374,-0.001444744832,4.113961912e-05,-0.001403605213,0.001518885922,-0.0003851952372,0.001133690685,0.0004987766817,0.000124220537,0.0006229972187,0.002445013409,-3.663832886e-05,0.00240837508,0.004257619647,-0.0008599419023,0.003397677745,0.0009618159657,-0.0002800219795,0.0006817939862,0.0003974581094,-3.415440941e-05,0.0003633037,0.0006599845094,-0.0003788122418,0.0002811722676,0.0003944036758,-1.011643878e-05,0.000384287237,-0.0002736278676,-0.0002515608661,-0.0005251887337,0.0009713474634,-0.0001124381372,0.0008589093262,0.0009551117064,-0.0001431234884,0.0008119882179,0.0001076157709,9.261392577e-06,0.0001168771635,0.000576845773,0.0008474933051,0.001424339078,0.002852967352,0.0001054371458,0.002958404498,4.877699744e-05,0.0001889449368,0.0002377219343,0.001941604407,0.000906942822,0.002848547229,0.0009575596338,-0.0003734584092,0.0005841012246,0.0006833940189,-0.0003326557215,0.0003507382974,0.001668567842,-0.0002263678633,0.001442199979,-0.0002891066755,-0.000176151039,-0.0004652577145,-9.835760343e-05,-1.760292533e-05,-0.0001159605288,-0.0003226324346,0.0003635317242,4.089928957e-05,-0.0007158152404,0.0002053322122,-0.0005104830282,-0.0009569852232,0.0004007085077,-0.0005562767155,-0.001808404742,0.000552221919,-0.001256182823
15.8,-0.0009342003701,0.0005179242502,-0.0004162761199,0.00157089305,-0.0006157186524,0.0009551743976,-0.001229503769,9.165078354e-05,-0.001137852985,-0.001114545908,8.640464908e-05,-0.001028141259,-0.001564616095,0.0005825378597,-0.0009820782349,-0.000758030295,-0.0001399562024,-0.0008979864974,-0.001111166433,0.0003247082404,-0.0007864581931,-0.0003016853657,0.0001208147616,-0.0001808706042,-0.003031203258,3.259984607e-05,-0.002998603411,-0.00118578521,0.0003640128699,-0.0008217723398,-0.001481628647,4.990424819e-05,-0.001431724399,0.0014481297,-0.0003770517437,0.001071077956,0.0003977224088,0.0001089932635,0.0005067156722,0.002411267042,-3.969632076e-05,0.002371570721,0.004190454279,-0.0008687036637,0.003321750615,0.0008642894222,-0.000282520839,0.0005817685831,0.0003049846736,-6.021966712e-05,0.0002447650065,0.0005149668758,-0.0003680135722,0.0001469533036,0.0002960324629,-2.050083438e-05,0.0002755316286,-0.0003032518173,-0.0002486298204,-0.0005518816378,0.0009544412364,-0.0001103537955,0.0008440874408,0.000928326927,-0.0001354535198,0.0007928734071,9.422142725e-05,1.184348513e-05,0.0001060649124,0.0005865408847,0.0008512585927,0.001437799477,0.0028343043,0.00010337506,0.00293767936,2.056871084e-05,0.0001896698987,0.0002102386096,0.001840555213,0.0009225693334,0.002763124547,0.0008841550316,-0.0003773243693,0.0005068306623,0.0006003954862,-0.0003311121163,0.0002692833699,0.00157843985,-0.0002189261261,0.001359513723,-0.000370419216,-0.0001774588542,-0.0005478780702,-0.0001794443927,-1.88297867e-05,-0.0001982741794,-0.0004180531083,0.0003554380049,-6.261510342e-05,-0.0008222287624,0.0002010980597,-0.0006211307027,-0.001044119406,0.000397823394,-0.0006462960123,-0.00192262392,0.0005364281265,-0.001386195794
15.9,-0.0009401495552,0.0005218818108,-0.0004182677443,0.001531241647,-0.0006142565762,0.000916985071,-0.001240403168,0.0001082106766,-0.001132192492,-0.001138144685,9.311699935e-05,-0.001045027686,-0.001621782992,0.0005973992363,-0.001024383756,-0.0007907099008,-0.0001386717699,-0.0009293816707,-0.001159466654,0.0003236121887,-0.0008358544649,-0.0003261857491,0.0001208152147,-0.0002053705344,-0.003078820418,3.58118125e-05,-0.003043008605,-0.001214617793,0.0003646184087,-0.0008499993843,-0.001518559161,5.861624838e-05,-0.001459942913,0.001377286654,-0.0003695231905,0.001007763464,0.0002943054102,9.188720111e-05,0.0003861926113,0.002374889195,-4.288755538e-05,0.00233200164,0.004116302994,-0.0008769312775,0.003239371716,0.0007623242147,-0.0002851453135,0.0004771789012,0.0002080095041,-8.686645547e-05,0.0001211430487,0.0003671276345,-0.0003563698461,1.075778838e-05,0.0001959078619,-3.037796994e-05,0.000165529892,-0.0003330351662,-0.0002450718402,-0.0005781070064,0.0009372192105,-0.0001079690641,0.0008292501464,0.0009007114682,-0.0001272826719,0.0007734287963,8.124067772e-05,1.481912918e-05,9.60598069e-05,0.0005946189621,0.000854515312,0.001449134274,0.002812347548,0.0001017862974,0.002914133846,-9.526726995e-06,0.0001898977188,0.0001803709918,0.001734518731,0.0009357317563,0.002670250487,0.0008062669943,-0.0003812313058,0.0004250356885,0.0005127391991,-0.0003294034735,0.0001833357256,0.001485021,-0.0002120402016,0.001272980799,-0.0004582979128,-0.0001780525023,-0.0006363504151,-0.0002652855337,-1.973555342e-05,-0.0002850210871,-0.0005184357392,0.0003476570533,-0.0001707786858,-0.0009331514373,0.0001974786064,-0.000735672831,-0.001133721762,0.0003944115695,-0.0007393101922,-0.002038120925,0.0005199868898,-0.001518134036
16.0,-0.0009446572848,0.0005264641297,-0.000418193155,0.001490723553,-0.000612187456,0.0008785360971,-0.001250411034,0.0001253042054,-0.001125106829,-0.001161921845,0.0001002068222,-0.001061715023,-0.001679121872,0.0006126989976,-0.001066422874,-0.0008226772491,-0.0001370131088,-0.0009596903578,-0.001208255183,0.0003226413063,-0.0008856138764,-0.0003523086182,0.0001210453329,-0.0002312632853,-0.003125994419,3.9299495e-05,-0.003086694924,-0.001244395944,0.0003651541316,-0.0008792418124,-0.0015554434,6.727927518e-05,-0.001488164124,0.00130649113,-0.0003626707587,0.000943820371,0.0001887491428,7.293267813e-05,0.0002616818209,0.002335832362,-4.619228605e-05,0.002289640076,0.004034977754,-0.0008843872124,0.003150590542,0.0006562065389,-0.0002878861365,0.0003683204024,0.0001065716342,-0.0001137236564,-7.152022202e-06,0.0002170177958,-0.0003439658471,-0.0001269480514,9.427258521e-05,-3.959375637e-05,5.467882883e-05,-0.0003628807275,-0.000240906939,-0.0006037876665,0.0009197150462,-0.0001052819998,0.0008144330464,0.0008723223106,-0.0001186294294,0.0007536928812,6.867819836e-05,1.818849429e-05,8.686669265e-05,0.000601065519,0.000857275729,0.001458341248,0.00278700714,0.0001006929229,0.002887700063,-4.150809145e-05,0.0001896885127,0.0001481804212,0.001623951922,0.0009462078379,0.00257015976,0.0007241403406,-0.0003851990794,0.0003389412612,0.0004207513193,-0.000327533739,9.321758031e-05,0.001388722028,-0.0002057349178,0.00118298711,-0.0005524851455,-0.0001779275669,-0.0007304127124,-0.00035556999,-2.031482579e-05,-0.0003758848158,-0.0006234753954,0.0003403874127,-0.0002830879827,-0.001048137439,0.0001944901154,-0.0008536473234,-0.00122553556,0.0003905043331,-0.0008350312272,-0.002154556498,0.0005030119234,-0.001651544574
16.1,-0.0009477729497,0.0005316616636,-0.000416111286,0.001449453191,-0.0006095165376,0.0008399366531,-0.001259686678,0.0001428635068,-0.001116823171,-0.001185843198,0.0001076775691,-0.001078165629,-0.001736459305,0.000628395624,-0.001108063681,-0.00085385083,-0.0001349760698,-0.0009888268999,-0.001257404975,0.0003218060657,-0.0009355989096,-0.0003800175969,0.0001215004691,-0.0002585171277,-0.003172597236,4.305417087e-05,-0.003129543065,-0.001275015176,0.000365628468,-0.0009093867076,-0.001592178103,7.58984951e-05,-0.001516279608,0.001235883487,-0.0003565379952,0.0008793454914,8.12647676e-05,5.220143967e-05,0.0001334662073,0.002294071953,-4.95812302e-05,0.002244490723,0.003946347445,-0.0008908478085,0.003055499637,0.0005462407284,-0.0002907295949,0.0002555111335,7.255209258e-07,-0.0001404048892,-0.0001396793683,6.521178198e-05,-0.0003308941868,-0.0002656824048,-8.611238325e-06,-4.800203517e-05,-5.66132735e-05,-0.0003926880829,-0.0002361583666,-0.0006288464495,0.0009019687976,-0.000102292575,0.0007996762226,0.0008432286434,-0.0001095149197,0.0007337137237,5.654843748e-05,2.194912119e-05,7.849755867e-05,0.0006058883866,0.0008595551546,0.001465443541,0.002758227152,0.0001000999436,0.002858327095,-7.534719632e-05,0.0001891028221,0.0001137556258,0.001509344769,0.0009537960184,0.002463140788,0.0006380596479,-0.0003892445983,0.0002488150496,0.0003247915646,-0.0003255037915,-7.12226912e-07,0.001289972426,-0.0002000259461,0.00108994648,-0.0006526789737,-0.0001770881712,-0.0008297671449,-0.0004499523757,-2.056218737e-05,-0.000470514563,-0.0007328432843,0.0003338234272,-0.0003990198571,-0.00116669979,0.0001921368731,-0.0009745629171,-0.00131928856,0.0003861317261,-0.0009331568338,-0.002271603224,0.0004856341736,-0.00178596905
16.2,-0.0009495472727,0.0005374612478,-0.0004120860249,0.001407554977,-0.0006062509286,0.0008013040489,-0.001268384257,0.0001608182969,-0.00110756596,-0.001209866763,0.0001155300347,-0.001094336728,-0.001793613923,0.0006444451346,-0.001149168788,-0.0008841457008,-0.0001325584611,-0.001016704162,-0.001306780312,0.00032111594,-0.0009856643725,-0.0004092638726,0.0001221745616,-0.000287089311,-0.003218497693,4.706538312e-05,-0.00317143231,-0.001306357547,0.0003660482151,-0.0009403093316,-0.001628653937,8.448011784e-05,-0.001544173819,0.001165608306,-0.0003511495135,0.0008144587924,-2.795167525e-05,2.980644053e-05,1.854765283e-06,0.002249606789,-5.30161542e-05,0.002196590635,0.003850346431,-0.0008961096471,0.002954236784,0.0004327461137,-0.000293657981,0.0001390881327,-0.0001094516432,-0.0001665179384,-0.0002759695816,-8.770032122e-05,-0.0003172539123,-0.0004049542335,-0.0001124642329,-5.546824792e-05,-0.0001679324808,-0.0004223550124,-0.0002308520949,-0.0006532071073,0.0008840255539,-9.900268992e-05,0.0007850228639,0.0008135092264,-9.996306979e-05,0.0007135461566,4.487289925e-05,2.60957138e-05,7.096861305e-05,0.0006091154983,0.0008613718279,0.001470487326,0.002725985594,9.999661274e-05,0.002825982207,-0.0001109896622,0.0001881996848,7.721002253e-05,0.001391210427,0.0009583202914,0.002349530719,0.000548344347,-0.0003933805622,0.0001549637848,0.0002252450495,-0.0003233120238,-9.806697429e-05,0.001189212044,-0.0001949204254,0.0009942916186,-0.0007585390171,-0.0001755465238,-0.0009340855409,-0.000548058047,-2.047237968e-05,-0.0005685304267,-0.0008461881826,0.0003281464392,-0.0005180417434,-0.001288316754,0.0001904125964,-0.001097904158,-0.001414696482,0.0003813218172,-0.001033374665,-0.002388946298,0.0004679960073,-0.00192095029
16.3,-0.0009500318462,0.0005438463817,-0.0004061854645,0.001365160078,-0.0006023995601,0.0007627605184,-0.001276650742,0.0001790972401,-0.001097553502,-0.001233943868,0.0001237624763,-0.001110181392,-0.001850402306,0.0006608015288,-0.001189600777,-0.0009134756456,-0.0001297602152,-0.001043235861,-0.001356243302,0.000320579407,-0.001035663895,-0.0004399871689,0.0001230605938,-0.0003169265751,-0.003263569662,5.132107379e-05,-0.003212248588,-0.001338298729,0.0003664184903,-0.0009718802389,-0.001664761666,9.303103602e-05,-0.00157173063,0.001095809737,-0.00034651008,0.0007492996565,-0.0001387202388,5.898424665e-06,-0.0001328218141,0.002202457755,-5.645090496e-05,0.00214600685,0.003746978961,-0.0008999952412,0.00284698372,0.0003160523891,-0.0002966500147,1.940237444e-05,-0.0002238548362,-0.0001916748305,-0.0004155296667,-0.0002411228987,-0.0003031489605,-0.0005442718593,-0.0002169941106,-6.187299414e-05,-0.0002788671048,-0.000451779639,-0.0002250162606,-0.0006767958996,0.0008659327619,-9.541621159e-05,0.0007705165503,0.0007832483236,-9.000070494e-05,0.0006932476187,3.367621977e-05,3.061996307e-05,6.429618284e-05,0.0006107918382,0.0008627467667,0.001473538605,0.002690289579,0.0001003604046,0.002790649983,-0.0001483585254,0.000187035025,3.867649959e-05,0.001270073399,0.0009596340164,0.002229707415,0.0004553413985,-0.0003976148326,5.772656586e-05,0.0001225126238,-0.0003209550634,-0.0001984424397,0.00108688117,-0.0001904174278,0.000896463742,-0.0008696939984,-0.0001733223232,-0.001043016322,-0.0006494901684,-2.004016258e-05,-0.000669530331,-0.0009631398995,0.0003235176838,-0.0006396222157,-0.001412440265,0.0001893017551,-0.00122313851,-0.001511468198,0.0003761008163,-0.001135367381,-0.002506283287,0.0004502430573,-0.00205604023
16.4,-0.0009492796131,0.0005507977339,-0.0003984818792,0.001322402236,-0.0005979731063,0.0007244291301,-0.001284624719,0.000197629308,-0.001086995411,-0.001258021014,0.0001323708607,-0.001125650153,-0.001906645894,0.0006774173082,-0.001229228586,-0.0009417560998,-0.0001265834595,-0.001068339559,-0.001405660969,0.000320204042,-0.001085456927,-0.0004721169485,0.0001241511737,-0.0003479657749,-0.00330770051,5.580778289e-05,-0.003251892728,-0.001370715322,0.000366742854,-0.001003972468,-0.001700398733,0.0001015585213,-0.001598840211,0.001026625497,-0.0003426043622,0.0006840211346,-0.0002508762995,-1.933968423e-05,-0.0002702159838,0.002152665597,-5.983307092e-05,0.002092832526,0.003636320296,-0.0009023578841,0.002733962411,0.0001964940241,-0.0002996810517,-0.0001031870276,-0.0003423491463,-0.0002155016605,-0.0005578508068,-0.0003944661027,-0.0002886863419,-0.0006831524446,-0.0003219014294,-6.711507785e-05,-0.0003890165073,-0.00048086285,-0.0002186806797,-0.0006995435297,0.0008477369004,-9.153910762e-05,0.0007561977928,0.0007525310867,-7.965756688e-05,0.0006728735198,2.298195156e-05,3.551049707e-05,5.849244864e-05,0.000610976155,0.0008637035856,0.001474679741,0.002651167678,0.0001011625142,0.002752330193,-0.0001873595185,0.0001856606949,-1.698823633e-06,0.001146456375,0.0009576240075,0.002104080382,0.0003594160066,-0.0004019497448,-4.253373824e-05,1.700116635e-05,-0.0003184282196,-0.0003014270532,0.0009834106858,-0.000186508175,0.0007969025109,-0.0009857497624,-0.0001704420522,-0.001156191815,-0.0007538376336,-1.925998943e-05,-0.000773097623,-0.001083313899,0.0003200729215,-0.0007632409775,-0.001538505407,0.0001887804962,-0.00134972491,-0.001609311686,0.0003704938638,-0.001238817823,-0.002623323133,0.0004325154897,-0.002190807643
16.5,-0.0009473458332,0.0005582938162,-0.000389052017,0.001279413385,-0.0005929838029,0.0006864295825,-0.001292435669,0.0002163450214,-0.001076090648,-0.001282042034,0.0001413491865,-0.001140692848,-0.001962177327,0.0006942440561,-0.001267933271,-0.0009689072446,-0.0001230325068,-0.001091939751,-0.001454911178,0.0003199966426,-0.001134914535,-0.0005055736306,0.0001254390543,-0.0003801345763,-0.003350797609,6.051086532e-05,-0.003290286744,-0.001403490632,0.0003670235286,-0.001036467104,-0.001735474489,0.0001100699262,-0.001625404563,0.0009581816284,-0.0003393976058,0.0006187840226,-0.0003642686442,-4.569918925e-05,-0.0004099678334,0.002100289274,-6.310662096e-05,0.002037182653,0.003518515772,-0.0009030852987,0.002615430473,7.440449266e-05,-0.000302723058,-0.0002283185653,-0.0004647700043,-0.0002376480068,-0.0007024180111,-0.0005471571665,-0.000273973874,-0.0008211310405,-0.0004268856705,-7.111390205e-05,-0.0004979995726,-0.0005095105642,-0.0002118763837,-0.0007213869479,0.0008294803156,-8.737957261e-05,0.000742100743,0.0007214393653,-6.896613558e-05,0.0006524732297,1.280913882e-05,4.075303332e-05,5.356217214e-05,0.0006097381491,0.0008642682848,0.001474006434,0.002608662183,0.0001023728193,0.002711035002,-0.0002278863759,0.0001841242538,-4.376212214e-05,0.001020866807,0.0009522158408,0.001973082647,0.0002609415032,-0.0004063808069,-0.0001454393037,-9.088454374e-05,-0.0003157254252,-0.0004066099689,0.0008792141943,-0.0001831761012,0.000696038093,-0.001106296388,-0.0001669381562,-0.001273234544,-0.0008606826083,-1.812551259e-05,-0.0008788081208,-0.00120631606,0.0003179183808,-0.0008883976787,-0.001665939785,0.000188817189,-0.001477122596,-0.001707939264,0.0003645261355,-0.001343413129,-0.002739784915,0.0004149406711,-0.002324844244
16.6,-0.0009442889062,0.0005663116772,-0.000377977229,0.001236319921,-0.0005874451803,0.0006488747407,-0.001300203195,0.0002351774534,-0.001065025742,-0.001305950003,0.0001506897614,-0.001155260241,-0.002016844543,0.0007112330008,-0.001305611542,-0.0009948565654,-0.0001191137966,-0.001113970362,-0.001503885668,0.0003199633361,-0.001183922332,-0.0005402695545,0.0001269174281,-0.0004133521264,-0.003392790896,6.541471798e-05,-0.003327376178,-0.001436517311,0.0003672616793,-0.001069255631,-0.001769912438,0.0001185723931,-0.001651340045,0.0008905894008,-0.0003368370334,0.0005537523674,-0.0004787568364,-7.295163972e-05,-0.0005517084761,0.002045406062,-6.621549699e-05,0.001979190565,0.003393778925,-0.0009021015183,0.002491677406,-4.98885738e-05,-0.0003057444883,-0.0003556330621,-0.0005909238304,-0.00025779599,-0.0008487198204,-0.0006986503518,-0.0002591173671,-0.0009577677189,-0.0005316502315,-7.381136786e-05,-0.0006054615994,-0.0005376353376,-0.0002046351268,-0.0007422704644,0.0008111991178,-8.294802844e-05,0.0007282510894,0.000690048975,-5.796116489e-05,0.0006320878101,3.170754159e-06,4.633071282e-05,4.950146698e-05,0.0006071568273,0.0008644689881,0.001471625815,0.002562823634,0.0001039628115,0.002666786446,-0.0002698243879,0.0001824692545,-8.735513342e-05,0.0008937850826,0.0009433799031,0.001837164986,0.0001602905178,-0.0004108948943,-0.0002506043765,-0.0002007468183,-0.0003128387842,-0.0005135856025,0.0007746839524,-0.000180396923,0.0005942870294,-0.001230913087,-0.000162848164,-0.001393761251,-0.0009696065134,-1.662886867e-05,-0.000986235382,-0.001331746691,0.0003171277941,-0.001014618897,-0.001794171878,0.0001893730344,-0.001604798844,-0.001807070627,0.0003582238702,-0.001448846757,-0.002855396351,0.000397628234,-0.002457768117
16.7,-0.000940170391,0.0005748274692,-0.0003653429218,0.001193240444,-0.000581371791,0.0006118686527,-0.001308035749,0.0002540629506,-0.001053972799,-0.001329688357,0.0001603833552,-0.001169305002,-0.002070511434,0.0007283355074,-0.001342175927,-0.001019540275,-0.0001148357917,-0.001134376067,-0.001552489204,0.0003201096467,-0.001232379557,-0.0005761094777,0.0001285799138,-0.0004475295639,-0.003433630695,7.050298496e-05,-0.00336312771,-0.001469696129,0.0003674577265,-0.001102238402,-0.001803648746,0.0001270725778,-0.001676576168,0.0008239444391,-0.0003348532735,0.0004890911656,-0.0005942076169,-0.0001008537986,-0.0006950614155,0.001988113646,-6.910752268e-05,0.001919006123,0.003262389503,-0.0008993667141,0.002363022789,-0.0001760660706,-0.0003087102842,-0.0004847763548,-0.0007205874216,-0.0002756684448,-0.0009962558663,-0.0008484340043,-0.000244217408,-0.001092651412,-0.0006359052199,-7.517335274e-05,-0.0007110785727,-0.0005651568724,-0.0001969889811,-0.0007621458534,0.000792922787,-7.825703499e-05,0.000714665752,0.0006584290752,-4.667901778e-05,0.0006117500574,-5.92559169e-06,5.222449662e-05,4.629890493e-05,0.0006033203136,0.0008643356351,0.001467655949,0.002513709094,0.0001059064746,0.002619615568,-0.0003130510131,0.0001807356908,-0.0001323153223,0.0007656565368,0.0009311367622,0.001696793299,5.782927903e-05,-0.0004154683688,-0.0003576390898,-0.0003121962995,-0.0003097581149,-0.0006219544144,0.0006701911834,-0.0001781388013,0.0004920523821,-0.001359170303,-0.0001582139116,-0.001517384215,-0.001080193691,-1.475985693e-05,-0.001094953548,-0.001459202783,0.0003177405388,-0.001141462244,-0.001922637764,0.0001904032412,-0.001732234523,-0.001906433269,0.0003516152233,-0.001554818046,-0.002969891517,0.0003806674281,-0.002589224089
16.8,-0.0009350539193,0.0005838168453,-0.0003512370741,0.001150285263,-0.0005747789988,0.0005755062641,-0.001316028783,0.0002729416312,-0.001043087152,-0.001353201139,0.0001704192464,-0.001182781893,-0.002123055236,0.0007455034906,-0.001377551745,-0.001042903474,-0.0001102088382,-0.001153112312,-0.001600635551,0.0003204405152,-0.001280195036,-0.000612990648,0.0001304202805,-0.0004825703675,-0.003473282134,7.575866032e-05,-0.003397523473,-0.001502931954,0.0003676115986,-0.001135320355,-0.001836628031,0.0001355763439,-0.001701051687,0.0007583272377,-0.0003333613384,0.0004249658993,-0.0007104898645,-0.0001291516925,-0.0008396415569,0.001928533303,-7.173779979e-05,0.001856795504,0.003124691906,-0.0008948755324,0.002229816373,-0.0003038174584,-0.0003115821018,-0.0006153995602,-0.0008535056179,-0.0002910352387,-0.001144540857,-0.0009960339534,-0.0002293661697,-0.001225400123,-0.0007393678845,-7.519064981e-05,-0.0008145585343,-0.0005920014417,-0.0001889701967,-0.0007809716384,0.0007746753643,-7.332123866e-05,0.0007013541256,0.000626643342,-3.515702281e-05,0.0005914863192,-1.447548855e-05,5.841349886e-05,4.393801031e-05,0.0005983266221,0.0008638996725,0.001462226295,0.002461384233,0.0001081802133,0.002569564446,-0.0003574338108,0.0001789604511,-0.0001784733597,0.0006368890776,0.0009155601652,0.001552449243,-4.608480155e-05,-0.0004200654621,-0.0004661502637,-0.0004248506143,-0.0003064709296,-0.0007313215438,0.0005660891904,-0.0001763626095,0.0003897265808,-0.001490629607,-0.0001530810613,-0.001643710668,-0.001192032919,-1.250532826e-05,-0.001204538248,-0.001588278083,0.000319761143,-0.00126851694,-0.002050786021,0.0001918587587,-0.001858927262,-0.002005761273,0.0003447312074,-0.001661030066,-0.003083008306,0.0003641265746,-0.002718881731
16.9,-0.0009290033851,0.0005932552391,-0.000335748146,0.001107557115,-0.0005676828292,0.0005398742861,-0.001324262887,0.0002917577327,-0.001032505154,-0.001376432742,0.0001807852173,-0.001195647525,-0.002174362483,0.0007626897667,-0.001411672716,-0.001064899531,-0.0001052450246,-0.001170144556,-0.001648242593,0.0003209602687,-0.001327282325,-0.0006508027839,0.0001324320467,-0.0005183707371,-0.003511719157,8.116404566e-05,-0.003430555112,-0.001536129398,0.0003677228437,-0.001168406554,-0.001868798809,0.0001440883807,-0.001724710429,0.0006938043086,-0.0003322614335,0.0003615428751,-0.0008274681641,-0.0001575847364,-0.0009850529005,0.001866812862,-7.407109997e-05,0.001792741762,0.0029810939,-0.0008886548726,0.002092439027,-0.0004328390741,-0.0003143186569,-0.0007471577309,-0.0009893878313,-0.0003037173965,-0.001293105228,-0.001141014064,-0.0002146448072,-0.001355658871,-0.000841761714,-7.387919136e-05,-0.0009156409054,-0.000618100815,-0.000180611318,-0.000798712133,0.0007564773114,-6.81573658e-05,0.0006883199456,0.00059475172,-2.343299391e-05,0.0005713187261,-2.247573089e-05,6.487521609e-05,4.23994852e-05,0.0005922843091,0.0008631937846,0.001455478094,0.002405927947,0.0001107629425,0.00251669089,-0.0004028276094,0.0001771779083,-0.0002256497011,0.0005078566984,0.0008967763773,0.001404633076,-0.0001511038345,-0.000424637202,-0.0005757410364,-0.0005383328376,-0.0003029630588,-0.0008412958964,0.0004627164335,-0.0001750223736,0.0002876940599,-0.001624842887,-0.0001474989317,-0.001772341819,-0.001304717791,-9.849133202e-06,-0.001314566924,-0.001718561931,0.0003231604059,-0.001395401525,-0.002178080974,0.0001936878917,-0.001984393083,-0.00210479423,0.0003376070476,-0.001767187182,-0.003194487333,0.000348054802,-0.002846432531
17.0,-0.0009220812291,0.0006031180479,-0.0003189631811,0.00106515204,-0.0005600998481,0.0005050521918,-0.001332802754,0.0003104598323,-0.001022342921,-0.001399327901,0.0001914675199,-0.001207860381,-0.002224326023,0.0007798483469,-0.001444477676,-0.001085489497,-9.995806147e-05,-0.001185447559,-0.00169522916,0.0003216725575,-0.001373556603,-0.0006894283899,0.0001346081277,-0.0005548202621,-0.003548920957,8.670064083e-05,-0.003462220316,-0.001569190579,0.0003677906235,-0.001201399955,-0.001900110893,0.0001526117774,-0.001747499115,0.0006304296438,-0.0003314402273,0.0002989894165,-0.0009449960495,-0.0001858907673,-0.001130886817,0.001803128256,-7.608321795e-05,0.001727045038,0.002832064688,-0.0008807614653,0.001951303223,-0.0005628324092,-0.0003168759881,-0.0008797083972,-0.00112790462,-0.0003135896511,-0.001441494271,-0.001282975861,-0.0002001218668,-0.001483097728,-0.0009428158039,-7.127943458e-05,-0.001014095239,-0.0006433914817,-0.0001719453246,-0.0008153368063,0.0007383469483,-6.278411876e-05,0.0006755628296,0.0005628114311,-1.154485813e-05,0.000551266573,-2.992378043e-05,7.158567978e-05,4.166189935e-05,0.0005853120145,0.0008622516459,0.00144756366,0.002347437584,0.0001136364988,0.002461074083,-0.0004490733762,0.0001754208201,-0.0002736525561,0.0003789069632,0.0008749598391,0.001253866802,-0.0002568904944,-0.0004291210668,-0.0006860115611,-0.0006522718229,-0.0002992197814,-0.0009514916042,0.0003603973947,-0.0001740660543,0.0001863313403,-0.001761352398,-0.0001415204135,-0.001902872811,-0.001417847039,-6.772922576e-06,-0.001424619962,-0.001849638261,0.0003278778877,-0.001521760373,-0.002304004778,0.0001958370158,-0.002108167763,-0.002203277676,0.0003302839166,-0.001872993759,-0.003304073416,0.0003324858767,-0.00297158754
17.1,-0.0009143474995,0.0006133806298,-0.0003009668697,0.001023159491,-0.0005520470595,0.0004711124314,-0.001341697576,0.0003290009439,-0.001012696632,-0.0014218325,0.0002024508153,-0.001219381684,-0.002272844674,0.0007969346648,-0.001475910009,-0.001104642242,-9.436313497e-05,-0.001199005377,-0.001741514941,0.0003225803181,-0.001418934623,-0.000728743683,0.0001369406777,-0.0005918030053,-0.003584872056,9.234912124e-05,-0.003492522935,-0.001602016141,0.0003678137261,-0.001234202415,-0.001930515854,0.0001611476632,-0.001769368191,0.000568246074,-0.0003307728678,0.0002374732062,-0.00106291088,-0.0002138114548,-0.001276722335,0.001737682831,-7.776143909e-05,0.001659921392,0.002678130964,-0.0008712791526,0.001806851811,-0.000693503601,-0.0003192075832,-0.001012711184,-0.001268685844,-0.0003205820361,-0.00158926788,-0.001421558905,-0.0001858528243,-0.00160741173,-0.001042265656,-6.745492556e-05,-0.001109720582,-0.0006678147069,-0.0001630055975,-0.0008308203044,0.0007203008216,-5.722188212e-05,0.0006630789394,0.0005308765477,4.697093443e-07,0.0005313462571,-3.68190783e-05,7.851955613e-05,4.170047783e-05,0.0005775364518,0.0008611076295,0.001438644081,0.002286033423,0.0001167856016,0.002402819025,-0.0004960002563,0.000173721451,-0.0003222788053,0.0002503693478,0.0008503262134,0.001100695561,-0.000363120477,-0.0004334414907,-0.0007965619677,-0.0007663051827,-0.0002952271522,-0.001061532335,0.0002594405118,-0.0001734367236,8.600378825e-05,-0.001899692568,-0.0001352017303,-0.002034894298,-0.001531025553,-3.257901947e-06,-0.001534283455,-0.001981085619,0.0003338251962,-0.001647260423,-0.002428059046,0.0001982503253,-0.002229808721,-0.002300965288,0.0003228105418,-0.001978154746,-0.003411519029,0.0003174431679,-0.003094075862
17.2,-0.0009058599527,0.0006240180242,-0.0002818419286,0.000981661317,-0.0005435418589,0.0004381194581,-0.001350983007,0.0003473385328,-0.001003644474,-0.001443895466,0.0002137181221,-0.001230177343,-0.002319825786,0.0008139057647,-0.001505920021,-0.001122335608,-8.847665269e-05,-0.001210812261,-0.001787023453,0.0003236858338,-0.001463337619,-0.0007686201681,0.0001394212143,-0.0006291989538,-0.003619565792,9.808949877e-05,-0.003521476293,-0.001634509294,0.0003677907082,-0.001266718586,-0.001959970437,0.000169694999,-0.001790275438,0.0005072858546,-0.0003301257615,0.0001771600932,-0.001181032101,-0.0002410965808,-0.001422128681,0.001670703912,-7.910424476e-05,0.001591599667,0.002519870109,-0.0008603160608,0.001659554048,-0.0008245643923,-0.0003212645387,-0.001145828931,-0.001411321561,-0.0003246805448,-0.001736002106,-0.001556442542,-0.0001718804901,-0.001728323033,-0.001139855842,-6.249017622e-05,-0.001202346018,-0.000691317489,-0.0001538257281,-0.0008451432171,0.0007023529239,-5.149232709e-05,0.0006508605968,0.0004989961848,1.25735999e-05,0.0005115697847,-4.316588452e-05,8.565022133e-05,4.248433681e-05,0.0005690889393,0.0008597964175,0.001428885357,0.002221861766,0.000120196578,0.002342058344,-0.0005434306761,0.0001721125604,-0.0003713181156,0.0001225615959,0.0008231241951,0.000945685791,-0.000469486179,-0.0004375113843,-0.0009069975634,-0.0008800845403,-0.0002909732731,-0.001171057813,0.0001601334614,-0.0001730739027,-1.294044135e-05,-0.002039393781,-0.0001286019255,-0.002167995706,-0.001643866569,7.127650276e-07,-0.001643153804,-0.002112478716,0.000340889776,-0.00177158894,-0.002549767004,0.0002008693848,-0.002348897619,-0.002397622246,0.0003152440875,-0.002082378158,-0.003516588555,0.0003029445485,-0.003213644007
17.3,-0.0008966751964,0.0006350044849,-0.0002616707114,0.0009407297052,-0.0005346020426,0.0004061276627,-0.001360684423,0.0003654345165,-0.0009952499069,-0.001465471665,0.0002252508371,-0.001240220828,-0.002365189979,0.000830720501,-0.001534469478,-0.001138558457,-8.231585399e-05,-0.001220874311,-0.001831687041,0.0003249909106,-0.00150669613,-0.0008089267118,0.000142041003,-0.0006668857088,-0.003653009893,0.000103901435,-0.003549108458,-0.001666581729,0.0003677201539,-0.001298861575,-0.001988441911,0.0001782505082,-0.001810191403,0.0004475700455,-0.0003293601881,0.0001182098574,-0.001299163312,-0.0002675062048,-0.001566669517,0.001602436731,-8.012040976e-05,0.001522316322,0.002357900852,-0.0008480021187,0.001509898734,-0.0009557341313,-0.0003229960625,-0.001278730194,-0.001555365842,-0.0003259267512,-0.001881292593,-0.001687348897,-0.0001582357494,-0.001845584647,-0.001235344388,-5.648802082e-05,-0.001291832409,-0.0007138541692,-0.000144439301,-0.0008582934702,0.0006845130574,-4.561805963e-05,0.0006388949977,0.0004672118117,2.473043013e-05,0.0004919422418,-4.897693313e-05,9.294988517e-05,4.397295205e-05,0.0005601009114,0.0008583525197,0.001418453431,0.002155096225,0.0001238548137,0.002278951039,-0.0005911873602,0.0001706279329,-0.0004205594273,-4.207944657e-06,0.0007936276998,0.0007894197551,-0.0005757010293,-0.0004412346672,-0.001016935697,-0.0009932820359,-0.000286449297,-0.001279731333,6.273664797e-05,-0.0001729147529,-0.0001101781049,-0.002179987749,-0.0001217820189,-0.002301769767,-0.001755995289,5.151504903e-06,-0.001750843784,-0.002243391893,0.0003489392444,-0.001894452648,-0.002668676963,0.0002036332356,-0.002465043728,-0.002493029003,0.0003076500044,-0.002185378998,-0.003619062721,0.0002890064165,-0.003330056305
17.4,-0.0008868507297,0.0006463130692,-0.0002405376606,0.0009004244522,-0.0005252457951,0.0003751786571,-0.001370820989,0.0003832552697,-0.0009875657192,-0.001486525466,0.0002370288468,-0.001249496619,-0.002408876747,0.0008473397673,-0.00156153698,-0.001153313149,-7.589834726e-05,-0.001229211496,-0.00187545243,0.0003264971081,-0.001548955322,-0.0008495318553,0.000144791564,-0.0007047402913,-0.003685232347,0.0001097646041,-0.003575467743,-0.001698159839,0.0003676009709,-0.001330558868,-0.002015913929,0.0001868086836,-0.001829105245,0.0003891067056,-0.0003283365402,6.077016547e-05,-0.001417097161,-0.0002928110519,-0.001709908213,0.001533136535,-8.082771013e-05,0.001452308825,0.002192872495,-0.0008344869846,0.001358385511,-0.001086742278,-0.0003243505043,-0.001411092783,-0.001700343124,-0.0003244162417,-0.002024759366,-0.001814046421,-0.0001449381634,-0.001958984585,-0.00132850819,-4.956657452e-05,-0.001378074764,-0.0007353883418,-0.0001348796544,-0.0008702679962,0.0006667848274,-3.962232849e-05,0.0006271624989,0.0004355543451,3.6904583e-05,0.0004724589281,-5.427695732e-05,0.0001003898567,4.611289938e-05,0.0005506990637,0.0008568097378,0.001407508802,0.002085936956,0.0001277415348,0.00221367849,-0.0006391008116,0.0001693023705,-0.0004697984411,-0.0001296428148,0.0007621298473,0.0006324870324,-0.0006815038409,-0.0004445095869,-0.001126013428,-0.00110559673,-0.0002816500229,-0.001387246753,-3.25236541e-05,-0.0001728949972,-0.0002054186513,-0.00232101359,-0.00011480392,-0.00243581751,-0.001867053591,1.006441174e-05,-0.001856989179,-0.00237340425,0.0003578261035,-0.002015578147,-0.002784367046,0.0002064790312,-0.002577888015,-0.002586984857,0.0003001008958,-0.002286883962,-0.003718743011,0.0002756464969,-0.003443096514
17.5,-0.0008764474846,0.0006579154531,-0.0002185320315,0.0008607901432,-0.000515491589,0.0003452985542,-0.001381409831,0.000400771579,-0.0009806382522,-0.001507034412,0.0002490306604,-0.001258003752,-0.002450849371,0.0008637267161,-0.001587122655,-0.001166617807,-6.92416612e-05,-0.001235859469,-0.001918285129,0.00032820595,-0.001590079179,-0.0008903060445,0.0001476651071,-0.0007426409374,-0.003716285494,0.0001156590408,-0.003600626453,-0.001729189516,0.0003674326864,-0.00136175683,-0.002042391139,0.0001953618465,-0.001847029292,0.0003318885424,-0.0003269185112,4.970031148e-06,-0.00153462104,-0.0003167923539,-0.001851413394,0.001463060178,-8.125140255e-05,0.001381808775,0.002025453723,-0.0008199378778,0.001205515845,-0.001217330981,-0.0003252768112,-0.001542607792,-0.001845756569,-0.0003202953172,-0.002166051886,-0.001936352783,-0.0001319963592,-0.002068349142,-0.001419148391,-4.185577414e-05,-0.001461004165,-0.0007558946398,-0.0001251794994,-0.0008810741391,0.0006491639472,-3.352868486e-05,0.0006156352623,0.0004040418293,4.906129764e-05,0.000453103127,-5.910497191e-05,0.0001079410058,4.883603393e-05,0.0005410009379,0.0008552005741,0.001396201512,0.00201460801,0.0001318307491,0.002146438759,-0.0006870158293,0.000168171233,-0.0005188445963,-0.0002534648847,0.0007289390091,0.0004754741244,-0.0007866619905,-0.0004472326334,-0.001233894624,-0.001216759143,-0.0002765741553,-0.001493333298,-0.0001254605286,-0.0001729496578,-0.0002984101863,-0.002462023353,-0.0001077293569,-0.00256975271,-0.001976704933,1.545019688e-05,-0.001961254736,-0.002502105054,0.000367392046,-0.002134713008,-0.002896450335,0.0002093427876,-0.002687107548,-0.002679310729,0.0002926747048,-0.002386636024,-0.003815455554,0.0002628853844,-0.00355257017
17.6,-0.0008655321317,0.0006697819452,-0.0001957501865,0.0008218540727,-0.0005053580315,0.0003164960412,-0.001392469538,0.0004179584739,-0.0009745110646,-0.001526992294,0.0002612334721,-0.001265758822,-0.00249109737,0.0008798469195,-0.00161125045,-0.001178507644,-6.236284707e-05,-0.001240870491,-0.001960170851,0.0003301190773,-0.001630051774,-0.000931123402,0.0001506547531,-0.0007804686489,-0.003746246186,0.0001215654626,-0.003624680724,-0.001759637735,0.0003672157451,-0.00139242199,-0.002067900706,0.0002039002764,-0.00186400043,0.0002758915945,-0.0003249767338,-4.90851393e-05,-0.001651521523,-0.0003392422522,-0.001990763775,0.001392458917,-8.142251267e-05,0.001311036404,0.001856321834,-0.000804536677,0.001051785157,-0.001347257089,-0.0003257261627,-0.001672983252,-0.001991097742,-0.0003137552607,-0.002304853003,-0.002054135444,-0.0001194084739,-0.002173543918,-0.00150709459,-3.349341118e-05,-0.001540588001,-0.0007753597762,-0.0001153703822,-0.0008907301584,0.0006316377531,-2.736054416e-05,0.0006042772089,0.0003726787218,6.116689085e-05,0.0004338456126,-6.351419306e-05,0.0001155744052,5.206021218e-05,0.0005311118579,0.0008535555388,0.001384667397,0.00194135369,0.0001360871039,0.002077440794,-0.0007347956251,0.0001672696086,-0.0005675260165,-0.0003754226588,0.0006943762208,0.000318953562,-0.0008909717363,-0.0004493028264,-0.001340274563,-0.001326532014,-0.0002712244223,-0.001597756437,-0.0002159279486,-0.0001730137745,-0.0003889417232,-0.002602585761,-0.0001006190189,-0.00270320478,-0.002084638046,2.129998429e-05,-0.002063338062,-0.002629097453,0.0003774710457,-0.002251626407,-0.003004579445,0.0002121602544,-0.002792419191,-0.002769850266,0.0002854526706,-0.002484397596,-0.003909053468,0.0002507469871,-0.003658306481
17.7,-0.0008541782882,0.000681881577,-0.0001722967112,0.0007836258677,-0.0004948637412,0.0002887621265,-0.00140402217,0.000434794937,-0.0009692272334,-0.00154641086,0.0002736131192,-0.001272797741,-0.002529634979,0.0008956684684,-0.001633966511,-0.001189034661,-5.527813118e-05,-0.001244312792,-0.002001112553,0.0003322383386,-0.001668874214,-0.0009718626792,0.0001537544843,-0.0008181081949,-0.003775210488,0.0001274655249,-0.003647744963,-0.001789489607,0.0003669517665,-0.00142253784,-0.002092489332,0.0002124123886,-0.001880076943,0.0002210769949,-0.0003223919604,-0.0001013149655,-0.001767586383,-0.0003599650377,-0.00212755142,0.001321574056,-8.137598217e-05,0.001240198074,0.001686153387,-0.000788475892,0.000897677495,-0.001476292756,-0.0003256535306,-0.001801946287,-0.002135856845,-0.0003050239674,-0.002440880812,-0.002167308474,-0.0001071628559,-0.00227447133,-0.001592206684,-2.462080162e-05,-0.001616827485,-0.000793782179,-0.000105482181,-0.00089926436,0.0006141867459,-2.11407609e-05,0.000593045985,0.0003414576883,7.318901432e-05,0.0004146467026,-6.756897884e-05,0.0001232620705,5.569309167e-05,0.0005211239339,0.0008519023944,0.001373026328,0.00186643514,0.0001404651148,0.002006900255,-0.0007823222857,0.0001666312413,-0.0006156910444,-0.000495298815,0.000658773058,0.000163474243,-0.0009942542746,-0.0004506259349,-0.001444880209,-0.001434706245,-0.0002656076359,-0.001700313881,-0.0003038173721,-0.0001730233096,-0.0004768406817,-0.002742287478,-9.353183351e-05,-0.002835819311,-0.002190568085,2.759762793e-05,-0.002162970457,-0.002753999324,0.0003878913615,-0.002366107963,-0.003108449837,0.0002148683855,-0.002893581451,-0.00285846842,0.0002785174841,-0.002579950936,-0.003999416424,0.0002392580708,-0.003760158354
17.8,-0.0008424660785,0.0006941822487,-0.0001482838297,0.0007460994329,-0.0004840272585,0.0002620721744,-0.001416093354,0.0004512635575,-0.0009648297967,-0.001565319725,0.000286143972,-0.001279175753,-0.002566495236,0.0009111620335,-0.001655333202,-0.00119826544,-4.800264833e-05,-0.001246268088,-0.002041123133,0.0003345657965,-0.001706557336,-0.00101240725,0.0001569588352,-0.0008554484146,-0.003803283381,0.0001333419126,-0.003669941468,-0.001818741145,0.0003666436499,-0.001452097495,-0.002116215945,0.0002208848708,-0.001895331074,0.0001673968871,-0.0003190580994,-0.0001516612123,-0.001882604302,-0.0003787789349,-0.002261383237,0.001250636205,-8.114897088e-05,0.001169487234,0.001515616985,-0.0007719535233,0.0007436634615,-0.001604224115,-0.0003250188695,-0.001929242984,-0.002279532478,-0.00029435591,-0.002573888388,-0.002275825191,-9.523901168e-05,-0.002371064202,-0.001674373347,-1.53785584e-05,-0.001689751905,-0.000811169997,-9.554284842e-05,-0.0009067128455,0.0005967882033,-1.489136611e-05,0.0005818968372,0.0003103639452,8.509681777e-05,0.000395460763,-7.133935963e-05,0.0001309776732,5.963831354e-05,0.0005111171092,0.0008502655145,0.001361382624,0.001790128311,0.0001449099788,0.00193503829,-0.0008294932653,0.0001662874544,-0.0006632058109,-0.0006129142956,0.0006224691041,9.554808465e-06,-0.001096347366,-0.0004511182418,-0.001547465608,-0.001541093044,-0.0002597346485,-0.001800827692,-0.0003890500238,-0.0001729164149,-0.0005619664388,-0.002880732223,-8.652404042e-05,-0.002967256263,-0.002294234964,3.432025336e-05,-0.00225991471,-0.002876441898,0.0003984773872,-0.002477964511,-0.003207801693,0.0002174076837,-0.002990394009,-0.002945047459,0.0002719518696,-0.002673095589,-0.00408644669,0.0002284468275,-0.003857999863
17.9,-0.0008304801744,0.0007066509853,-0.0001238291891,0.0007092569733,-0.0004728669592,0.0002363900141,-0.001428710776,0.0004673501594,-0.0009613606162,-0.001583764633,0.0002987988037,-0.001284965829,-0.002601721164,0.0009263008902,-0.001675420274,-0.001206277372,-4.055033168e-05,-0.001246827704,-0.002080215923,0.0003371036217,-0.001743112302,-0.001052644387,0.0001602623928,-0.0008923819946,-0.00383056642,0.000139178227,-0.003691388193,-0.001847390072,0.0003662954482,-0.001481094624,-0.002139142274,0.0002293027161,-0.001909839558,0.0001148037588,-0.0003148853889,-0.0002000816301,-0.001996363101,-0.0003955182061,-0.002391881307,0.001179867449,-8.077971108e-05,0.001099087738,0.001345368187,-0.0007551674677,0.0005902007193,-0.001730848398,-0.0003237877846,-0.002054636182,-0.002421639665,-0.0002820223864,-0.002703662052,-0.002379667794,-8.360877563e-05,-0.00246327657,-0.001753507327,-5.902894529e-06,-0.001759410221,-0.0008275380243,-8.55783991e-05,-0.0009131164234,0.0005794208248,-8.633477432e-06,0.0005707873474,0.0002793809436,9.686102172e-05,0.0003762419653,-7.489489584e-05,0.0001386970979,6.380220203e-05,0.0005011612531,0.0008486655647,0.001349826818,0.001712723612,0.0001493600787,0.001862083691,-0.0008762151438,0.0001662662518,-0.0007099488921,-0.0007281275978,0.0005858084823,-0.0001423191155,-0.001197094114,-0.0004507098286,-0.001647803943,-0.001645515279,-0.000253620147,-0.001899135426,-0.0004715674971,-0.0001726350468,-0.0006442025439,-0.00301753918,-7.96477446e-05,-0.003097186925,-0.002395399962,4.143892447e-05,-0.002353961037,-0.002996067892,0.0004090520775,-0.002587015814,-0.003302420528,0.0002197250248,-0.003082695504,-0.003029481805,0.0002658376439,-0.002763644161,-0.004170062148,0.0002183402036,-0.003951721944
18.0,-0.0008183070388,0.0007192542572,-9.905278161e-05,0.0006730739676,-0.0004614010008,0.0002116729667,-0.001441902048,0.000483043372,-0.0009588586759,-0.001601804793,0.0003115486601,-0.001290256133,-0.002635356908,0.0009410608773,-0.001694296031,-0.001213154243,-3.293399438e-05,-0.001246088237,-0.002118396193,0.0003398538855,-0.001778542308,-0.001092464311,0.0001636592485,-0.0009288050621,-0.003857147208,0.0001449587938,-0.003712188414,-0.001875427874,0.0003659120633,-0.00150951581,-0.00216132441,0.0002376492078,-0.001923675203,6.326100346e-05,-0.0003098037873,-0.0002465427838,-0.002108647865,-0.000410035354,-0.002518683219,0.001109484598,-8.030687519e-05,0.001029177722,0.001176045906,-0.0007383105415,0.0004377353645,-0.001855970474,-0.0003219318373,-0.002177902311,-0.002561715551,-0.0002683034759,-0.002830019027,-0.002478836478,-7.223778982e-05,-0.002551074268,-0.001829539411,3.677492879e-06,-0.001825861918,-0.0008429045463,-7.561295439e-05,-0.0009185175007,0.0005620688991,-2.387268828e-06,0.0005596816303,0.0002484956423,0.0001084539854,0.0003569496278,-7.829977854e-05,0.0001463987598,6.809898129e-05,0.000491317956,0.0008471195608,0.001338437517,0.001634526464,0.0001537507366,0.0017882772,-0.0009223970269,0.0001665915654,-0.0007558054615,-0.0008408303133,0.000549135792,-0.0002916945213,-0.001296331712,-0.0004493475926,-0.001745679305,-0.001747801256,-0.0002472822209,-0.001995083477,-0.0005513237999,-0.0001721267023,-0.0007234505022,-0.003152342278,-7.294904672e-05,-0.003225291325,-0.002493842361,4.891943473e-05,-0.002444922926,-0.00311253067,0.0004194401199,-0.00269309055,-0.003392136807,0.0002217761154,-0.003170360692,-0.003111673741,0.0002602552284,-0.002851418513,-0.004250188346,0.0002089602266,-0.004041228119
18.1,-0.0008060322562,0.0007319582097,-7.407404652e-05,0.0006375237094,-0.0004496473927,0.0001878763167,-0.001455693078,0.0004983341225,-0.0009573589556,-0.001619510111,0.0003243627638,-0.001295147347,-0.002667441427,0.0009554202823,-0.001712021144,-0.001218982223,-2.516553184e-05,-0.001244147754,-0.002155656139,0.0003428183287,-0.00181283781,-0.001131759461,0.0001671425894,-0.0009646168717,-0.003883093291,0.0001506685903,-0.003732424701,-0.0019028354,0.0003654989104,-0.001537336489,-0.002182807581,0.0002459059842,-0.001936901597,1.275180075e-05,-0.0003037658996,-0.0002910140989,-0.002219240492,-0.0004222030445,-0.002641443536,0.001039701658,-7.976897311e-05,0.0009599326851,0.001008269031,-0.0007215667315,0.0002867022992,-0.001979399923,-0.0003194287292,-0.002298828652,-0.002699323633,-0.0002534817028,-0.002952805336,-0.002573340471,-6.108738753e-05,-0.002634427859,-0.001902413518,1.324411269e-05,-0.001889169405,-0.000857288939,-6.566872877e-05,-0.0009229576677,0.0005447248953,3.828065198e-06,0.0005485529605,0.0002177020901,0.0001198497669,0.000337551857,-8.161032249e-05,0.0001540636768,7.245335431e-05,0.0004816411487,0.0008456412065,0.001327282355,0.001555857301,0.0001580180879,0.001713875389,-0.0009679458471,0.0001672825398,-0.0008006633073,-0.0009509412309,0.0005127922962,-0.0004381489346,-0.001393882986,-0.0004469979982,-0.001840880985,-0.001847782624,-0.0002407417126,-0.002088524336,-0.0006282805859,-0.0001713461048,-0.0007996266907,-0.003284791029,-6.646632955e-05,-0.003351257359,-0.002589357364,5.672315799e-05,-0.002532634206,-0.003225495481,0.0004294717998,-0.002796023681,-0.003476824842,0.0002235269467,-0.003253297895,-0.00319153127,0.0002552834017,-0.002936247868,-0.004326752188,0.0002003202314,-0.004126431957
18.2,-0.0007937385894,0.0007447286895,-4.900989997e-05,0.000602580416,-0.0004376242047,0.0001649562113,-0.001470107644,0.0005132151174,-0.000956892527,-0.001636958917,0.0003372085236,-0.001299750393,-0.002698006002,0.0009693597029,-0.001728646299,-0.001223847027,-1.725612408e-05,-0.001241103151,-0.002191974237,0.000345998195,-0.001845976042,-0.001170424315,0.0001707045785,-0.0009997197366,-0.00390845118,0.0001562933823,-0.003752157797,-0.001929582671,0.0003650616605,-0.00156452101,-0.002203624919,0.0002540532577,-0.001949571661,-3.671634682e-05,-0.0002967481899,-0.0003334645367,-0.002327921378,-0.0004319155887,-0.002759836967,0.0009707304998,-7.920352261e-05,0.0008915269772,0.0008426320204,-0.0007051086253,0.000137523395,-0.00210094942,-0.0003162624524,-0.002417211872,-0.002834057764,-0.0002378366866,-0.00307189445,-0.002663192459,-5.011686456e-05,-0.002713309323,-0.001972084375,2.269091153e-05,-0.001949393464,-0.0008707103687,-5.576601994e-05,-0.0009264763886,0.0005273900769,9.994302454e-06,0.0005373843794,0.0001870028746,0.000131024071,0.0003180269456,-8.487506394e-05,0.0001616753642,7.680030025e-05,0.0004721763641,0.0008442413674,0.001316417732,0.001477049668,0.0001621023411,0.001639152009,-0.001012764727,0.0001683528437,-0.0008444118835,-0.001058400693,0.0004771125168,-0.0005812881764,-0.001489552527,-0.0004436492289,-0.001933201756,-0.001945296208,-0.000234021492,-0.0021793177,-0.0007024056235,-0.000170256787,-0.0008726624105,-0.00341455282,-6.022923459e-05,-0.003474782055,-0.002681755655,6.480776757e-05,-0.002616947887,-0.003334643274,0.000438987327,-0.002895655947,-0.003556401365,0.0002249541773,-0.003331447188,-0.003268968174,0.0002509988717,-0.003017969302,-0.004399678953,0.0001924219117,-0.004207257041
18.3,-0.0007815050288,0.0007575311053,-2.397392352e-05,0.0005682204841,-0.0004253498024,0.0001428706817,-0.001485168302,0.0005276804195,-0.0009574878827,-0.001654236371,0.0003500517243,-0.001304184647,-0.002727075452,0.0009828619634,-0.001744213489,-0.001227832494,-9.216378029e-06,-0.001237048872,-0.002227318466,0.0003493941664,-0.001877924299,-0.001208355848,0.0001743365608,-0.001034019288,-0.003933249687,0.0001618200174,-0.00377142967,-0.001955632207,0.0003646060719,-0.001591026135,-0.00222379974,0.0002620701497,-0.00196172959,-8.51124532e-05,-0.0002887499684,-0.0003738624216,-0.002434472942,-0.0004390901879,-0.00287356313,0.000902779427,-7.864617322e-05,0.0008241332538,0.0006796991196,-0.0006890958994,-9.396779759e-06,-0.00222043475,-0.0003124233952,-0.002532858145,-0.002965546338,-0.0002216401596,-0.003187186498,-0.002748406652,-3.928597088e-05,-0.002787692623,-0.002038517822,3.192588305e-05,-0.002006591939,-0.0008831875942,-4.592326896e-05,-0.0009291108632,0.0005100732466,1.609410456e-05,0.0005261673512,0.000156408589,0.0001419540563,0.0002983626453,-8.813699235e-05,0.0001692196629,8.108267059e-05,0.0004629589422,0.0008429286061,0.001305887548,0.001398445521,0.0001659507328,0.001564396254,-0.001056754419,0.0001698100958,-0.0008869443236,-0.001163165992,0.0004424204618,-0.0007207455301,-0.001583127734,-0.000439312476,-0.002022440211,-0.002040188544,-0.0002271457926,-0.002267334337,-0.0007736738249,-0.0001688324193,-0.0009425062443,-0.003541316262,-5.425836793e-05,-0.00359557463,-0.002770864359,7.312770414e-05,-0.002697736655,-0.003439676574,0.0004478410675,-0.002991835507,-0.00363082425,0.0002260446988,-0.003404779551,-0.003343905522,0.0002474753754,-0.003096430147,-0.004468892739,0.0001852535918,-0.004283639147
18.4,-0.0007694067878,0.0007703302539,9.23466069e-07,0.0005344220094,-0.0004128429921,0.0001215790173,-0.001500898245,0.0005417251614,-0.0009591730839,-0.001671433481,0.0003628568982,-0.001308576583,-0.002754672081,0.0009959121152,-0.001758759965,-0.001231020406,-1.056434117e-06,-0.00123207684,-0.002261652134,0.0003530063715,-0.001908645763,-0.001245454595,0.0001780295283,-0.001067425067,-0.003957506052,0.0001672367902,-0.003790269262,-0.001980944555,0.0003641378879,-0.001616806668,-0.002243350162,0.0002699350791,-0.001973415083,-0.0001323870012,-0.0002797910345,-0.0004121780356,-0.002538684168,-0.0004436682181,-0.002982352386,0.0008360498495,-7.812992318e-05,0.0007579199264,0.0005199976308,-0.0006736746065,-0.0001536769757,-0.002337676291,-0.0003079084146,-0.002645584706,-0.003093456292,-0.0002051510159,-0.003298607308,-0.002829,-2.85573381e-05,-0.002857557338,-0.002101693029,4.087206292e-05,-0.002060820966,-0.000894739727,-3.615710478e-05,-0.0009308968318,0.000492788043,2.211092551e-05,0.0005148989685,0.0001259357511,0.0001526181621,0.0002785539131,-9.143702062e-05,0.0001766845972,8.524757655e-05,0.000454011739,0.0008417097452,0.001295721484,0.001320387816,0.0001695204598,0.001489908276,-0.001099817145,0.0001716555281,-0.000928161617,-0.001265208379,0.0004090249958,-0.0008561833828,-0.00167438396,-0.0004340224038,-0.002108406364,-0.002132321545,-0.0002201396096,-0.002352461155,-0.0008420699172,-0.0001670575865,-0.001009127504,-0.003664795129,-4.856547733e-05,-0.003713360606,-0.002856529088,8.163456905e-05,-0.002774894519,-0.003540326065,0.0004559051616,-0.003084420903,-0.003700091586,0.0002267946957,-0.00347329689,-0.003416273857,0.0002447823709,-0.003171491486,-0.004534319101,0.000178789433,-0.004355529668
18.5,-0.0007575159874,0.0007830902412,2.557425385e-05,0.0005011631084,-0.0004001230869,0.0001010400214,-0.001517323464,0.0005553453455,-0.0009619781188,-0.00168864638,0.0003755878128,-0.001313058567,-0.002780820906,0.00100849749,-0.001772323416,-0.001233491131,7.213927683e-06,-0.001226277203,-0.00229494066,0.0003568344289,-0.001938106231,-0.001281626049,0.0001817747122,-0.001099851337,-0.003981232862,0.0001725338534,-0.003808699009,-0.002005484346,0.0003636628156,-0.00164182153,-0.00226229447,0.0002776261946,-0.001984668275,-0.0001784785099,-0.0002699091795,-0.0004483876894,-0.002640355256,-0.0004456166364,-0.003085971892,0.0007707317683,-7.768434291e-05,0.0006930474254,0.0003640109433,-0.0006589766509,-0.0002949657076,-0.002452501277,-0.0003027209814,-0.002755222258,-0.003217496241,-0.0001886102637,-0.003406106504,-0.002904995529,-1.789854784e-05,-0.002922894077,-0.002161605486,4.946795987e-05,-0.002112137527,-0.0009053876307,-2.648226213e-05,-0.0009318698928,0.0004755494879,2.802902102e-05,0.000503578509,9.560383649e-05,0.0001629961825,0.000258600019,-9.481753474e-05,0.0001840602949,8.924276019e-05,0.0004453430764,0.000840590385,0.001285933461,0.001243211475,0.0001727810459,0.001415992521,-0.001141861749,0.0001738840048,-0.000967977744,-0.00136451203,0.0003772149522,-0.0009872970776,-0.001763092519,-0.0004278367695,-0.002190929289,-0.002221577726,-0.0002130281404,-0.002434605866,-0.0009075913857,-0.000164927867,-0.001072519253,-0.003784732136,-4.315395004e-05,-0.003827886086,-0.002938616467,9.027768986e-05,-0.002848338777,-0.003636356961,0.0004630725762,-0.003173284384,-0.003764240969,0.0002272086115,-0.003537032357,-0.003486015338,0.0002429834122,-0.003243031926,-0.004595887802,0.0001729886607,-0.004422899142
18.6,-0.0007459025793,0.000795774553,4.987197373e-05,0.0004684198523,-0.0003872099849,8.120986738e-05,-0.001534474411,0.0005685376792,-0.0009659367315,-0.00170597541,0.000388207998,-0.001317767413,-0.00280555445,0.001020607768,-0.001784946683,-0.001235324446,1.558519318e-05,-0.001219739253,-0.002327157406,0.0003608775041,-0.001966279902,-0.001316782053,0.0001855641634,-0.00113121789,-0.004004443575,0.0001777036507,-0.003826739924,-0.002029225073,0.0003631866051,-0.001666038468,-0.002280655379,0.0002851218686,-0.00199553351,-0.0002233194292,-0.0002591580266,-0.0004824774557,-0.002739301541,-0.0004449293627,-0.003184230904,0.0007069994325,-7.733477837e-05,0.0006296646541,0.0002121723801,-0.0006451191507,-0.0004329467707,-0.002564745815,-0.0002968714994,-0.002861617314,-0.003337418386,-0.0001722358271,-0.003509654213,-0.002976426302,-7.283688076e-06,-0.00298370999,-0.002218269156,5.766724905e-05,-0.002160601907,-0.0009151553502,-1.691144393e-05,-0.0009320667942,0.0004583707665,3.383352456e-05,0.0004922042911,6.543242794e-05,0.0001730696459,0.0002385020739,-9.832468134e-05,0.0001913389495,9.301426816e-05,0.0004369457742,0.0008395752637,0.001276521038,0.001167234511,0.0001757155352,0.001342950046,-0.001182808582,0.0001764843868,-0.001006324195,-0.001461074375,0.0003472550267,-0.001113819348,-0.001849029985,-0.000420834925,-0.00226986491,-0.002307863222,-0.0002058363803,-0.002513699602,-0.0009702499238,-0.0001624492887,-0.001132699212,-0.003900901543,-3.801964941e-05,-0.003938921193,-0.003017015955,9.900478094e-05,-0.002918011174,-0.0037275749,0.0004692600666,-0.003258314833,-0.003823348491,0.0002272984046,-0.003596050086,-0.003553084842,0.0002421338908,-0.003310950951,-0.004653533491,0.0001677937993,-0.004485739691
18.7,-0.0007346348743,0.0008083462732,7.371139884e-05,0.0004361647724,-0.0003741242936,6.204047882e-05,-0.00155238634,0.0005812994554,-0.0009710868842,-0.001723523415,0.0004006812881,-0.001322842127,-0.002828915158,0.001032235058,-0.0017966801,-0.001236599818,2.404804574e-05,-0.001212551773,-0.00235828659,0.0003651343677,-0.001993152222,-0.001350841769,0.0001893911964,-0.001161450573,-0.004027154342,0.0001827412702,-0.003844413071,-0.002052150734,0.0003627151759,-0.001689435558,-0.002298461277,0.0002924011983,-0.002006060078,-0.0002668397055,-0.000247605229,-0.0005144449345,-0.002835355874,-0.0004416284653,-0.003276984339,0.000645008776,-7.710170295e-05,0.000567907073,6.486127369e-05,-0.000632203944,-0.0005673426703,-0.002674255643,-0.0002903777347,-0.002964633378,-0.003453018952,-0.0001562174256,-0.003609236378,-0.003043337945,3.305616438e-06,-0.003040032328,-0.002271716205,6.543760358e-05,-0.002206278601,-0.0009240707587,-7.45534235e-06,-0.000931526101,0.0004412613545,3.951043853e-05,0.000480771793,3.543975536e-05,0.0001828223117,0.000218262067,-0.0001020081363,0.0001985148175,9.650668116e-05,0.0004287980361,0.0008386684008,0.001267466437,0.001092751208,0.0001783205531,0.001271071761,-0.001222592157,0.0001794401338,-0.001043152023,-0.001554905872,0.0003193827818,-0.00123552309,-0.001931986374,-0.0004131151092,-0.002345101483,-0.002391106886,-0.000198589004,-0.00258969589,-0.001030069783,-0.0001596372323,-0.001189707015,-0.004013109528,-3.31521056e-05,-0.004046261634,-0.003091639448,0.0001077624091,-0.002983877039,-0.003813830677,0.0004744112657,-0.003339419412,-0.003877526586,0.0002270831114,-0.003650443475,-0.003617448743,0.0002422778052,-0.003375170937,-0.004707193067,0.0001631278806,-0.004544065187
18.8,-0.0007237789964,0.0008207684365,9.698944013e-05,0.0004043668898,-0.0003608874562,4.34794336e-05,-0.001571097624,0.0005936285032,-0.0009774691208,-0.00174139269,0.00041297236,-0.00132842033,-0.002850953829,0.001043374,-0.001807579829,-0.001237395384,3.259328023e-05,-0.001204802104,-0.002388321762,0.000369603402,-0.00201871836,-0.001383731876,0.0001932505806,-0.001190481296,-0.004049380688,0.0001876445661,-0.003861736122,-0.002074253045,0.0003622546643,-0.001711998381,-0.002315743133,0.0002994443949,-0.002016298739,-0.0003089669895,-0.0002353310282,-0.0005442980177,-0.002928368472,-0.000435765075,-0.003364133547,0.0005848977802,-7.70003603e-05,0.0005078974199,-7.759757855e-05,-0.0006203173298,-0.0006979149083,-0.00278088487,-0.0002832652243,-0.003064150094,-0.003564136245,-0.0001407124498,-0.003704848695,-0.003105787821,1.387976747e-05,-0.003091908053,-0.002321993323,7.275902066e-05,-0.002249234303,-0.000932164825,1.877066468e-06,-0.0009302877585,0.0004242272746,4.504646694e-05,0.0004692737415,5.643571917e-06,0.000192240554,0.0001978841259,-0.0001059178736,0.0002055842772,9.966640364e-05,0.0004208665261,0.0008378731055,0.001258739632,0.001020028998,0.0001806054998,0.001200634498,-0.00126115993,0.0001827301147,-0.001078429815,-0.00164602646,0.0002938060316,-0.001352220428,-0.002011769552,-0.0004047909221,-0.002416560474,-0.002471254877,-0.000191310476,-0.002662565353,-0.001087082373,-0.0001565148519,-0.001243597225,-0.004121191711,-2.853594811e-05,-0.004149727659,-0.003162417914,0.0001164961906,-0.003045921724,-0.003895022014,0.000478499231,-0.003416522783,-0.003926919674,0.0002265883471,-0.003700331327,-0.003679080891,0.0002434439944,-0.003435636896,-0.004756800688,0.0001588923095,-0.004597908379
18.9,-0.0007133969135,0.0008330044905,0.000119607577,0.0003729938356,-0.000347521859,2.547197654e-05,-0.001590645846,0.0006055231721,-0.0009851226735,-0.001759680405,0.0004250472034,-0.001334633202,-0.002871723729,0.001054021813,-0.001817701915,-0.001237785339,4.121162795e-05,-0.001196573711,-0.002417259891,0.0003742825082,-0.002042977382,-0.001415385842,0.0001971384103,-0.001218247431,-0.004071129748,0.000192413988,-0.00387871576,-0.00209552466,0.0003618113027,-0.001733713357,-0.002332527567,0.0003062329944,-0.002026294572,-0.0003496234182,-0.0002224270185,-0.0005720504368,-0.003018203685,-0.0004274198734,-0.003445623558,0.0005267897289,-7.704052613e-05,0.0004497492027,-0.0002149307965,-0.0006095299465,-0.0008244607429,-0.002884492556,-0.0002755676255,-0.003160060181,-0.003670645203,-0.0001258440021,-0.003796489206,-0.003163840234,2.444143161e-05,-0.003139398803,-0.002369154715,7.962226854e-05,-0.002289532447,-0.0009394695241,1.107803682e-05,-0.0009283914873,0.0004072733937,5.042878981e-05,0.0004577021835,-2.393580066e-05,0.0002013135487,0.0001773777481,-0.0001100988385,0.000212545896,0.0001024470575,0.0004131111412,0.000837191995,0.001250303136,0.0009493097609,0.0001825909821,0.001131900743,-0.001298466996,0.0001863297075,-0.001112137288,-0.001734456738,0.000270699786,-0.001463756952,-0.00208820466,-0.0003959875931,-0.002484192253,-0.0025482622,-0.0001840252089,-0.002732287408,-0.00114131819,-0.0001531112562,-0.001294429446,-0.00422500823,-2.415234339e-05,-0.004249160574,-0.003229295816,0.0001251509329,-0.003104144883,-0.003971090649,0.0004815271015,-0.003489563547,-0.003971697033,0.000225845426,-0.003745851607,-0.003737956641,0.000245642954,-0.003492313687,-0.004802283256,0.0001549681137,-0.004647315143
19.0,-0.00070354334,0.0008450187755,0.0001414754355,0.0003420157702,-0.0003340510026,7.964767585e-06,-0.001611062372,0.0006169822793,-0.0009940800922,-0.001778472948,0.0004368734588,-0.001341599489,-0.002891272166,0.001064178234,-0.001827093932,-0.001237836173,4.989348387e-05,-0.001187942689,-0.00244509328,0.0003791689222,-0.002065924358,-0.001445742549,0.0002010517412,-0.001244690808,-0.004092391194,0.0001970522127,-0.003895338981,-0.002115950864,0.0003613911389,-0.001754559725,-0.002348828532,0.0003127499232,-0.002036078609,-0.0003887203664,-0.000208994945,-0.0005977153114,-0.003104734706,-0.0004167028332,-0.003521437539,0.0004707979083,-7.722596992e-05,0.0003935719383,-0.0003469105222,-0.0005998970651,-0.0009468075873,-0.002984938083,-0.0002673269493,-0.003252265032,-0.003772449086,-0.0001117013916,-0.003884150478,-0.003217559071,3.49862274e-05,-0.003182572844,-0.002413253319,8.602778692e-05,-0.002327225533,-0.00094601501,2.014050494e-05,-0.000925874505,0.0003904067718,5.564491481e-05,0.0004460516866,-5.327157299e-05,0.000210033288,0.000156761715,-0.0001145854584,0.0002194003551,0.0001048148968,0.000405490243,0.0008366271015,0.001242117344,0.0008808147527,0.000184306662,0.001065121415,-0.00133446844,0.000190212205,-0.001144256235,-0.001820204546,0.0002502029672,-0.001570001579,-0.002161129991,-0.0003868385792,-0.00254796857,-0.002622084099,-0.0001767577117,-0.002798841811,-0.001192798678,-0.00014945976,-0.001342258438,-0.004324437799,-1.998023111e-05,-0.004344418031,-0.003292225072,0.0001336709102,-0.003158554162,-0.004042015135,0.0004835260016,-0.003558489134,-0.004012043654,0.0002248901004,-0.003787153554,-0.003794046788,0.0002488651351,-0.003545181653,-0.004843559593,0.0001512224532,-0.00469233714
19.1,-0.0006942623809,0.0008567769084,0.0001625145275,0.0003114099646,-0.0003204998225,-9.08985793e-06,-0.001632366816,0.0006280050227,-0.001004361793,-0.001797840268,0.0004484206391,-0.001349419629,-0.002909632653,0.001073845306,-0.001835787347,-0.001237602821,5.862860672e-05,-0.001178974215,-0.002471802661,0.0003842590272,-0.002087543634,-0.00147474488,0.0002049882162,-0.001269756664,-0.004113130651,0.0002015637439,-0.003911566907,-0.002135503023,0.000360999677,-0.001774503346,-0.002364640786,0.0003189794995,-0.002045661287,-0.0004261539242,-0.0001951454594,-0.0006212993836,-0.003187838636,-0.0004037520362,-0.003591590672,0.0004170296115,-7.755334105e-05,0.0003394762705,-0.0004733476089,-0.0005914595842,-0.001064807193,-0.003082076984,-0.0002585935236,-0.003340670507,-0.003869471149,-9.834219422e-05,-0.003967813343,-0.003267000583,4.550337816e-05,-0.003221497205,-0.00245433295,9.198503005e-05,-0.00236234792,-0.00095182688,2.905750392e-05,-0.0009227693761,0.0003736397723,6.068260668e-05,0.000434322379,-8.232734324e-05,0.0002183943993,0.000136067056,-0.000119397823,0.0002261501238,0.0001067523008,0.0003979649799,0.0008361800316,0.001234145011,0.0008147508732,0.0001857890676,0.001000539941,-0.001369112263,0.0001943503767,-0.001174761887,-0.001903249984,0.0002324158314,-0.001670834153,-0.002230392394,-0.0003774827525,-0.002607875146,-0.00269266994,-0.0001695327995,-0.00286220274,-0.001241530738,-0.0001455963778,-0.001387127116,-0.004419372346,-1.599737274e-05,-0.004435369719,-0.003351160294,0.0001420002683,-0.003209160026,-0.00410780198,0.0004845507151,-0.003623251265,-0.004048150883,0.000223761045,-0.003824389838,-0.003847313373,0.0002530809443,-0.003594232429,-0.004880544716,0.0001475197531,-0.004733024963
19.2,-0.0006855849431,0.0008682460426,0.0001826610995,0.0002811646478,-0.0003068950891,-2.57304413e-05,-0.001654562727,0.0006385909485,-0.001015971778,-0.001817831324,0.0004596603403,-0.001358170984,-0.002926820249,0.001083027109,-0.00184379314,-0.001237125792,6.740587991e-05,-0.001169719912,-0.002497353915,0.0003895482483,-0.002107805667,-0.00150233878,0.0002089458793,-0.001293392901,-0.004133287997,0.0002059545645,-0.003927333433,-0.002154136007,0.0003606415142,-0.001793494493,-0.002379937239,0.0003249074056,-0.002055029833,-0.0004618039467,-0.0001809965463,-0.0006428004929,-0.003267393731,-0.0003887318038,-0.003656125535,0.0003655877934,-7.801058084e-05,0.0002875772126,-0.0005940858512,-0.0005842453547,-0.001178331206,-0.003175758681,-0.0002494254895,-0.003425184171,-0.003961649447,-8.579457213e-05,-0.004047444019,-0.003312208673,5.597606108e-05,-0.003256232612,-0.00249242377,9.751225966e-05,-0.00239491151,-0.0009569242041,3.782153347e-05,-0.0009191026706,0.0003569919603,6.552980571e-05,0.000422521766,-0.000111055794,0.000226393712,0.000115337918,-0.00012454052,0.0002327989345,0.0001082584145,0.0003905017987,0.0008358521274,0.001226353926,0.0007513153344,0.0001870800883,0.0009383954227,-0.001402335285,0.0001987179131,-0.001203617372,-0.001983532359,0.0002173986297,-0.001766133729,-0.002295845103,-0.0003680619512,-0.002663907054,-0.002759960961,-0.0001623758056,-0.002922336766,-0.001287505225,-0.0001415586677,-0.001429063893,-0.004509713297,-1.218141147e-05,-0.004521894709,-0.003406056306,0.0001500835102,-0.003255972796,-0.004168478066,0.0004846746103,-0.003683803455,-0.004080208493,0.0002224982277,-0.003857710266,-0.003897708677,0.0002582422217,-0.003639466455,-0.004913158212,0.0001437345476,-0.004769423665
19.3,-0.0006775276545,0.0008793950909,0.0002018674364,0.000251281087,-0.0002932656774,-4.19845904e-05,-0.001677635236,0.0006487400522,-0.001028895184,-0.001838471389,0.0004705665358,-0.001367904854,-0.002942831165,0.001091729504,-0.001851101661,-0.001236429918,7.621317854e-05,-0.00116021674,-0.002521699176,0.0003950310489,-0.002126668127,-0.001528473025,0.0002129232363,-0.001315549789,-0.004152780905,0.0002102318415,-0.003942549064,-0.002171790039,0.0003603200274,-0.001811470011,-0.002394670732,0.0003305206387,-0.002064150093,-0.0004955377472,-0.0001666713548,-0.000662209102,-0.003343279204,-0.0003718305179,-0.003715109722,0.0003165698835,-7.857526351e-05,0.00023799462,-0.0007089983779,-0.0005782703718,-0.00128726875,-0.003265826921,-0.0002398876724,-0.003505714594,-0.004048936481,-7.405890248e-05,-0.004122995384,-0.003353213766,6.63815739e-05,-0.003286832192,-0.002527542073,0.0001026367401,-0.002424905333,-0.0009613187496,4.642398975e-05,-0.0009148947598,0.000340490318,7.017453923e-05,0.0004106648572,-0.0001393996385,0.0002340296549,9.46300164e-05,-0.0001300042209,0.0002393512246,0.0001093470038,0.000383072883,0.0008356446362,0.001218717519,0.0006906965716,0.0001882266242,0.0008789231958,-0.001434063007,0.0002032904769,-0.00123077253,-0.002060941569,0.0002051714307,-0.001855770138,-0.002357349535,-0.0003587181789,-0.002716067714,-0.002823892102,-0.0001553125024,-0.002979204604,-0.001330699429,-0.00013738495,-0.001468084379,-0.004595369941,-8.511061173e-06,-0.004603881002,-0.003456868205,0.0001578660987,-0.003299002106,-0.004224085908,0.0004839850626,-0.003740100845,-0.004108399023,0.0002211413641,-0.003887257659,-0.003945177439,0.0002642846927,-0.003680892747,-0.004941334303,0.000139762898,-0.004801571405
19.4,-0.0006700935015,0.0008901949582,0.0002201014567,0.000221773499,-0.00027964255,-5.786905095e-05,-0.001701550791,0.0006584529847,-0.001043097807,-0.001859761419,0.0004811159447,-0.001378645475,-0.002957646369,0.001099959916,-0.001857686453,-0.001235524903,8.503733831e-05,-0.001150487564,-0.002544781703,0.0004007009968,-0.002144080706,-0.001553099655,0.0002169195038,-0.001336180151,-0.0041715126,0.0002144036928,-0.003957108907,-0.002188396152,0.0003600371756,-0.001828358976,-0.002408779579,0.0003358074711,-0.002072972108,-0.0005272170396,-0.0001522959618,-0.0006795130015,-0.003415377045,-0.0003532583411,-0.003768635386,0.0002700641084,-7.921328067e-05,0.0001908508277,-0.0008179864192,-0.0005735399153,-0.001391526334,-0.00335212293,-0.0002300498607,-0.003582172791,-0.004131303048,-6.310868822e-05,-0.004194411737,-0.003390035214,7.66915414e-05,-0.003313343672,-0.002559693845,0.0001073949116,-0.002452298934,-0.0009650155693,5.485486153e-05,-0.0009101607078,0.0003241677558,7.460495503e-05,0.0003987727108,-0.0001672947032,0.0002413017223,7.400701913e-05,-0.0001357694543,0.0002458116831,0.0001100422288,0.0003756548004,0.0008355588963,0.001211213697,0.0006330708329,0.0001892814851,0.000822352318,-0.001464213168,0.0002080462496,-0.001256166918,-0.002135315328,0.0001957150035,-0.001939600325,-0.002414781187,-0.0003495898584,-0.002764371045,-0.002884397232,-0.0001483684911,-0.003032765723,-0.001371082763,-0.0001331136213,-0.001504196384,-0.004676259896,-4.967284616e-06,-0.004681227181,-0.00350355372,0.0001652952698,-0.00333825845,-0.004274681799,0.0004825797581,-0.003792102041,-0.004132894525,0.0002197285615,-0.003913165964,-0.003989661267,0.0002711306809,-0.003718530586,-0.004965031206,0.0001355305557,-0.00482950065
19.5,-0.000663273913,0.0009006187122,0.0002373447992,0.0001926669945,-0.0002660584593,-7.339146481e-05,-0.001726258672,0.000667731274,-0.001058527398,-0.001881679328,0.0004912883948,-0.001390390933,-0.002971238079,0.001107727114,-0.001863510965,-0.001234407433,9.386421464e-05,-0.001140543218,-0.00256654319,0.0004065508864,-0.002159992304,-0.001576174934,0.0002209349606,-0.001355239973,-0.004189382147,0.0002184790602,-0.003970903087,-0.002203883847,0.0003597934922,-0.001844090354,-0.002422195563,0.000340757482,-0.002081438081,-0.0005567057325,-0.0001379979576,-0.0006947036901,-0.003483575143,-0.0003332449152,-0.003816820058,0.0002261438852,-7.98779849e-05,0.0001462659003,-0.0009209801741,-0.0005700497613,-0.001491029935,-0.003434490672,-0.000219984731,-0.003654475403,-0.004208743877,-5.289167272e-05,-0.00426163555,-0.003422686555,8.687220666e-05,-0.003335814349,-0.00258888081,0.0001118320559,-0.002477048755,-0.000968014783,6.310280445e-05,-0.0009049119786,0.0003080603126,7.880956042e-05,0.000386869873,-0.0001946745804,0.0002482102059,5.353562542e-05,-0.000141811581,0.0002521849334,0.0001103733524,0.0003682259985,0.0008355964859,0.001203822484,0.0005785952541,0.0001903053179,0.000768900572,-0.001492701912,0.0002129659947,-0.001279735918,-0.002206442689,0.0001889727525,-0.002017469937,-0.0024680384,-0.0003408073681,-0.002808845768,-0.002941416306,-0.0001415681528,-0.003082984459,-0.001408624498,-0.0001287821745,-0.001537406672,-0.004752311351,-1.534185013e-06,-0.004753845536,-0.003546077295,0.0001723211312,-0.003373756163,-0.004320336053,0.0004805636917,-0.003839772361,-0.00415385553,0.0002182951017,-0.003935560428,-0.004031103989,0.0002786915865,-0.003752412403,-0.004984237892,0.0001309971931,-0.004853240698
19.6,-0.0006570518141,0.0009106416406,0.0002535898265,0.000163994187,-0.0002525475003,-8.85533133e-05,-0.001751693783,0.0006765775098,-0.001075116273,-0.001904182748,0.0005010671254,-0.001403115623,-0.002983577634,0.001115041003,-0.001868536631,-0.00123306439,0.0001026788475,-0.001130385542,-0.002586931828,0.0004125729212,-0.002174358907,-0.001597660624,0.0002249713177,-0.001372689307,-0.004206295234,0.000222467685,-0.003983827549,-0.002218189245,0.0003595882826,-0.001858600963,-0.002434852684,0.0003453616817,-0.002089491003,-0.0005838771615,-0.0001239058722,-0.0007077830337,-0.003547771033,-0.0003120368593,-0.003859807892,0.000184861142,-8.050971728e-05,0.0001043514247,-0.001017940973,-0.0005677872042,-0.001585728178,-0.003512783294,-0.0002097656342,-0.003722548928,-0.004281282334,-4.333229123e-05,-0.004324614625,-0.003451182433,9.688475234e-05,-0.003354297681,-0.002615107598,0.0001160014374,-0.002499106161,-0.0009703140151,7.11554793e-05,-0.0008991585358,0.0002922038021,8.277758415e-05,0.0003749813862,-0.0002214758586,0.0002547561753,3.328031674e-05,-0.0001481057898,0.0002584753325,0.0001103695427,0.0003607639822,0.0008357592541,0.001196523236,0.0005273988606,0.0001913689555,0.000718767816,-0.001519450958,0.0002180326401,-0.001301418318,-0.002274073244,0.0001848534795,-0.002089219765,-0.002517051783,-0.0003324886751,-0.002849540459,-0.002994902535,-0.0001349334486,-0.003129835983,-0.001443301847,-0.0001244258697,-0.001567727717,-0.004823466314,1.800577746e-06,-0.004821665736,-0.003584415019,0.0001788979937,-0.003405517025,-0.004361134081,0.0004780464501,-0.003883087631,-0.004171431697,0.0002168724076,-0.003954559289,-0.004069457151,0.000286870212,-0.003782586939,-0.004998977209,0.0001261567701,-0.004872820439
19.7,-0.0006514051244,0.000920241278,0.0002688361536,0.0001357913569,-0.0002391446632,-0.0001033533063,-0.001777780059,0.0006849954988,-0.001092784561,-0.001927212679,0.0005104390231,-0.001416773656,-0.002994642902,0.001121912452,-0.001872730451,-0.00123147645,0.0001114657321,-0.001120010717,-0.002605909194,0.0004187589433,-0.002187150251,-0.001617525326,0.0002290320092,-0.001388493317,-0.004222173155,0.000226380081,-0.003995793074,-0.002231261872,0.0003594199508,-0.001871841921,-0.002446694709,0.0003496126628,-0.002097082046,-0.000608620261,-0.0001101486515,-0.0007187689125,-0.003607875552,-0.0002898944836,-0.003897770036,0.0001462401522,-8.103585935e-05,6.520429281e-05,-0.001108863416,-0.0005667315069,-0.001675594923,-0.003586869656,-0.0001994643927,-0.003786334049,-0.004348971999,-3.43362476e-05,-0.004383308247,-0.003475545538,0.0001066857894,-0.003368859748,-0.002638388478,0.0001199631644,-0.002518425314,-0.00097191075,7.899994197e-05,-0.0008929108081,0.0002766308747,8.649931966e-05,0.0003631301943,-0.0002476427026,0.0002609415752,1.329887255e-05,-0.0001546308803,0.000264686911,0.0001100560307,0.0003532430545,0.0008360492027,0.001189292257,0.0004795731202,0.0001925554536,0.0006721285737,-0.00154439398,0.0002232304364,-0.001321163544,-0.002337930098,0.0001832344904,-0.002154695608,-0.002561791792,-0.0003247355965,-0.002886527388,-0.003044827586,-0.0001284827919,-0.003173310378,-0.001475106277,-0.0001200763373,-0.001595182614,-0.004889683819,5.045871786e-06,-0.004884637947,-0.003618559149,0.0001849856922,-0.003433573457,-0.004397176771,0.000475139255,-0.003922037516,-0.004185763461,0.0002154874894,-0.003970275972,-0.004104684928,0.0002955632567,-0.003809121671,-0.005009305589,0.0001210348806,-0.004888270709
19.8,-0.0006463100496,0.0009293975098,0.0002830874602,0.0001080951522,-0.0002258854425,-0.0001177902903,-0.001804433667,0.0006929903855,-0.001111443282,-0.001950697239,0.0005193947691,-0.00143130247,-0.003004423283,0.001128353193,-0.001876070091,-0.001229621232,0.0001202091198,-0.001109412112,-0.002623454039,0.0004251006474,-0.002198353392,-0.001635745513,0.0002331222768,-0.001402623236,-0.004236957788,0.0002302273699,-0.004006730419,-0.002243068197,0.0003592863381,-0.001883781859,-0.002457679596,0.0003535046921,-0.002104174904,-0.0006308437382,-9.685467702e-05,-0.0007276984152,-0.003663815528,-0.0002670871922,-0.003930902721,0.0001102738223,-8.137176318e-05,2.89020591e-05,-0.00119377632,-0.0005668535895,-0.001760629909,-0.003656639517,-0.0001891493547,-0.003845788872,-0.004411893679,-2.579739448e-05,-0.004437691074,-0.003495811702,0.0001162283451,-0.003379583357,-0.002658751908,0.0001237827799,-0.002534969128,-0.0009728039227,8.66229943e-05,-0.0008861809284,0.0002613694225,8.996642395e-05,0.0003513358464,-0.0002731297004,0.0002667693745,-6.360325885e-06,-0.000161370801,0.0002708235096,0.0001094527085,0.0003456333896,0.0008364682606,0.00118210165,0.0004351639361,0.0001939614681,0.0006291254042,-0.001567480495,0.0002285439171,-0.001338936578,-0.002397723863,0.0001839645953,-0.002213759268,-0.002602272213,-0.0003176307435,-0.002919902956,-0.003091183128,-0.0001222302143,-0.003213413342,-0.00150404612,-0.000115760391,-0.001619806511,-0.004950941913,8.207568013e-06,-0.004942734345,-0.003648520872,0.0001905506013,-0.003457970271,-0.004428578923,0.0004719514929,-0.00395662743,-0.004196983901,0.0002141631099,-0.003982820791,-0.004136767379,0.000304664006,-0.003832103373,-0.005015310492,0.0001156843795,-0.004899626112
19.9,-0.0006417434141,0.0009380927252,0.0002963493111,8.094066565e-05,-0.0002128054666,-0.0001318648009,-0.001831565241,0.0007005686654,-0.001130996576,-0.001974554771,0.0005279288299,-0.001446625941,-0.00301292079,0.001134375732,-0.001878545059,-0.001227475204,0.0001288932318,-0.001098581973,-0.002639561616,0.000431589705,-0.002207971911,-0.001652305931,0.0002372489333,-0.001415056998,-0.004250611341,0.0002340209279,-0.004016590413,-0.002253590871,0.0003591850095,-0.001894405862,-0.002467779718,0.0003570337135,-0.002110746004,-0.0006504770663,-8.415034783e-05,-0.0007346274141,-0.003715534731,-0.0002438877427,-0.003959422474,7.692376253e-05,-8.142277029e-05,-4.499007761e-06,-0.001272741819,-0.0005681153394,-0.001840857158,-0.003722005949,-0.0001788840371,-0.003900889986,-0.004470148058,-1.760599324e-05,-0.004487754051,-0.003512031527,0.0001254634743,-0.003386568052,-0.002676241417,0.0001275293954,-0.002548712021,-0.0009729943687,9.401153708e-05,-0.0008789828316,0.000246442832,9.317224875e-05,0.0003396150808,-0.0002979024451,0.0002722437687,-2.565867636e-05,-0.0001683137276,0.0002768890494,0.0001085753219,0.0003379017523,0.0008370180211,0.001174919773,0.0003941673859,0.0001956977534,0.0005898651393,-0.001588675991,0.000233956879,-0.001354719112,-0.002453165271,0.0001868669679,-0.002266298303,-0.002638548423,-0.0003112351751,-0.002949783598,-0.003133978126,-0.0001161851455,-0.003250163271,-0.001530144952,-0.0001114992018,-0.001641644154,-0.005007237576,1.128917256e-05,-0.004995948404,-0.003674330525,0.0001955662408,-0.003478764284,-0.00445546522,0.0004685869014,-0.003986878318,-0.00420521994,0.0002129184346,-0.003992301505,-0.004165701195,0.0003140650585,-0.003851636136,-0.005017106706,0.0001101804034,-0.004906926303
20.0,-0.0006376835986,0.0009463118986,0.0003086283,5.436118653e-05,-0.000199940131,-0.0001455789444,-0.001859080892,0.0007077380328,-0.001151342859,-0.00199869591,0.0005360392468,-0.001462656663,-0.003020147223,0.001139993191,-0.001880154032,-0.001225014097,0.0001375023342,-0.001087511763,-0.002654238991,0.0004382177749,-0.002216021216,-0.001667199275,0.0002414198193,-0.001425779456,-0.00426311184,0.0002377719051,-0.004025339935,-0.002262824345,0.0003591134911,-0.001903710854,-0.002476978571,0.0003601973031,-0.002116781268,-0.0006674682892,-7.215828073e-05,-0.0007396265699,-0.003762992962,-0.0002205661658,-0.003983559127,4.612422249e-05,-8.108731631e-05,-3.496309382e-05,-0.001345852286,-0.0005704694372,-0.001916321723,-0.003782904592,-0.0001687265373,-0.00395163113,-0.004523846079,-9.656520021e-06,-0.004533502599,-0.003524268232,0.0001343421903,-0.003389926042,-0.002690912572,0.0001312733338,-0.002559639238,-0.0009724842166,0.0001011529204,-0.0008713312963,0.0002318718068,9.611220941e-05,0.0003279840162,-0.000321936211,0.0002773703783,-4.456583277e-05,-0.0001754496733,0.0002828877307,0.0001074380574,0.0003300133991,0.0008376995138,0.001167712913,0.0003565309943,0.0001978882037,0.000554419198,-0.001607958204,0.0002394513409,-0.001368506863,-0.002503975561,0.0001917425634,-0.002312232998,-0.002670711143,-0.0003055869704,-0.002976298113,-0.003173233245,-0.0001103530147,-0.00328358626,-0.001553437337,-0.0001073078877,-0.001660745225,-0.005058584588,1.429235123e-05,-0.005044292237,-0.00369603562,0.0002000135446,-0.003496022075,-0.004477964362,0.0004651398429,-0.004012824519,-0.004210592237,0.0002117695615,-0.003998822676,-0.004191498216,0.0003236610288,-0.003867837187,-0.005014832116,0.0001046154343,-0.004910216681
20.1,-0.0006341103636,0.000954042536,0.0003199321724,2.838912418e-05,-0.0001873242539,-0.0001589351297,-0.001886882511,0.0007145070965,-0.001172375415,-0.002023024881,0.0005437272672,-0.001479297614,-0.003026119352,0.001145219058,-0.001880900295,-0.001222212313,0.0001460207207,-0.001076191592,-0.002667498729,0.0004449764492,-0.00222252228,-0.001680425464,0.0002456431264,-0.001434782338,-0.004274447362,0.0002414907226,-0.00403295664,-0.002270769327,0.0003590694617,-0.001911699865,-0.002485266328,0.0003629946187,-0.002122271709,-0.0006817800518,-6.099521809e-05,-0.0007427752699,-0.003806164048,-0.0001973841839,-0.004003548232,1.778872887e-05,-8.026108976e-05,-6.247236088e-05,-0.001413225474,-0.0005738600736,-0.001987085548,-0.003839290719,-0.0001587295807,-0.0039980203,-0.004573099667,-1.853633359e-06,-0.004574953301,-0.003532593389,0.0001428172862,-0.003389776103,-0.002702827531,0.0001350835653,-0.002567743966,-0.0009712757242,0.0001080351726,-0.0008632405516,0.0002176767601,9.878406189e-05,0.000316460822,-0.0003452138583,0.0002821563426,-6.305751565e-05,-0.0001827683041,0.0002888240006,0.0001060556966,0.0003219341033,0.0008385130607,0.001160447164,0.0003221602246,0.0002006669447,0.0005228271694,-0.001625311293,0.0002450064035,-0.00138030489,-0.002549895192,0.00019837505,-0.002351520142,-0.002698878295,-0.0003007008858,-0.002999579181,-0.00320897504,-0.0001047364515,-0.003313711491,-0.001573964682,-0.0001031955267,-0.001677160209,-0.005105010387,1.721724988e-05,-0.005087793138,-0.003713697989,0.0002038808787,-0.00350981711,-0.004496203037,0.0004616921741,-0.004034510863,-0.004213214,0.0002107295176,-0.004002484483,-0.004214182933,0.0003333511624,-0.003880831771,-0.005008643264,9.909467866e-05,-0.004909548585
20.2,-0.0006310043816,0.0009612745481,0.0003302701665,3.057106283e-06,-0.00017499173,-0.0001719346237,-0.00191486826,0.0007208850782,-0.001193983181,-0.002047440671,0.0005509969251,-0.001496443746,-0.003030854769,0.00115006691,-0.001880787858,-0.001219042243,0.0001544326703,-0.001064609572,-0.002679353891,0.0004518571971,-0.002227496694,-0.001691991011,0.0002499268049,-0.001442064206,-0.004284612088,0.000245186617,-0.004039425471,-0.002277428805,0.0003590508766,-0.001918377928,-0.00249263675,0.0003654263355,-0.002127210415,-0.0006933857005,-5.076983742e-05,-0.0007441555379,-0.003845034078,-0.0001745905188,-0.004019624597,-8.182322523e-06,-7.884216926e-05,-8.702449179e-05,-0.001474999149,-0.000578223856,-0.002053223005,-0.003891135764,-0.0001489409141,-0.004040076678,-0.004618014148,5.88366238e-06,-0.004612130485,-0.00353708305,0.0001508448063,-0.003386238244,-0.002712049699,0.0001390253219,-0.002573024377,-0.0009693702508,0.0001146470348,-0.000854723216,0.0002038796022,0.0001011879802,0.0003050675823,-0.0003677242398,0.0002866102643,-8.111397547e-05,-0.0001902582822,0.0002947023306,0.0001044440484,0.0003136312895,0.000839458255,0.001153089545,0.0002909277419,0.0002041736577,0.0004951013996,-0.001640720677,0.0002505972319,-0.001390123445,-0.002590691463,0.000206537257,-0.002384154206,-0.00272318797,-0.0002965689666,-0.003019756937,-0.003241232294,-9.933658263e-05,-0.003340568877,-0.001591773127,-9.916560742e-05,-0.001690938734,-0.005146553486,2.006278082e-05,-0.005126490705,-0.003727391457,0.0002071638512,-0.003520227606,-0.004510301448,0.0004583110918,-0.004051990356,-0.00421318978,0.0002098077261,-0.004003382054,-0.004233790408,0.0003430417475,-0.00389074866,-0.004998711214,9.373183012e-05,-0.004904979384
20.3,-0.0006283472665,0.0009680001418,0.0003396528753,-2.160165453e-05,-0.0001629750827,-0.0001845767373,-0.001942933873,0.0007268815721,-0.001216052301,-0.002071838641,0.0005578546483,-0.001513983993,-0.003034370138,0.001154550178,-0.00187981996,-0.001215474232,0.0001627224037,-0.001052751828,-0.002689816018,0.0004588513371,-0.002230964681,-0.001701908746,0.000254278182,-0.001447630564,-0.004293605651,0.0002488672799,-0.004044738371,-0.002282807043,0.0003590560236,-0.001923751019,-0.002499086826,0.0003674945682,-0.002131592258,-0.0007022668954,-4.158049992e-05,-0.0007438473953,-0.00387960082,-0.0001524170263,-0.004032017846,-3.189456603e-05,-7.673682581e-05,-0.0001086313918,-0.001531326493,-0.0005834901301,-0.002114816624,-0.003938424658,-0.0001394037938,-0.004077828452,-0.004658682542,1.361877362e-05,-0.004645063769,-0.003537816009,0.0001583851537,-0.003379430855,-0.002718640307,0.0001431579156,-0.002575482392,-0.0009667679681,0.0001209779227,-0.0008457900454,0.0001905041323,0.0001033265037,0.000293830636,-0.0003894619207,0.0002907420873,-9.871983333e-05,-0.0001979085702,0.0003005269443,0.0001026183741,0.0003050738019,0.0008405340793,0.001145607881,0.0002626827835,0.0002085475542,0.0004712303377,-0.001654170566,0.0002561945046,-0.001397976061,-0.002626165285,0.0002159981229,-0.002410167162,-0.002743794226,-0.0002931618075,-0.003036956033,-0.003270035433,-9.415407702e-05,-0.00336418951,-0.001606913953,-9.521685608e-05,-0.001702130809,-0.005183262567,2.282709824e-05,-0.005160435469,-0.003737200821,0.0002098649516,-0.003527335869,-0.004520371051,0.0004550478115,-0.004065323239,-0.004210615321,0.0002090091794,-0.004001606142,-0.004250365303,0.0003526481293,-0.003897717174,-0.004985218333,8.864529255e-05,-0.00489657304
20.4,-0.000626122467,0.0009742137589,0.0003480912919,-4.555418426e-05,-0.0001513048628,-0.0001968590471,-0.00197097493,0.0007325063602,-0.00123846857,-0.002096112828,0.0005643089042,-0.001531803924,-0.003036682266,0.001158681965,-0.001878000301,-0.001211477523,0.0001708740521,-0.001040603471,-0.00269889626,0.0004659500438,-0.002232946216,-0.001710197954,0.0002587037977,-0.001451494156,-0.004301435573,0.0002525386666,-0.004048896907,-0.00228691149,0.0003590835823,-0.001927827908,-0.002504619125,0.0003692028245,-0.002135416301,-0.0007084134667,-3.351280509e-05,-0.0007419262718,-0.003909874315,-0.0001310755535,-0.004040949868,-5.345390615e-05,-7.386533214e-05,-0.0001273192383,-0.00158237285,-0.0005895808485,-0.002171953698,-0.003981154707,-0.0001301573742,-0.004111312081,-0.004695181883,2.139458925e-05,-0.004673787294,-0.003534874697,0.0001654039695,-0.003369470727,-0.002722657269,0.0001475324349,-0.002575124834,-0.0009634685994,0.000127018024,-0.0008364505754,0.0001775748448,0.0001052045194,0.0002827793642,-0.0004104283949,0.0002945630835,-0.0001158653114,-0.0002057113158,0.0003063015905,0.0001005902747,0.0002962304207,0.0008417391187,0.001137969539,0.0002372593761,0.0002139200632,0.0004511794392,-0.001665644666,0.0002617644027,-0.001403880264,-0.002656157763,0.0002265294575,-0.002429628306,-0.002760865627,-0.0002904303646,-0.003051295992,-0.003295418611,-8.918989714e-05,-0.003384608508,-0.001619446066,-9.134424039e-05,-0.001710790306,-0.005215197452,2.550823294e-05,-0.005189689219,-0.003743222214,0.0002119930967,-0.003531229117,-0.004526514057,0.0004519364214,-0.004074577635,-0.004205579094,0.0002083336822,-0.003997245412,-0.004263961747,0.0003620959037,-0.003901865844,-0.004968356419,8.395514446e-05,-0.004884401274
20.5,-0.0006243169224,0.0009799119982,0.0003555950758,-6.876974395e-05,-0.000140008979,-0.0002087787229,-0.001998889848,0.0007377692626,-0.001261120585,-0.002120158845,0.0005703698748,-0.00154978897,-0.003037811323,0.001162474922,-0.001875336401,-0.001207022122,0.0001788716948,-0.001028150427,-0.002706608717,0.0004731443965,-0.00223346432,-0.001716884802,0.0002632094203,-0.001453675382,-0.004308121533,0.0002562050383,-0.004051916494,-0.002289756595,0.000359132783,-0.001930623811,-0.00250924599,0.0003705560612,-0.002138689929,-0.0007118255064,-2.663694363e-05,-0.00073846245,-0.003935877985,-0.0001107555972,-0.004046633583,-7.296257637e-05,-7.01669217e-05,-0.0001431294981,-0.001628313968,-0.0005964104915,-0.002224724459,-0.004019336114,-0.0001212368116,-0.004140572926,-0.004727571972,2.923081123e-05,-0.00469834116,-0.003528348372,0.0001718729956,-0.003356475377,-0.002724155819,0.0001521892907,-0.002571966529,-0.0009594730397,0.0001327585854,-0.0008267144543,0.0001651145094,0.0001068293186,0.000271943828,-0.0004306344145,0.0002980860296,-0.0001325483848,-0.0002136654438,0.000312029379,9.836393519e-05,0.0002870676674,0.0008430717554,0.001130139423,0.0002144832069,0.0002204065032,0.0004348897101,-0.001675129274,0.0002672689657,-0.001407860309,-0.002680557514,0.0002379124925,-0.002442645022,-0.002774585393,-0.0002883083391,-0.003062893732,-0.003317423447,-8.444582859e-05,-0.003401869275,-0.001629439669,-8.753996023e-05,-0.001716979629,-0.005242431248,2.810460329e-05,-0.005214326645,-0.00374556443,0.0002135631872,-0.003532001243,-0.004528823861,0.0004489922985,-0.004079831562,-0.00419816564,0.0002077757058,-0.003990389934,-0.0042746432,0.0003713209194,-0.00390332228,-0.004948325903,7.978096198e-05,-0.004868544941
20.6,-0.0006229230778,0.0009850934548,0.000362170377,-9.122259695e-05,-0.0001291120834,-0.0002203346803,-0.00202658315,0.000742680048,-0.001283903102,-0.00214387707,0.0005760491771,-0.001567827893,-0.00303778499,0.00116594119,-0.0018718438,-0.001202081258,0.0001866995312,-0.001015381727,-0.002712974541,0.0004804254822,-0.002232549059,-0.00172200295,0.000267800188,-0.001454202762,-0.004313699734,0.0002598692097,-0.004053830524,-0.00229136808,0.0003592036834,-0.001932164397,-0.002512994122,0.0003715608357,-0.002141433286,-0.0007125169111,-2.100516937e-05,-0.0007335220805,-0.003957649644,-9.162279314e-05,-0.004049272438,-9.051709416e-05,-6.560326592e-05,-0.0001561203601,-0.001669336027,-0.0006038858658,-0.002273221893,-0.004052993672,-0.0001126730305,-0.004165666703,-0.004755896502,3.712169267e-05,-0.004718774809,-0.003518337528,0.0001777710217,-0.003340566506,-0.002723190294,0.0001571560453,-0.002566034249,-0.0009547853557,0.0001381922357,-0.00081659312,0.0001531412602,0.0001082106017,0.0002613518619,-0.0004501025556,0.0003013254425,-0.000148777113,-0.0002217798556,0.0003177127016,9.593284601e-05,0.0002775476566,0.0008445302451,0.001122077902,0.0001941769092,0.0002280980912,0.0004222750005,-0.001682617472,0.0002726666767,-0.001409950796,-0.002699308759,0.0002499440403,-0.002449364719,-0.002785151915,-0.000286714803,-0.003071866718,-0.003336103004,-7.992476577e-05,-0.003416027769,-0.001636979789,-8.379435083e-05,-0.00172077414,-0.005265052642,3.061516294e-05,-0.005234437479,-0.003744350374,0.00021459574,-0.003529754634,-0.004527385628,0.0004462099343,-0.004081175694,-0.004188460251,0.000207325265,-0.003981134986,-0.004282481782,0.0003802683621,-0.00390221342,-0.004925334911,7.623987319e-05,-0.004849095038
20.7,-0.0006219407431,0.0009897585321,0.000367817789,-0.0001128948427,-0.0001186350498,-0.0002315298925,-0.002053968363,0.000747248443,-0.00130671992,-0.002167175591,0.0005813596401,-0.001585815951,-0.003036641915,0.001169092424,-0.00186754949,-0.001196633808,0.0001943421555,-0.001002291652,-0.002718025076,0.0004877845317,-0.002230240544,-0.001725594063,0.0002724807803,-0.001453113283,-0.004318225339,0.0002635328707,-0.004054692469,-0.002291785972,0.0003592974781,-0.001932488494,-0.002515907832,0.0003722254677,-0.002143682364,-0.0007105187571,-1.66500211e-05,-0.0007271687782,-0.003975241832,-7.381815992e-05,-0.004049059992,-0.0001062074983,-6.01602877e-05,-0.000166367786,-0.001705637116,-0.0006119051785,-0.002317542295,-0.004082168831,-0.0001044922311,-0.004186661062,-0.00478018589,4.503453155e-05,-0.004735151358,-0.003504957675,0.000183084797,-0.003321872878,-0.00271981598,0.000162445748,-0.002557370233,-0.0009494145597,0.0001433132127,-0.0008061013471,0.0001416660953,0.0001093603234,0.0002510264187,-0.000468868938,0.000304297717,-0.000164571221,-0.0002300750893,0.0003233533031,9.327821376e-05,0.0002676268279,0.0008461126521,0.00111373948,0.0001761635035,0.0002370561923,0.0004132196959,-0.001688112907,0.0002779132848,-0.001410199622,-0.002712419006,0.0002624419066,-0.002449977099,-0.002792778515,-0.0002855565671,-0.003078335082,-0.0033515244,-7.563064184e-05,-0.003427155042,-0.001642167912,-8.009671082e-05,-0.001722264622,-0.005283167274,3.303919186e-05,-0.005250128082,-0.00373971755,0.0002151166105,-0.00352460094,-0.004522276374,0.0004435606224,-0.004078715751,-0.004176553689,0.000206969583,-0.003969584106,-0.004287556986,0.0003888917539,-0.003898665232,-0.004899596961,7.344399958e-05,-0.004826152961
20.8,-0.0006213782217,0.000993909351,0.0003725311293,-0.0001337784145,-0.0001085945366,-0.0002423729511,-0.002080969804,0.0007514842121,-0.001329485592,-0.002189972269,0.0005863150983,-0.001603657171,-0.003034432778,0.001171939892,-0.001862492886,-0.001190665921,0.0002017848198,-0.0009888811015,-0.002721802265,0.0004952130369,-0.002226589228,-0.001727707892,0.0002772554695,-0.001450452422,-0.004321771018,0.0002671968582,-0.00405457416,-0.002291064696,0.0003594167414,-0.001931647954,-0.00251804919,0.0003725601278,-0.002145489063,-0.0007058804288,-1.358387144e-05,-0.0007194643003,-0.003988720481,-5.745834955e-05,-0.004046178831,-0.0001201166244,-5.384829631e-05,-0.0001739649207,-0.001737428516,-0.000620356504,-0.00235778502,-0.004106921286,-9.671514068e-05,-0.004203636427,-0.004800460998,5.290943849e-05,-0.00474755156,-0.003488340421,0.0001878097042,-0.003300530716,-0.00271408944,0.0001680555997,-0.00254603384,-0.0009433756405,0.0001481175336,-0.0007952581068,0.0001306916444,0.000110292441,0.0002409840854,-0.0004869831731,0.0003070212127,-0.0001799619604,-0.0002385825566,0.000328952535,9.036997838e-05,0.0002572562658,0.0008478166963,0.001105072962,0.0001602684908,0.0002473099517,0.0004075784425,-0.001691631518,0.000282962848,-0.00140866867,-0.002719964641,0.000275249576,-0.002444715065,-0.002797691065,-0.0002847302557,-0.00308242132,-0.003363768478,-7.156796843e-05,-0.003435336446,-0.001645120194,-7.643606367e-05,-0.001721556258,-0.00529689729,3.537589965e-05,-0.00526152139,-0.003731816656,0.0002151567899,-0.003516659867,-0.004513564272,0.0004409910762,-0.004072573195,-0.004162545243,0.0002066948247,-0.003955850418,-0.00428995368,0.0003971525756,-0.003892801105,-0.004871326806,7.14973196e-05,-0.004799829486
20.9,-0.0006212521552,0.0009975497755,0.0003762976202,-0.0001538754218,-9.900269116e-05,-0.0002528781129,-0.002107522671,0.0007553972096,-0.001352125462,-0.002212195406,0.0005909301293,-0.001621265277,-0.003031217818,0.001174494553,-0.001856723265,-0.00118417121,0.0002090136023,-0.0009751576076,-0.002724355347,0.0005027028017,-0.002221652545,-0.001728401614,0.00028212794,-0.001446273674,-0.004324420782,0.000270861333,-0.004053559449,-0.002289269412,0.0003595655664,-0.001929703846,-0.002519494222,0.0003725768544,-0.002146917367,-0.0006986671054,-1.179983428e-05,-0.0007104669397,-0.003998161052,-4.263738251e-05,-0.004040798435,-0.0001323182428,-4.670047751e-05,-0.0001790187203,-0.001764933765,-0.0006291166289,-0.002394050394,-0.004127329201,-8.935600251e-05,-0.004216685204,-0.004816736663,6.066052301e-05,-0.00475607614,-0.003468630505,0.0001919500557,-0.003276680449,-0.002706066188,0.0001739660759,-0.002532100112,-0.0009366895197,0.0001526031937,-0.0007840863261,0.0001202127092,0.0001110226917,0.0002312354009,-0.000504506136,0.0003095164139,-0.0001949897221,-0.0002473413299,0.0003345116949,8.717036494e-05,0.0002463838209,0.0008496395814,0.001096023402,0.0001463219208,0.0002588571113,0.0004051790321,-0.001693200009,0.0002877688478,-0.001405431161,-0.002722092984,0.0002882405437,-0.00243385244,-0.002800122472,-0.000284124481,-0.003084246953,-0.003372926022,-6.774114391e-05,-0.003440667166,-0.001645962119,-7.280175685e-05,-0.001718763876,-0.005306378626,3.762396348e-05,-0.005268754662,-0.003720807967,0.0002147522287,-0.003506055739,-0.004501307592,0.0004384241196,-0.004062883473,-0.004146543048,0.0002064875213,-0.003940055527,-0.004289759248,0.000405020659,-0.003884738589,-0.004840734533,7.049261362e-05,-0.004770241919
21.0,-0.000621585862,0.001000685438,0.0003790995757,-0.000173196558,-8.986712307e-05,-0.0002630636811,-0.002133571465,0.000758997348,-0.001374574117,-0.002233782954,0.0005952197124,-0.001638563241,-0.003027061204,0.001176767071,-0.001850294133,-0.001177149461,0.0002160155126,-0.0009611339483,-0.002725734628,0.0005102459232,-0.002215488705,-0.001727738487,0.000287100899,-0.001440637588,-0.004326260546,0.0002745258961,-0.00405173465,-0.002286469572,0.0003597496122,-0.00192671996,-0.002520326141,0.0003722895449,-0.002148036596,-0.0006889541621,-1.127344121e-05,-0.0007002276033,-0.004003642753,-2.942957557e-05,-0.004033072329,-0.0001428739134,-3.877009711e-05,-0.0001816440105,-0.001788384764,-0.0006380511667,-0.002426435931,-0.004143487419,-8.242161048e-05,-0.004225909029,-0.004829023807,6.817811111e-05,-0.004760845696,-0.003445979154,0.000195518877,-0.003250460277,-0.002695796145,0.0001801411325,-0.002515655013,-0.0009293819666,0.0001567703258,-0.0007726116408,0.0001102183601,0.0001115683885,0.0002217867486,-0.000521505978,0.0003118060978,-0.0002096998801,-0.0002563936276,0.0003400322689,8.363864129e-05,0.0002349574176,0.0008515778648,0.001086535282,0.0001341618329,0.0002716669092,0.000405828742,-0.001692851213,0.0002922851899,-0.001400566023,-0.002719020182,0.0003013225235,-0.002417697658,-0.002800304382,-0.0002836224304,-0.003083926812,-0.003379091854,-6.415381274e-05,-0.003443245667,-0.00164482133,-6.918382048e-05,-0.00171400515,-0.00531175638,3.97809688e-05,-0.005271975411,-0.003706856313,0.0002139436554,-0.003492912657,-0.00448555433,0.000435762071,-0.004049792259,-0.004128661979,0.0002063359467,-0.003922326032,-0.004287059944,0.0004124750604,-0.003874584883,-0.004808018261,7.050871686e-05,-0.004737509544
21.1,-0.0006224066318,0.001003323694,0.0003809170624,-0.0001917581209,-8.119122025e-05,-0.0002729493412,-0.002159067521,0.000762294521,-0.001396773,-0.002254680795,0.00059919888,-0.001655481915,-0.003022024311,0.00117876775,-0.001843256562,-0.001169604541,0.0002227786196,-0.0009468259215,-0.002725984786,0.0005178347376,-0.002208150048,-0.001725786226,0.0002921756437,-0.001433610582,-0.004327368683,0.000278189684,-0.004049178999,-0.002282732266,0.0003599760463,-0.001922756219,-0.002520628196,0.0003717139278,-0.002148914268,-0.0006768209461,-1.196424494e-05,-0.0006887851911,-0.004005243004,-1.789229974e-05,-0.004023135304,-0.0001518296514,-3.012704931e-05,-0.0001819567007,-0.001808015886,-0.0006470161994,-0.002455032085,-0.004155503849,-7.591084769e-05,-0.004231414697,-0.004837330059,7.533181231e-05,-0.004761998246,-0.003420535899,0.0001985370943,-0.003221998804,-0.002683318626,0.0001865298371,-0.002496788789,-0.0009214819519,0.0001606211857,-0.0007608607661,0.0001006946639,0.0001119481208,0.0002126427846,-0.00053805356,0.0003139152975,-0.0002241382625,-0.0002657807258,0.0003455159733,7.973524744e-05,0.0002229283238,0.0008536274138,0.001076555738,0.0001236392692,0.0002856840308,0.0004093233,-0.001690618214,0.0002964669968,-0.001394151217,-0.002711025582,0.000314441372,-0.00239658421,-0.002798458048,-0.0002831048614,-0.003081562909,-0.003382359233,-6.080849525e-05,-0.003443167728,-0.001641821241,-6.557327805e-05,-0.001707394519,-0.005313179455,4.184266783e-05,-0.005271336787,-0.003690126163,0.0002127763563,-0.003477349807,-0.004466343739,0.0004328928719,-0.004033450867,-0.004109020191,0.0002062316549,-0.003902788536,-0.004281937166,0.0004195049384,-0.003862432228,-0.004773356395,7.160776903e-05,-0.004701748626
21.2,-0.0006237429535,0.001005473595,0.0003817306412,-0.0002095787664,-7.297472848e-05,-0.0002825534949,-0.002183966674,0.0007652985689,-0.001418668105,-0.00227484093,0.0006028824558,-0.001671958474,-0.003016160394,0.001180506461,-0.001835653932,-0.001161542435,0.0002292922325,-0.000932250203,-0.002725140321,0.0005254617683,-0.002199678552,-0.001722615607,0.0002973517649,-0.001425263842,-0.00432780958,0.0002818514697,-0.004045958111,-0.002278117861,0.0003602533637,-0.001917864497,-0.002520478616,0.0003708674841,-0.002149611132,-0.0006623465285,-1.381674767e-05,-0.0006761632762,-0.004003034183,-8.067296159e-06,-0.00401110148,-0.000159213866,-2.085423465e-05,-0.0001800681007,-0.001824057738,-0.0006558610854,-0.002479918823,-0.004163495241,-6.981478359e-05,-0.004233310024,-0.004841660336,8.197490064e-05,-0.004759685435,-0.003392441528,0.0002010321963,-0.003191409331,-0.002668658689,0.000193068988,-0.002475589701,-0.0009130201833,0.0001641599828,-0.0007488602005,9.162693724e-05,0.0001121813373,0.0002038082745,-0.0005542186385,0.0003158709617,-0.0002383476768,-0.0002755406184,0.0003509646394,7.542402102e-05,0.0002102532673,0.0008557834909,0.001066036758,0.0001146233608,0.0003008330128,0.0004154563737,-0.001686529627,0.0003002712275,-0.0013862584,-0.002698444248,0.0003275844214,-0.002370859827,-0.002794787053,-0.0002824531121,-0.003077240165,-0.003382816597,-5.770647724e-05,-0.003440523074,-0.001637077279,-6.196272845e-05,-0.001699040007,-0.005310795851,4.380211447e-05,-0.005266993736,-0.003670778107,0.0002112997744,-0.003459478333,-0.004443710271,0.0004296983958,-0.004014011875,-0.004087735288,0.0002061708254,-0.003881564462,-0.004274464446,0.0004261098577,-0.003848354589,-0.00473690081,7.383206811e-05,-0.004663068742
21.3,-0.0006256225786,0.001007145985,0.0003815234063,-0.0002266770687,-6.521441305e-05,-0.0002918914818,-0.002208227804,0.0007680193176,-0.001440208486,-0.002294220216,0.000606284898,-0.001687935318,-0.003009512246,0.001181992603,-0.001827519644,-0.001152970144,0.0002355470972,-0.0009174230466,-0.002723224517,0.0005331196876,-0.002190104829,-0.001718299605,0.0003026270747,-0.001415672531,-0.004327631498,0.0002855098122,-0.004042121686,-0.002272679104,0.0003605911316,-0.001912087972,-0.002519948862,0.0003697693227,-0.00215017954,-0.0006456084364,-1.676079279e-05,-0.0006623692292,-0.003997083536,1.973070348e-08,-0.003997063806,-0.000165037453,-1.104399953e-05,-0.0001760814526,-0.001836732016,-0.0006644317797,-0.002501163796,-0.004167583641,-6.411707682e-05,-0.004231700718,-0.004842018822,8.795038065e-05,-0.004754068442,-0.003361824011,0.0002030365227,-0.003158787488,-0.002651825829,0.0001996859791,-0.00245213985,-0.0009040284482,0.0001673927685,-0.0007366356797,8.300078396e-05,0.0001122879514,0.0001952887354,-0.0005700676713,0.0003177014353,-0.000252366236,-0.0002857078526,0.0003563800435,7.067219091e-05,0.0001968949136,0.0008580409809,0.001054935894,0.0001070048151,0.0003170222709,0.000424027086,-0.001680607708,0.000303657236,-0.001376950472,-0.002681659411,0.0003407829977,-0.002340876413,-0.002789473821,-0.0002815515158,-0.003071025337,-0.003380547358,-5.484776544e-05,-0.003435395123,-0.001630696321,-5.834723392e-05,-0.001689043555,-0.005304749655,4.56489156e-05,-0.00525910074,-0.003648967171,0.0002095666912,-0.00343940048,-0.004417689522,0.0004260638137,-0.003991625708,-0.004064920807,0.000206154924,-0.003858765883,-0.00426470565,0.0004322990951,-0.003832406554,-0.004698772253,7.720050727e-05,-0.004621571745
21.4,-0.0006280717899,0.001008353732,0.0003802819417,-0.0002430704416,-5.790468006e-05,-0.0003009751216,-0.002231812512,0.0007704666615,-0.00146134585,-0.002312779958,0.0006094202009,-0.001703359757,-0.003002113149,0.001183235073,-0.001818878076,-0.001143895738,0.0002415355897,-0.0009023601486,-0.002720251886,0.0005408013122,-0.002179450573,-0.00171291311,0.0003079977787,-0.001404915331,-0.004326868507,0.0002891633231,-0.004037705184,-0.002266463476,0.0003609997849,-0.001905463691,-0.0025191051,0.0003684400774,-0.002150665023,-0.0006266837182,-2.071229246e-05,-0.0006473960107,-0.003987456048,6.36077703e-06,-0.003981095271,-0.0001692961009,-7.948173617e-07,-0.0001700909183,-0.001846248313,-0.0006725742453,-0.002518822559,-0.004167894021,-5.879467944e-05,-0.004226688701,-0.00483841237,9.309831351e-05,-0.004745314057,-0.003328798012,0.0002045853695,-0.003124212642,-0.002632815198,0.0002063015439,-0.002426513654,-0.0008945399949,0.0001703275402,-0.0007242124548,7.480173389e-05,0.0001122881028,0.0001870898367,-0.0005856633744,0.0003194359206,-0.0002662274538,-0.0002963152065,0.0003617637407,6.544853423e-05,0.000182820884,0.0008603946867,0.001043215571,0.0001006975645,0.0003341466187,0.0004348441832,-0.0016728696,0.0003065873337,-0.001366282266,-0.002661095703,0.0003541135327,-0.00230698217,-0.002782680238,-0.0002802888848,-0.003062969123,-0.003375632316,-5.223094543e-05,-0.003427863262,-0.00162277885,-5.472523168e-05,-0.001677504081,-0.005295180092,4.736885836e-05,-0.005247811234,-0.003624842829,0.0002076318966,-0.003417210933,-0.004388325569,0.0004218869282,-0.003966438641,-0.00404068385,0.0002061905883,-0.003834493262,-0.004252714677,0.0004380899587,-0.003814624718,-0.004659059134,8.170560378e-05,-0.00457735353
21.5,-0.0006311157405,0.001009111963,0.0003779962226,-0.0002587754083,-5.103813889e-05,-0.0003098135472,-0.002254685774,0.0007726506674,-0.001482035107,-0.002330486295,0.0006123018292,-0.001718184466,-0.002993990407,0.001184242287,-0.001809748119,-0.001134329516,0.0002472519428,-0.0008870775735,-0.002716233114,0.0005484996685,-0.002167733446,-0.001706533122,0.0003134588851,-0.001393074237,-0.004325545281,0.0002928110757,-0.004032734205,-0.002259517769,0.0003614905642,-0.001898027205,-0.002518011941,0.0003669018849,-0.002151110056,-0.0006056513194,-2.557494378e-05,-0.0006312262632,-0.003974219319,1.09675691e-05,-0.00396325175,-0.0001719742444,9.791572651e-06,-0.0001621826718,-0.001852803331,-0.0006801378093,-0.00253294114,-0.004164552759,-5.381908504e-05,-0.004218371844,-0.004830854774,9.726365277e-05,-0.004733591121,-0.003293467649,0.0002057151863,-0.003087752463,-0.002611611395,0.0002128325235,-0.002398778872,-0.0008845907246,0.000172974483,-0.0007116162416,6.701380731e-05,0.0001122020399,0.0001792158472,-0.0006010655048,0.0003211039451,-0.0002799615597,-0.0003073963949,0.0003671169198,5.972052483e-05,0.0001680019054,0.0008628395868,0.001030841492,9.563913296e-05,0.000352087974,0.000447727107,-0.001663331036,0.000309027275,-0.001354303761,-0.002637212892,0.0003676958395,-0.002269517053,-0.002774551167,-0.0002785593969,-0.003053110564,-0.003368153607,-4.985286097e-05,-0.003418006468,-0.001613422727,-5.109918518e-05,-0.001664521912,-0.005282222385,4.89440167e-05,-0.005233278369,-0.003598550327,0.000205550566,-0.00339299976,-0.004355679112,0.0004170866919,-0.00393859242,-0.004015124326,0.0002062890045,-0.003808835322,-0.004238536591,0.0004435053465,-0.003795031245,-0.004617820485,8.731277493e-05,-0.004530507711
21.6,-0.0006347794896,0.001009438255,0.0003746587649,-0.0002738088262,-4.46061001e-05,-0.0003184149263,-0.002276817176,0.0007745817222,-0.001502235454,-0.002347311156,0.0006149427152,-0.001732368441,-0.002985170223,0.001185022262,-0.001800147961,-0.00112428587,0.0002526925333,-0.0008715933364,-0.002711181018,0.0005562081449,-0.002154972874,-0.001699239213,0.0003190047648,-0.001380234448,-0.004323682985,0.0002964530715,-0.004027229914,-0.002251893371,0.000362075568,-0.001889817803,-0.002516737006,0.0003651784104,-0.002151558596,-0.0005825951433,-3.124270602e-05,-0.0006138378493,-0.003957448916,1.387285457e-05,-0.003943576062,-0.0001730497629,2.061237926e-05,-0.0001524373836,-0.001856582383,-0.0006869782946,-0.002543560678,-0.004157686578,-4.915817073e-05,-0.004206844749,-0.004819371555,0.0001003040391,-0.004719067515,-0.003255931389,0.00020646217,-0.003049469219,-0.002588194594,0.0002191948946,-0.002368999699,-0.0008742206865,0.000175346149,-0.0006988745375,5.961765868e-05,0.0001120499932,0.0001716676518,-0.0006163320493,0.0003227348216,-0.0002935972277,-0.0003189887272,0.000372440305,5.345157779e-05,0.0001524098754,0.000865370993,0.001017780868,9.178975869e-05,0.000370715365,0.0004625051237,-0.001652011143,0.0003109465363,-0.001341064607,-0.00261049918,0.0003816869348,-0.002228812245,-0.002765219022,-0.000276263581,-0.003041482603,-0.003358198798,-4.770803351e-05,-0.003405906832,-0.001602727126,-4.747584976e-05,-0.001650202975,-0.005266009646,5.035325448e-05,-0.005215656392,-0.003570232739,0.0002033767591,-0.00336685598,-0.004319835406,0.0004116102347,-0.003908225171,-0.003988335464,0.0002064650178,-0.003781870446,-0.004222209556,0.0004485707157,-0.003773638841,-0.004575092453,9.396243094e-05,-0.004481130022
21.7,-0.0006390892831,0.00100935279,0.0003702635066,-0.0002881894196,-3.859895825e-05,-0.0003267883779,-0.002298182168,0.0007762707366,-0.001521911431,-0.002363233323,0.0006173553298,-0.001745877993,-0.002975682304,0.001185582778,-0.001790099526,-0.001113785237,0.0002578561706,-0.0008559290667,-0.002705115722,0.0005639206821,-0.00214119504,-0.001691113914,0.0003246296841,-0.00136648423,-0.004321304153,0.0003000906224,-0.00402121353,-0.002243650524,0.0003627678133,-0.00188088271,-0.002515354533,0.0003632948369,-0.002152059697,-0.0005576070525,-3.760255634e-05,-0.0005952096088,-0.003937232549,1.513016936e-05,-0.00392210238,-0.0001724984294,3.156529761e-05,-0.0001409331318,-0.001857762117,-0.0006929607789,-0.002550722896,-0.004147421655,-4.477837492e-05,-0.00419220003,-0.004804004599,0.000102096922,-0.004701907677,-0.003216287169,0.000206861395,-0.003009425774,-0.002562547837,0.0002253068962,-0.002337240941,-0.0008634752971,0.0001774574848,-0.0006860178123,5.25890981e-05,0.0001118520034,0.0001644411015,-0.0006315200004,0.000324357203,-0.0003071627974,-0.0003311345011,0.000377734175,4.659967395e-05,0.0001360166852,0.0008679846117,0.001004001297,8.912999224e-05,0.0003898858315,0.0004790158237,-0.001638936853,0.0003123184092,-0.001326618444,-0.002581462912,0.0003962698926,-0.00218519302,-0.002754807556,-0.0002733097637,-0.003028117319,-0.003345863617,-4.578782197e-05,-0.003391651439,-0.00159079482,-4.386611506e-05,-0.001634660935,-0.005246674719,5.15729975e-05,-0.005195101722,-0.003540032784,0.0002011622838,-0.003338870501,-0.004280910557,0.0004054378208,-0.003875472736,-0.003960404425,0.0002067360424,-0.003753668382,-0.004203766702,0.0004533109082,-0.003750455794,-0.004530896081,0.0001015738442,-0.004429322237
