Time,S1D1HbO,S1D1HbR,S1D1HbT,S2D2HbO,S2D2HbR,S2D2HbT,S3D3HbO,S3D3HbR,S3D3HbT,S4D4HbO,S4D4HbR,S4D4HbT,S5D5HbO,S5D5HbR,S5D5HbT,S6D6HbO,S6D6HbR,S6D6HbT,S7D7HbO,S7D7HbR,S7D7HbT,S8D8HbO,S8D8HbR,S8D8HbT,S9D9HbO,S9D9HbR,S9D9HbT,S10D10HbO,S10D10HbR,S10D10HbT,S11D11HbO,S11D11HbR,S11D11HbT,S12D12HbO,S12D12HbR,S12D12HbT,S13D13HbO,S13D13HbR,S13D13HbT,S14D14HbO,S14D14HbR,S14D14HbT,S15D15HbO,S15D15HbR,S15D15HbT,S16D16HbO,S16D16HbR,S16D16HbT,S17D17HbO,S17D17HbR,S17D17HbT,S18D18HbO,S18D18HbR,S18D18HbT,S19D19HbO,S19D19HbR,S19D19HbT,S20D20HbO,S20D20HbR,S20D20HbT,S21D21HbO,S21D21HbR,S21D21HbT,S22D22HbO,S22D22HbR,S22D22HbT,S23D23HbO,S23D23HbR,S23D23HbT,S24D24HbO,S24D24HbR,S24D24HbT,S25D25HbO,S25D25HbR,S25D25HbT,S26D26HbO,S26D26HbR,S26D26HbT,S27D27HbO,S27D27HbR,S27D27HbT,S28D28HbO,S28D28HbR,S28D28HbT,S29D29HbO,S29D29HbR,S29D29HbT,S30D30HbO,S30D30HbR,S30D30HbT,S31D31HbO,S31D31HbR,S31D31HbT,S32D32HbO,S32D32HbR,S32D32HbT,S33D33HbO,S33D33HbR,S33D33HbT,S34D34HbO,S34D34HbR,S34D34HbT,S35D35HbO,S35D35HbR,S35D35HbT,S36D36HbO,S36D36HbR,S36D36HbT,
-10,-6.011395033e-05,-2.530137128e-05,-8.541532161e-05,-1.346628196e-03,1.268519172e-04,-1.219776279e-03,-8.899227901e-04,5.455660033e-05,-8.353661898e-04,-1.661022666e-03,1.851264717e-04,-1.475896194e-03,-1.683085259e-03,2.359736034e-04,-1.447111655e-03,-1.182981495e-03,2.431555639e-04,-9.398259308e-04,-1.340705525e-03,1.699491603e-04,-1.170756365e-03,-1.510810731e-03,-3.294972728e-05,-1.543760458e-03,-1.767817572e-03,1.908874149e-04,-1.576930157e-03,-1.959378839e-03,-1.386593903e-04,-2.098038229e-03,-1.668249161e-03,1.938428142e-04,-1.474406346e-03,-3.107800356e-03,9.727573601e-04,-2.135042996e-03,-2.910158580e-03,3.907720004e-04,-2.519386579e-03,-1.561300134e-03,4.060077148e-04,-1.155292419e-03,-2.073136806e-03,3.071606883e-04,-1.765976117e-03,-1.128691082e-03,3.959196944e-05,-1.089099112e-03,-3.469660891e-03,1.827739452e-04,-3.286886946e-03,-1.514836750e-03,6.073402637e-05,-1.454102724e-03,-2.990821776e-03,-1.158258820e-04,-3.106647658e-03,-1.978585478e-03,-1.987409022e-04,-2.177326380e-03,-1.637754205e-03,4.747211069e-05,-1.590282094e-03,-1.240152528e-03,-3.315535404e-05,-1.273307882e-03,-2.985961112e-03,-1.793856287e-04,-3.165346741e-03,-2.090582953e-03,-7.806464582e-05,-2.168647599e-03,-1.960540067e-03,1.040476395e-04,-1.856492428e-03,-1.172032652e-03,3.718561948e-04,-8.001764572e-04,-2.964188321e-03,1.501210775e-04,-2.814067244e-03,-1.672319414e-03,4.438020833e-06,-1.667881393e-03,-1.672202180e-03,-4.993694768e-05,-1.722139128e-03,-3.544260488e-03,-2.639151974e-04,-3.808175685e-03,-2.464444552e-03,6.652388711e-06,-2.457792163e-03,-3.911881641e-03,-2.205710455e-04,-4.132452687e-03,-1.862656990e-03,-1.751973423e-04,-2.037854333e-03,-2.334040278e-03,-1.739930861e-04,-2.508033364e-03,-2.090898924e-03,-1.852477665e-04,-2.276146690e-03,-2.393477130e-03,-7.595365667e-05,-2.469430787e-03
-9.9,-6.829464613e-05,-3.170700994e-05,-1.000016561e-04,-1.341783854e-03,1.215194644e-04,-1.220264389e-03,-8.853319317e-04,5.012516462e-05,-8.352067671e-04,-1.663538359e-03,1.831918380e-04,-1.480346521e-03,-1.680324337e-03,2.378961674e-04,-1.442428170e-03,-1.194108593e-03,2.254708952e-04,-9.686376980e-04,-1.380660756e-03,1.514025337e-04,-1.229258223e-03,-1.541194260e-03,-3.710682900e-05,-1.578301089e-03,-1.757465419e-03,1.873168283e-04,-1.570148591e-03,-2.007048046e-03,-1.332181451e-04,-2.140266191e-03,-1.668311093e-03,1.939656204e-04,-1.474345473e-03,-3.095146560e-03,9.542465832e-04,-2.140899977e-03,-2.914735926e-03,3.867011559e-04,-2.528034770e-03,-1.571110669e-03,3.970258347e-04,-1.174084834e-03,-2.098451963e-03,3.201013506e-04,-1.778350612e-03,-1.134820069e-03,3.814289687e-05,-1.096677172e-03,-3.470373088e-03,1.804179892e-04,-3.289955099e-03,-1.532823645e-03,6.011254631e-05,-1.472711098e-03,-2.992872799e-03,-1.242804008e-04,-3.117153199e-03,-1.988425383e-03,-1.981543342e-04,-2.186579717e-03,-1.639276678e-03,4.742505838e-05,-1.591851620e-03,-1.241733142e-03,-3.296914470e-05,-1.274702287e-03,-2.979384397e-03,-1.769768923e-04,-3.156361290e-03,-2.080086921e-03,-7.818650235e-05,-2.158273423e-03,-1.957667543e-03,1.034984178e-04,-1.854169126e-03,-1.170622344e-03,3.618463644e-04,-8.087759800e-04,-2.980768199e-03,1.715066994e-04,-2.809261499e-03,-1.671736787e-03,4.212957794e-06,-1.667523829e-03,-1.701092755e-03,-4.083110505e-05,-1.741923860e-03,-3.554589232e-03,-2.630972562e-04,-3.817686488e-03,-2.484427381e-03,-4.765188524e-06,-2.489192570e-03,-3.937593662e-03,-2.132046065e-04,-4.150798268e-03,-1.895778255e-03,-1.750226728e-04,-2.070800927e-03,-2.364314402e-03,-1.741158490e-04,-2.538430251e-03,-2.138891822e-03,-1.764911450e-04,-2.315382967e-03,-2.411888062e-03,-7.660051805e-05,-2.488488580e-03
-9.8,-7.500411817e-05,-3.821847102e-05,-1.132225892e-04,-1.335154590e-03,1.157263744e-04,-1.219428216e-03,-8.788588632e-04,4.490880853e-05,-8.339500547e-04,-1.663050493e-03,1.796592175e-04,-1.483391276e-03,-1.672924100e-03,2.376091692e-04,-1.435314930e-03,-1.202209223e-03,2.070638004e-04,-9.951454229e-04,-1.417355427e-03,1.325760192e-04,-1.284779408e-03,-1.568395942e-03,-4.103616184e-05,-1.609432104e-03,-1.745202863e-03,1.836446591e-04,-1.561558204e-03,-2.051140631e-03,-1.279118222e-04,-2.179052453e-03,-1.665476395e-03,1.927851298e-04,-1.472691266e-03,-3.076096059e-03,9.320759139e-04,-2.144020145e-03,-2.915782705e-03,3.808489410e-04,-2.534933764e-03,-1.577411117e-03,3.868875256e-04,-1.190523592e-03,-2.120211789e-03,3.312037093e-04,-1.789008080e-03,-1.139758746e-03,3.658912390e-05,-1.103169622e-03,-3.463883155e-03,1.769891604e-04,-3.286893995e-03,-1.546515269e-03,5.854019611e-05,-1.487975072e-03,-2.988246371e-03,-1.328392533e-04,-3.121085624e-03,-1.995650026e-03,-1.976623618e-04,-2.193312388e-03,-1.639090040e-03,4.672402462e-05,-1.592366016e-03,-1.242041205e-03,-3.307153131e-05,-1.275112736e-03,-2.970834412e-03,-1.746732597e-04,-3.145507672e-03,-2.067763182e-03,-7.836432424e-05,-2.146127506e-03,-1.949218130e-03,1.011336940e-04,-1.848084436e-03,-1.165612421e-03,3.489622126e-04,-8.166502084e-04,-2.991926213e-03,1.922330341e-04,-2.799693179e-03,-1.668743144e-03,3.078139985e-06,-1.665665004e-03,-1.726616051e-03,-3.251472042e-05,-1.759130771e-03,-3.559780288e-03,-2.624300664e-04,-3.822210354e-03,-2.499903978e-03,-1.643971755e-05,-2.516343696e-03,-3.957052867e-03,-2.055937083e-04,-4.162646576e-03,-1.926260117e-03,-1.740667371e-04,-2.100326854e-03,-2.390504460e-03,-1.740151119e-04,-2.564519572e-03,-2.183390901e-03,-1.670426923e-04,-2.350433593e-03,-2.426935733e-03,-7.728394863e-05,-2.504219682e-03
-9.7,-8.040260788e-05,-4.478933284e-05,-1.251919407e-04,-1.326908706e-03,1.095308616e-04,-1.217377844e-03,-8.707155036e-04,3.898215320e-05,-8.317333504e-04,-1.659757061e-03,1.746203483e-04,-1.485136713e-03,-1.661059952e-03,2.351573550e-04,-1.425902597e-03,-1.207378300e-03,1.880662001e-04,-1.019312100e-03,-1.450565990e-03,1.135988031e-04,-1.336967187e-03,-1.592331716e-03,-4.471239612e-05,-1.637044112e-03,-1.731125728e-03,1.798863528e-04,-1.551239375e-03,-2.091510528e-03,-1.227062759e-04,-2.214216804e-03,-1.659848851e-03,1.903550328e-04,-1.469493818e-03,-3.050998864e-03,9.063916798e-04,-2.144607184e-03,-2.913343979e-03,3.731844796e-04,-2.540159500e-03,-1.580336425e-03,3.756625275e-04,-1.204673898e-03,-2.138349937e-03,3.403712733e-04,-1.797978664e-03,-1.143679164e-03,3.491527109e-05,-1.108763893e-03,-3.450208139e-03,1.724120513e-04,-3.277796087e-03,-1.555917896e-03,5.595213367e-05,-1.499965762e-03,-2.977092255e-03,-1.414667751e-04,-3.118559030e-03,-2.000388747e-03,-1.972109030e-04,-2.197599650e-03,-1.637304157e-03,4.539736122e-05,-1.591906796e-03,-1.241247521e-03,-3.342464141e-05,-1.274672163e-03,-2.960421399e-03,-1.724566250e-04,-3.132878024e-03,-2.053807597e-03,-7.858677804e-05,-2.132394375e-03,-1.935524211e-03,9.703573237e-05,-1.838488479e-03,-1.157054448e-03,3.333072168e-04,-8.237472308e-04,-2.997619742e-03,2.123248937e-04,-2.785294848e-03,-1.663475053e-03,1.098469426e-06,-1.662376584e-03,-1.748778199e-03,-2.502403348e-05,-1.773802232e-03,-3.560017211e-03,-2.618028436e-04,-3.821820054e-03,-2.511012379e-03,-2.825455413e-05,-2.539266933e-03,-3.970236793e-03,-1.978183645e-04,-4.168055157e-03,-1.954113655e-03,-1.723043869e-04,-2.126418042e-03,-2.412696179e-03,-1.736871588e-04,-2.586383337e-03,-2.224248611e-03,-1.569522022e-04,-2.381200813e-03,-2.438688763e-03,-7.796929655e-05,-2.516658060e-03
-9.6,-8.465911696e-05,-5.137076942e-05,-1.360298864e-04,-1.317218227e-03,1.029929183e-04,-1.214225308e-03,-8.611140756e-04,3.242485531e-05,-8.286892203e-04,-1.653861001e-03,1.681764256e-04,-1.485684576e-03,-1.644937648e-03,2.306004182e-04,-1.414337230e-03,-1.209731243e-03,1.686110994e-04,-1.041120143e-03,-1.480106491e-03,9.459430548e-05,-1.385512186e-03,-1.612932417e-03,-4.811617090e-05,-1.661048588e-03,-1.715340089e-03,1.760573340e-04,-1.539282755e-03,-2.128035576e-03,-1.175693214e-04,-2.245604898e-03,-1.651552072e-03,1.867360979e-04,-1.464815974e-03,-3.020216655e-03,8.773677603e-04,-2.142848895e-03,-2.907465635e-03,3.636909844e-04,-2.543774651e-03,-1.580024415e-03,3.634240954e-04,-1.216600320e-03,-2.152805414e-03,3.475192549e-04,-1.805286159e-03,-1.146740286e-03,3.309860424e-05,-1.113641682e-03,-3.429399354e-03,1.666077072e-04,-3.262791647e-03,-1.561049147e-03,5.229472734e-05,-1.508754420e-03,-2.959604270e-03,-1.501221556e-04,-3.109726425e-03,-2.002770360e-03,-1.967437283e-04,-2.199514088e-03,-1.634032447e-03,4.347785032e-05,-1.590554596e-03,-1.239516487e-03,-3.398843177e-05,-1.273504919e-03,-2.948260063e-03,-1.703075662e-04,-3.118567629e-03,-2.038415435e-03,-7.884162661e-05,-2.117257062e-03,-1.916968416e-03,9.131921150e-05,-1.825649205e-03,-1.145020121e-03,3.150085425e-04,-8.300115780e-04,-2.997806588e-03,2.317833740e-04,-2.766023214e-03,-1.656084632e-03,-1.648221261e-06,-1.657732853e-03,-1.767596355e-03,-1.838766357e-05,-1.785984018e-03,-3.555491685e-03,-2.611095633e-04,-3.816601249e-03,-2.517898442e-03,-4.008818722e-05,-2.557986629e-03,-3.977117188e-03,-1.899661607e-04,-4.167083349e-03,-1.979337424e-03,-1.697276490e-04,-2.149065073e-03,-2.430989671e-03,-1.731285742e-04,-2.604118245e-03,-2.261326427e-03,-1.462729895e-04,-2.407599416e-03,-2.447217263e-03,-7.862385125e-05,-2.525841114e-03
-9.5,-8.794838186e-05,-5.791242438e-05,-1.458608062e-04,-1.306256499e-03,9.617367092e-05,-1.210082829e-03,-8.502644617e-04,2.532035886e-05,-8.249441028e-04,-1.645567377e-03,1.604368166e-04,-1.485130560e-03,-1.624791492e-03,2.240117719e-04,-1.400779720e-03,-1.209402528e-03,1.488307764e-04,-1.060571752e-03,-1.505832842e-03,7.567800687e-05,-1.430154835e-03,-1.630144503e-03,-5.123456204e-05,-1.681379065e-03,-1.697961092e-03,1.721727902e-04,-1.525788302e-03,-2.160618844e-03,-1.124715896e-04,-2.273090434e-03,-1.640728137e-03,1.819953700e-04,-1.458732767e-03,-2.984119324e-03,8.452044665e-04,-2.138914858e-03,-2.898198629e-03,3.523698268e-04,-2.545828802e-03,-1.576615770e-03,3.502488492e-04,-1.226366921e-03,-2.163530064e-03,3.525805293e-04,-1.810949534e-03,-1.149084286e-03,3.110932707e-05,-1.117974959e-03,-3.401547358e-03,1.594988622e-04,-3.242048496e-03,-1.561939304e-03,4.752528976e-05,-1.514414015e-03,-2.936016530e-03,-1.587603866e-04,-3.094776917e-03,-2.002922171e-03,-1.962032643e-04,-2.199125436e-03,-1.629391206e-03,4.100283830e-05,-1.588388368e-03,-1.237004516e-03,-3.472144748e-05,-1.271725964e-03,-2.934468422e-03,-1.682055500e-04,-3.102673972e-03,-2.021779532e-03,-7.911609259e-05,-2.100895624e-03,-1.893974825e-03,8.412756206e-05,-1.809847263e-03,-1.129597836e-03,2.942127148e-04,-8.353851208e-04,-2.992436356e-03,2.505752516e-04,-2.741861104e-03,-1.646737286e-03,-5.073394676e-06,-1.651810681e-03,-1.783098874e-03,-1.262664615e-05,-1.795725520e-03,-3.546400757e-03,-2.602523205e-04,-3.806653078e-03,-2.520713497e-03,-5.181738843e-05,-2.572530885e-03,-3.977660747e-03,-1.821295208e-04,-4.159790268e-03,-2.001916645e-03,-1.663460292e-04,-2.168262674e-03,-2.445499193e-03,-1.723342261e-04,-2.617833419e-03,-2.294494848e-03,-1.350636895e-04,-2.429558538e-03,-2.452592447e-03,-7.921783363e-05,-2.531810281e-03
-9.4,-9.044854494e-05,-6.436331130e-05,-1.548118562e-04,-1.294196543e-03,8.913466516e-05,-1.205061877e-03,-8.383727138e-04,1.775464791e-05,-8.206180659e-04,-1.635081773e-03,1.515176658e-04,-1.483564107e-03,-1.600883077e-03,2.154774608e-04,-1.385405616e-03,-1.206544535e-03,1.288555392e-04,-1.077688996e-03,-1.527645873e-03,5.695617998e-05,-1.470689693e-03,-1.643931101e-03,-5.406118046e-05,-1.697992281e-03,-1.679112138e-03,1.682476587e-04,-1.510864480e-03,-2.189189657e-03,-1.073868811e-04,-2.296576538e-03,-1.627536356e-03,1.762057119e-04,-1.451330645e-03,-2.943083095e-03,8.101272257e-04,-2.132955870e-03,-2.885605431e-03,3.392446174e-04,-2.546360814e-03,-1.570255028e-03,3.362164228e-04,-1.234038605e-03,-2.170499188e-03,3.555116653e-04,-1.814987523e-03,-1.150835684e-03,2.891195334e-05,-1.121923730e-03,-3.366787152e-03,1.510154204e-04,-3.215771731e-03,-1.558633733e-03,4.161136494e-05,-1.517022368e-03,-2.906599789e-03,-1.673331363e-04,-3.073932925e-03,-2.000970339e-03,-1.955313970e-04,-2.196501736e-03,-1.623500013e-03,3.801437061e-05,-1.585485643e-03,-1.233859767e-03,-3.558160783e-05,-1.269441374e-03,-2.919167309e-03,-1.661291403e-04,-3.085296449e-03,-2.004089072e-03,-7.939727852e-05,-2.083486350e-03,-1.866999746e-03,7.562805984e-05,-1.791371686e-03,-1.110889497e-03,2.710818284e-04,-8.398076683e-04,-2.981445276e-03,2.686220731e-04,-2.712823203e-03,-1.635609904e-03,-9.080806773e-06,-1.644690711e-03,-1.795326473e-03,-7.754501152e-06,-1.803080974e-03,-3.532946238e-03,-2.591435324e-04,-3.792089771e-03,-2.519613905e-03,-6.332048455e-05,-2.582934390e-03,-3.971832409e-03,-1.744029796e-04,-4.146235388e-03,-2.021824994e-03,-1.621857224e-04,-2.184010716e-03,-2.456353854e-03,-1.712953343e-04,-2.627649188e-03,-2.323635644e-03,-1.233892454e-04,-2.447024889e-03,-2.454887227e-03,-7.972537831e-05,-2.534612606e-03
-9.3,-9.233935757e-05,-7.067277944e-05,-1.630121370e-04,-1.281209889e-03,8.193713562e-05,-1.199272753e-03,-8.256402179e-04,9.815127167e-06,-8.158250907e-04,-1.622609447e-03,1.415405082e-04,-1.481068939e-03,-1.573499866e-03,2.050953291e-04,-1.368404537e-03,-1.201326244e-03,1.088129471e-04,-1.092513297e-03,-1.545492436e-03,3.852556583e-05,-1.506966870e-03,-1.654273012e-03,-5.659589611e-05,-1.710868908e-03,-1.658924086e-03,1.642967274e-04,-1.494627358e-03,-2.213703717e-03,-1.022921359e-04,-2.315995853e-03,-1.612151851e-03,1.694455092e-04,-1.442706342e-03,-2.897489392e-03,7.723850389e-04,-2.125104353e-03,-2.869767625e-03,3.243651262e-04,-2.545402498e-03,-1.561091857e-03,3.214089514e-04,-1.239682906e-03,-2.173721352e-03,3.562975340e-04,-1.817423818e-03,-1.152102942e-03,2.646783435e-05,-1.125635107e-03,-3.325302276e-03,1.411001315e-04,-3.184202145e-03,-1.551194974e-03,3.452996375e-05,-1.516665010e-03,-2.871658015e-03,-1.757892654e-04,-3.047447280e-03,-1.997040547e-03,-1.946702354e-04,-2.191710782e-03,-1.616482554e-03,3.455926514e-05,-1.581923289e-03,-1.230222398e-03,-3.652690673e-05,-1.266749305e-03,-2.902479936e-03,-1.640562011e-04,-3.066536137e-03,-1.985528540e-03,-7.967257143e-05,-2.065201111e-03,-1.836520868e-03,6.600495023e-05,-1.770515918e-03,-1.089008358e-03,2.457904970e-04,-8.432178609e-04,-2.964757181e-03,2.857902270e-04,-2.678966954e-03,-1.622888951e-03,-1.357011309e-05,-1.636459064e-03,-1.804333680e-03,-3.776955766e-06,-1.808110636e-03,-3.515335515e-03,-2.577068698e-04,-3.773042385e-03,-2.514761712e-03,-7.448026585e-05,-2.589241978e-03,-3.959600718e-03,-1.668806427e-04,-4.126481360e-03,-2.039027750e-03,-1.572880202e-04,-2.196315770e-03,-2.463697613e-03,-1.699983677e-04,-2.633695981e-03,-2.348645031e-03,-1.113209742e-04,-2.459966006e-03,-2.454177093e-03,-8.012526415e-05,-2.534302357e-03
-9.2,-9.380050662e-05,-7.679160581e-05,-1.705921124e-04,-1.267465517e-03,7.464130499e-05,-1.192824212e-03,-8.122627928e-04,1.589650962e-06,-8.106731419e-04,-1.608354614e-03,1.306309450e-04,-1.477723669e-03,-1.542952906e-03,1.929743940e-04,-1.349978512e-03,-1.193931339e-03,8.882720044e-05,-1.105104139e-03,-1.559364354e-03,2.047368546e-05,-1.538890669e-03,-1.661169254e-03,-5.884433156e-05,-1.720013586e-03,-1.637534084e-03,1.603347525e-04,-1.477199331e-03,-2.234142068e-03,-9.716720304e-05,-2.331309271e-03,-1.594763545e-03,1.617983109e-04,-1.432965234e-03,-2.847723589e-03,7.322489069e-04,-2.115474682e-03,-2.850792763e-03,3.078107308e-04,-2.542982032e-03,-1.549281853e-03,3.059105409e-04,-1.243371312e-03,-2.173244352e-03,3.549536667e-04,-1.818290685e-03,-1.152981282e-03,2.373834187e-05,-1.129242940e-03,-3.277327776e-03,1.297147196e-04,-3.147613057e-03,-1.539703996e-03,2.626708468e-05,-1.513436911e-03,-2.831525457e-03,-1.840747910e-04,-3.015600248e-03,-1.991257829e-03,-1.935627267e-04,-2.184820556e-03,-1.608467008e-03,3.068908324e-05,-1.577777924e-03,-1.226224416e-03,-3.751589267e-05,-1.263740308e-03,-2.884530908e-03,-1.619640749e-04,-3.046494983e-03,-1.966276224e-03,-7.993000150e-05,-2.046206226e-03,-1.803024646e-03,5.545143424e-05,-1.747573212e-03,-1.064078272e-03,2.185231985e-04,-8.455550736e-04,-2.942288770e-03,3.018834248e-04,-2.640405345e-03,-1.608767512e-03,-1.844072509e-05,-1.627208237e-03,-1.810189364e-03,-6.912888007e-07,-1.810880653e-03,-3.493782556e-03,-2.558770262e-04,-3.749659583e-03,-2.506325180e-03,-8.518614592e-05,-2.591511326e-03,-3.940943914e-03,-1.596539337e-04,-4.100597848e-03,-2.053484842e-03,-1.517073555e-04,-2.205192198e-03,-2.467687262e-03,-1.684251476e-04,-2.636112410e-03,-2.369436265e-03,-9.893593160e-05,-2.468372196e-03,-2.450540300e-03,-8.040107973e-05,-2.530941379e-03
-9.1,-9.500955707e-05,-8.267323655e-05,-1.776827936e-04,-1.253128399e-03,6.730572685e-05,-1.185822672e-03,-7.984289518e-04,-6.834341084e-06,-8.052632928e-04,-1.592518996e-03,1.189173554e-04,-1.473601641e-03,-1.509573038e-03,1.792342722e-04,-1.330338766e-03,-1.184555389e-03,6.901841709e-05,-1.115536972e-03,-1.569295498e-03,2.879362296e-06,-1.566416136e-03,-1.664636758e-03,-6.081722341e-05,-1.725453981e-03,-1.615083661e-03,1.563765089e-04,-1.458707152e-03,-2.250508933e-03,-9.199457246e-05,-2.342503505e-03,-1.575571273e-03,1.533522286e-04,-1.422219044e-03,-2.794172700e-03,6.900102755e-04,-2.104162425e-03,-2.828817770e-03,2.896924566e-04,-2.539125314e-03,-1.534985939e-03,2.898068265e-04,-1.245179112e-03,-2.169156149e-03,3.515264007e-04,-1.817629748e-03,-1.153554665e-03,2.068797140e-05,-1.132866694e-03,-3.223152197e-03,1.168461604e-04,-3.106306036e-03,-1.524260782e-03,1.681800282e-05,-1.507442779e-03,-2.786564100e-03,-1.921321925e-04,-2.978696293e-03,-1.983744557e-03,-1.921530920e-04,-2.175897649e-03,-1.599585092e-03,2.645990807e-05,-1.573125183e-03,-1.221988200e-03,-3.850791590e-05,-1.260496116e-03,-2.865444179e-03,-1.598297295e-04,-3.025273909e-03,-1.946501757e-03,-8.015856526e-05,-2.026660322e-03,-1.766992587e-03,4.416215812e-05,-1.722830429e-03,-1.036234585e-03,1.894720803e-04,-8.467625052e-04,-2.913954602e-03,3.166387474e-04,-2.597315855e-03,-1.593440009e-03,-2.359562914e-05,-1.617035638e-03,-1.812975031e-03,1.514311299e-06,-1.811460720e-03,-3.468507365e-03,-2.535987175e-04,-3.722106083e-03,-2.494477745e-03,-9.533549948e-05,-2.589813245e-03,-3.915855128e-03,-1.528095677e-04,-4.068664695e-03,-2.065152574e-03,-1.455093077e-04,-2.210661882e-03,-2.468487904e-03,-1.665540452e-04,-2.635041949e-03,-2.385940257e-03,-8.631583825e-05,-2.472256095e-03,-2.444056278e-03,-8.054054715e-05,-2.524596825e-03
-9,-9.613911823e-05,-8.827510667e-05,-1.844142249e-04,-1.238357252e-03,5.998667037e-05,-1.178370581e-03,-7.843168911e-04,-1.537062065e-05,-7.996875117e-04,-1.575298983e-03,1.065295963e-04,-1.468769386e-03,-1.473705403e-03,1.640044761e-04,-1.309700927e-03,-1.173402194e-03,4.950170910e-05,-1.123900485e-03,-1.575357796e-03,-1.418693874e-05,-1.589544735e-03,-1.664709156e-03,-6.252964163e-05,-1.727238797e-03,-1.591715973e-03,1.524366910e-04,-1.439279282e-03,-2.262828786e-03,-8.675922892e-05,-2.349588015e-03,-1.554782000e-03,1.441990108e-04,-1.410582989e-03,-2.737221431e-03,6.459791508e-04,-2.091242280e-03,-2.804006927e-03,2.701525095e-04,-2.533854418e-03,-1.518367907e-03,2.731846106e-04,-1.245183296e-03,-2.161581165e-03,3.460915066e-04,-1.815489659e-03,-1.153895126e-03,1.728682118e-05,-1.136608305e-03,-3.163117722e-03,1.025123111e-04,-3.060605411e-03,-1.504984222e-03,6.188704070e-06,-1.498795518e-03,-2.737160385e-03,-1.998994603e-04,-2.937059846e-03,-1.974616338e-03,-1.903872127e-04,-2.165003551e-03,-1.589969323e-03,2.193180315e-05,-1.568037520e-03,-1.217623455e-03,-3.946329921e-05,-1.257086755e-03,-2.845339826e-03,-1.576299085e-04,-3.002969735e-03,-1.926362608e-03,-8.034850970e-05,-2.006711117e-03,-1.728887185e-03,3.232724418e-05,-1.696559941e-03,-1.005626599e-03,1.588355370e-04,-8.467910621e-04,-2.879669563e-03,3.297278357e-04,-2.549941727e-03,-1.577094219e-03,-2.894489167e-05,-1.606039111e-03,-1.812780727e-03,2.861051059e-06,-1.809919676e-03,-3.439732695e-03,-2.508254496e-04,-3.690558145e-03,-2.479394614e-03,-1.048343954e-04,-2.584229010e-03,-3.884345940e-03,-1.464274486e-04,-4.030773388e-03,-2.073983605e-03,-1.387686261e-04,-2.212752231e-03,-2.466266182e-03,-1.643618183e-04,-2.630628000e-03,-2.398103746e-03,-7.354568775e-05,-2.471649434e-03,-2.434801791e-03,-8.053414290e-05,-2.515335934e-03
-8.9,-9.735323659e-05,-9.355986069e-05,-1.909130973e-04,-1.223301489e-03,5.273756092e-05,-1.170563928e-03,-7.700905333e-04,-2.393493818e-05,-7.940254715e-04,-1.556881459e-03,9.359768563e-05,-1.463283774e-03,-1.435702870e-03,1.474234260e-04,-1.288279444e-03,-1.160679713e-03,3.038617138e-05,-1.130293541e-03,-1.577657363e-03,-3.066325093e-05,-1.608320614e-03,-1.661435026e-03,-6.400012074e-05,-1.725435147e-03,-1.567572537e-03,1.485296015e-04,-1.419042936e-03,-2.271143379e-03,-8.144876491e-05,-2.352592144e-03,-1.532605666e-03,1.344328372e-04,-1.398172828e-03,-2.677246994e-03,6.004814714e-04,-2.076765522e-03,-2.776545171e-03,2.493610951e-04,-2.527184076e-03,-1.499590653e-03,2.561315272e-04,-1.243459126e-03,-2.150673524e-03,3.387520492e-04,-1.811921475e-03,-1.154059189e-03,1.351220640e-05,-1.140546983e-03,-3.097617590e-03,8.676646262e-05,-3.010851127e-03,-1.482010823e-03,-5.601938850e-06,-1.487612762e-03,-2.683719609e-03,-2.073096888e-04,-2.891029297e-03,-1.963976926e-03,-1.882131404e-04,-2.152190067e-03,-1.579749062e-03,1.716793830e-05,-1.562581124e-03,-1.213223368e-03,-4.034362325e-05,-1.253566991e-03,-2.824330162e-03,-1.553413204e-04,-2.979671483e-03,-1.906000174e-03,-8.049154616e-05,-1.986491720e-03,-1.689138491e-03,2.012796308e-05,-1.669010528e-03,-9.724207276e-04,1.268173842e-04,-8.456033434e-04,-2.839349780e-03,3.407644980e-04,-2.498585282e-03,-1.559901911e-03,-3.440850910e-05,-1.594310421e-03,-1.809700063e-03,3.379580248e-06,-1.806320483e-03,-3.407678621e-03,-2.475185554e-04,-3.655197177e-03,-2.461247659e-03,-1.135980570e-04,-2.574845715e-03,-3.846448808e-03,-1.405782814e-04,-3.987027089e-03,-2.079925857e-03,-1.315671485e-04,-2.211493005e-03,-2.461182184e-03,-1.618255909e-04,-2.623007775e-03,-2.405886004e-03,-6.071216515e-05,-2.466598169e-03,-2.422845716e-03,-8.037362862e-05,-2.503219344e-03
-8.8,-9.880352355e-05,-9.849626703e-05,-1.972997906e-04,-1.208097898e-03,4.560852179e-05,-1.162489376e-03,-7.558956333e-04,-3.244582329e-05,-7.883414566e-04,-1.537439353e-03,8.025047036e-05,-1.457188882e-03,-1.395919663e-03,1.296371089e-04,-1.266282554e-03,-1.146596008e-03,1.177389754e-05,-1.134822111e-03,-1.576331632e-03,-4.649680146e-05,-1.622828434e-03,-1.654876102e-03,-6.524988331e-05,-1.720125985e-03,-1.542790070e-03,1.446686634e-04,-1.398121406e-03,-2.275509404e-03,-7.605375603e-05,-2.351563160e-03,-1.509251346e-03,1.241490017e-04,-1.385102344e-03,-2.614613809e-03,5.538556002e-04,-2.060758208e-03,-2.746629714e-03,2.275115713e-04,-2.519118143e-03,-1.478812515e-03,2.387357782e-04,-1.240076736e-03,-2.136609409e-03,3.296357104e-04,-1.806973698e-03,-1.154083024e-03,9.349512572e-06,-1.144733511e-03,-3.027091530e-03,6.970078521e-05,-2.957390745e-03,-1.455491966e-03,-1.852052136e-05,-1.474012488e-03,-2.626657723e-03,-2.142917967e-04,-2.840949520e-03,-1.951913971e-03,-1.855817422e-04,-2.137495713e-03,-1.569046589e-03,1.223356481e-05,-1.556813024e-03,-1.208861377e-03,-4.111218208e-05,-1.249973559e-03,-2.802516153e-03,-1.529408655e-04,-2.955457019e-03,-1.885536379e-03,-8.058098211e-05,-1.966117361e-03,-1.648132932e-03,7.733919728e-06,-1.640399013e-03,-9.368027093e-04,9.362597832e-05,-8.431767309e-04,-2.792914267e-03,3.493191214e-04,-2.443595145e-03,-1.542010341e-03,-3.991836617e-05,-1.581928707e-03,-1.803826446e-03,3.110042404e-06,-1.800716404e-03,-3.372556727e-03,-2.436468626e-04,-3.616203589e-03,-2.440200207e-03,-1.215513278e-04,-2.561751535e-03,-3.802218663e-03,-1.353213156e-04,-3.937539979e-03,-2.082921764e-03,-1.239915088e-04,-2.206913273e-03,-2.453381428e-03,-1.589247430e-04,-2.612306171e-03,-2.409256070e-03,-4.790210591e-05,-2.457158176e-03,-2.408244274e-03,-8.005110586e-05,-2.488295380e-03
-8.7,-1.006257299e-04,-1.030597189e-04,-2.036854488e-04,-1.192867825e-03,3.864605336e-05,-1.154221771e-03,-7.418570071e-04,-4.082547446e-05,-7.826824816e-04,-1.517128136e-03,6.661427841e-05,-1.450513858e-03,-1.354706306e-03,1.107974639e-04,-1.243908842e-03,-1.131355464e-03,-6.240920631e-06,-1.137596384e-03,-1.571547507e-03,-6.164500109e-05,-1.633192508e-03,-1.645105762e-03,-6.630233324e-05,-1.711408095e-03,-1.517497943e-03,1.408659117e-04,-1.376632031e-03,-2.275996999e-03,-7.056822013e-05,-2.346565219e-03,-1.484924143e-03,1.134426917e-04,-1.371481451e-03,-2.549668765e-03,5.064480517e-04,-2.043220713e-03,-2.714462692e-03,2.048153217e-04,-2.509647370e-03,-1.456184992e-03,2.210860831e-04,-1.235098909e-03,-2.119580321e-03,3.188914265e-04,-1.800688895e-03,-1.153978593e-03,4.792603462e-06,-1.149185990e-03,-2.952021616e-03,5.144872815e-05,-2.900572888e-03,-1.425590119e-03,-3.251917820e-05,-1.458109297e-03,-2.566391938e-03,-2.207725770e-04,-2.787164515e-03,-1.938496970e-03,-1.824473683e-04,-2.120944339e-03,-1.557974252e-03,7.195070117e-06,-1.550779182e-03,-1.204589615e-03,-4.173452479e-05,-1.246324140e-03,-2.779984834e-03,-1.504058892e-04,-2.930390723e-03,-1.865071462e-03,-8.061179607e-05,-1.945683258e-03,-1.606206206e-03,-4.698152134e-06,-1.610904358e-03,-8.989774875e-04,5.947296386e-05,-8.395045237e-04,-2.740289363e-03,3.549398576e-04,-2.385349506e-03,-1.523536570e-03,-4.541917202e-05,-1.568955742e-03,-1.795251581e-03,2.102122308e-06,-1.793149459e-03,-3.334565406e-03,-2.391870618e-04,-3.573752468e-03,-2.416403139e-03,-1.286291643e-04,-2.545032303e-03,-3.751733085e-03,-1.307031893e-04,-3.882436274e-03,-2.082909204e-03,-1.161306366e-04,-2.199039841e-03,-2.442988300e-03,-1.556428089e-04,-2.598631109e-03,-2.408191986e-03,-3.520123985e-05,-2.443393225e-03,-2.391038164e-03,-7.955890317e-05,-2.470597067e-03
-8.6,-1.029372724e-04,-1.072323489e-04,-2.101696213e-04,-1.177715401e-03,3.189283211e-05,-1.145822569e-03,-7.280774052e-04,-4.900072414e-05,-7.770781293e-04,-1.496084083e-03,5.281162168e-05,-1.443272461e-03,-1.312406182e-03,9.106068871e-05,-1.221345494e-03,-1.115155460e-03,-2.357265947e-05,-1.138728119e-03,-1.563499649e-03,-7.607621106e-05,-1.639575860e-03,-1.632207812e-03,-6.718286831e-05,-1.699390681e-03,-1.491816462e-03,1.371316583e-04,-1.354684804e-03,-2.272688685e-03,-6.498991949e-05,-2.337678604e-03,-1.459822799e-03,1.024080085e-04,-1.357414790e-03,-2.482737289e-03,4.586088370e-04,-2.024128452e-03,-2.680245536e-03,1.814968440e-04,-2.498748692e-03,-1.431852334e-03,2.032719028e-04,-1.228580431e-03,-2.099788067e-03,3.066854973e-04,-1.793102570e-03,-1.153732067e-03,-1.560393049e-07,-1.153888106e-03,-2.872930668e-03,3.218631092e-05,-2.840744358e-03,-1.392475085e-03,-4.753728245e-05,-1.440012367e-03,-2.503331829e-03,-2.266799337e-04,-2.730011763e-03,-1.923777609e-03,-1.787684880e-04,-2.102546096e-03,-1.546632967e-03,2.119189605e-06,-1.544513777e-03,-1.200439154e-03,-4.217900640e-05,-1.242618160e-03,-2.756807853e-03,-1.477144796e-04,-2.904522332e-03,-1.844683062e-03,-8.058067851e-05,-1.925263741e-03,-1.563640993e-03,-1.702416157e-05,-1.580665154e-03,-8.591669648e-04,2.457216735e-05,-8.345947975e-04,-2.681416875e-03,3.571800583e-04,-2.324236816e-03,-1.504565506e-03,-5.086820034e-05,-1.555433706e-03,-1.784065889e-03,4.147578512e-07,-1.783651131e-03,-3.293886963e-03,-2.341245141e-04,-3.528011478e-03,-2.389993003e-03,-1.347769282e-04,-2.524769931e-03,-3.695090948e-03,-1.267583914e-04,-3.821849340e-03,-2.079824560e-03,-1.080731793e-04,-2.187897740e-03,-2.430101844e-03,-1.519695013e-04,-2.582071345e-03,-2.402682184e-03,-2.269337186e-05,-2.425375556e-03,-2.371251972e-03,-7.889024947e-05,-2.450142222e-03
-8.5,-1.058358760e-04,-1.110028259e-04,-2.168387019e-04,-1.162726860e-03,2.538757588e-05,-1.137339284e-03,-7.146379080e-04,-5.690398369e-05,-7.715418917e-04,-1.474424365e-03,3.896010063e-05,-1.435464264e-03,-1.269353325e-03,7.058567459e-05,-1.198767650e-03,-1.098183717e-03,-4.014447320e-05,-1.138328190e-03,-1.552407912e-03,-8.976982319e-05,-1.642177735e-03,-1.616275538e-03,-6.791883284e-05,-1.684194371e-03,-1.465855905e-03,1.334744292e-04,-1.332381475e-03,-2.265678184e-03,-5.932037702e-05,-2.324998561e-03,-1.434137840e-03,9.113724790e-05,-1.343000592e-03,-2.414120848e-03,4.106871555e-04,-2.003433693e-03,-2.644174355e-03,1.577885649e-04,-2.486385790e-03,-1.405952709e-03,1.853837824e-04,-1.220568927e-03,-2.077441411e-03,2.931978053e-04,-1.784243605e-03,-1.153304601e-03,-5.485410573e-06,-1.158790011e-03,-2.790382264e-03,1.213157072e-05,-2.778250693e-03,-1.356321978e-03,-6.350341221e-05,-1.419825390e-03,-2.437872331e-03,-2.319464608e-04,-2.669818791e-03,-1.907791741e-03,-1.745083549e-04,-2.082300095e-03,-1.535111818e-03,-2.927706479e-06,-1.538039524e-03,-1.196421595e-03,-4.241734752e-05,-1.238838942e-03,-2.733040845e-03,-1.448458347e-04,-2.877886679e-03,-1.824426350e-03,-8.048603628e-05,-1.904912386e-03,-1.520668407e-03,-2.911200953e-05,-1.549780417e-03,-8.176074097e-04,-1.086041348e-05,-8.284678231e-04,-2.616265078e-03,3.556293698e-04,-2.260635709e-03,-1.485151489e-03,-5.623377624e-05,-1.541385265e-03,-1.770359894e-03,-1.884726672e-06,-1.772244620e-03,-3.250686160e-03,-2.284542256e-04,-3.479140385e-03,-2.361092140e-03,-1.399502805e-04,-2.501042421e-03,-3.632411096e-03,-1.235105340e-04,-3.755921630e-03,-2.073607208e-03,-9.990521540e-05,-2.173512423e-03,-2.414794171e-03,-1.479027056e-04,-2.562696876e-03,-2.392728102e-03,-1.045988002e-05,-2.403187982e-03,-2.348895575e-03,-7.804024960e-05,-2.426935825e-03
-8.4,-1.093992239e-04,-1.143658697e-04,-2.237650936e-04,-1.147970636e-03,1.916495387e-05,-1.128805682e-03,-7.015992902e-04,-6.447405194e-05,-7.660733422e-04,-1.452248517e-03,2.517161135e-05,-1.427076906e-03,-1.225870743e-03,4.953271403e-05,-1.176338029e-03,-1.080616335e-03,-5.588803212e-05,-1.136504367e-03,-1.538513366e-03,-1.027155151e-04,-1.641228881e-03,-1.597411127e-03,-6.853923960e-05,-1.665950367e-03,-1.439716095e-03,1.299011288e-04,-1.309814966e-03,-2.255068751e-03,-5.356463073e-05,-2.308633382e-03,-1.408049998e-03,7.972035240e-05,-1.328329646e-03,-2.344096595e-03,3.630280850e-04,-1.981068510e-03,-2.606435790e-03,1.339250069e-04,-2.472510783e-03,-1.378620136e-03,1.675135610e-04,-1.211106575e-03,-2.052753739e-03,2.786186453e-04,-1.774135094e-03,-1.152635164e-03,-1.117609021e-05,-1.163811254e-03,-2.704978976e-03,-8.458893523e-06,-2.713437870e-03,-1.317312085e-03,-8.033622478e-05,-1.397648309e-03,-2.370389346e-03,-2.365120970e-04,-2.606901443e-03,-1.890561946e-03,-1.696357198e-04,-2.060197665e-03,-1.523488195e-03,-7.880352544e-06,-1.531368547e-03,-1.192531223e-03,-4.242518058e-05,-1.234956403e-03,-2.708723127e-03,-1.417806786e-04,-2.850503806e-03,-1.804334704e-03,-8.032794526e-05,-1.884662649e-03,-1.477471046e-03,-4.084184996e-05,-1.518312896e-03,-7.745484709e-04,-4.660486914e-05,-8.211533400e-04,-2.544839710e-03,3.499426038e-04,-2.194897106e-03,-1.465322271e-03,-6.149279833e-05,-1.526815069e-03,-1.754225762e-03,-4.721968228e-06,-1.758947730e-03,-3.205109041e-03,-2.221818684e-04,-3.427290910e-03,-2.329810158e-03,-1.441146639e-04,-2.473924822e-03,-3.563832961e-03,-1.209728801e-04,-3.684805841e-03,-2.064203982e-03,-9.170874540e-05,-2.155912727e-03,-2.397111135e-03,-1.434500517e-04,-2.540561187e-03,-2.378346960e-03,1.420776049e-06,-2.376926184e-03,-2.323966798e-03,-7.700659386e-05,-2.400973392e-03
-8.3,-1.136852972e-04,-1.173215311e-04,-2.310068283e-04,-1.133497848e-03,1.325556448e-05,-1.120242284e-03,-6.890036053e-04,-7.165670370e-05,-7.606603090e-04,-1.429640341e-03,1.155180698e-05,-1.418088534e-03,-1.182268591e-03,2.806250212e-05,-1.154206089e-03,-1.062616209e-03,-7.074306788e-05,-1.133359276e-03,-1.522072896e-03,-1.149118985e-04,-1.636984795e-03,-1.575725459e-03,-6.907399535e-05,-1.644799454e-03,-1.413486099e-03,1.264173048e-04,-1.287068795e-03,-2.240970869e-03,-4.773082833e-05,-2.288701698e-03,-1.381728599e-03,6.824440666e-05,-1.313484193e-03,-2.272918623e-03,3.159700837e-04,-1.956948539e-03,-2.567203269e-03,1.101369239e-04,-2.457066345e-03,-1.349985938e-03,1.497542549e-04,-1.200231683e-03,-2.025940702e-03,2.631461323e-04,-1.762794570e-03,-1.151645045e-03,-1.719990035e-05,-1.168844945e-03,-2.617356511e-03,-2.929628304e-05,-2.646652794e-03,-1.275636083e-03,-9.794376878e-05,-1.373579852e-03,-2.301237321e-03,-2.403253364e-04,-2.541562658e-03,-1.872099532e-03,-1.641254696e-04,-2.036225002e-03,-1.511827759e-03,-1.267538492e-05,-1.524503144e-03,-1.188746889e-03,-4.218246659e-05,-1.230929356e-03,-2.683877167e-03,-1.385016936e-04,-2.822378860e-03,-1.784420362e-03,-8.010802832e-05,-1.864528391e-03,-1.434185933e-03,-5.210779800e-05,-1.486293731e-03,-7.302544547e-04,-8.243387717e-05,-8.126883319e-04,-2.467192594e-03,3.398605207e-04,-2.127332073e-03,-1.445083560e-03,-6.662782657e-05,-1.511711387e-03,-1.735758089e-03,-8.017198141e-06,-1.743775287e-03,-3.157280946e-03,-2.153246311e-04,-3.372605577e-03,-2.296245558e-03,-1.472445267e-04,-2.443490084e-03,-3.489519862e-03,-1.191471810e-04,-3.608667043e-03,-2.051572321e-03,-8.356112320e-05,-2.135133444e-03,-2.377074365e-03,-1.386296786e-04,-2.515704044e-03,-2.359573695e-03,1.287362819e-05,-2.346700067e-03,-2.296453913e-03,-7.578996274e-05,-2.372243876e-03
-8.2,-1.187329318e-04,-1.198743688e-04,-2.386073007e-04,-1.119342705e-03,7.685967042e-06,-1.111656738e-03,-6.768752281e-04,-7.840501206e-05,-7.552802401e-04,-1.406669106e-03,-1.800325010e-06,-1.408469431e-03,-1.138841486e-03,6.335337387e-06,-1.132506148e-03,-1.044331396e-03,-8.465702916e-05,-1.128988425e-03,-1.503352711e-03,-1.263649559e-04,-1.629717667e-03,-1.551337835e-03,-6.955268663e-05,-1.620890522e-03,-1.387243602e-03,1.230273923e-04,-1.264216210e-03,-2.223499262e-03,-4.182979971e-05,-2.265329062e-03,-1.355329580e-03,5.679306408e-05,-1.298536516e-03,-2.200818832e-03,2.698424027e-04,-1.930976429e-03,-2.526633383e-03,8.664662695e-05,-2.439986756e-03,-1.320178491e-03,1.321995178e-04,-1.187978973e-03,-1.997216795e-03,2.469838742e-04,-1.750232921e-03,-1.150243391e-03,-2.351870513e-05,-1.173762096e-03,-2.528173103e-03,-5.006782694e-05,-2.578240930e-03,-1.231497758e-03,-1.162216699e-04,-1.347719428e-03,-2.230746756e-03,-2.433436032e-04,-2.474090359e-03,-1.852405004e-03,-1.579590598e-04,-2.010364064e-03,-1.500183478e-03,-1.725217320e-05,-1.517435652e-03,-1.185032786e-03,-4.167367441e-05,-1.226706460e-03,-2.658507258e-03,-1.349939554e-04,-2.793501214e-03,-1.764674464e-03,-7.982924762e-05,-1.844503711e-03,-1.390906758e-03,-6.282047848e-05,-1.453727237e-03,-6.850066395e-04,-1.181081914e-04,-8.031148309e-04,-2.383430957e-03,3.252229623e-04,-2.058207995e-03,-1.424422228e-03,-7.162422887e-05,-1.496046457e-03,-1.715052944e-03,-1.168706801e-05,-1.726740012e-03,-3.107303364e-03,-2.079115011e-04,-3.315214865e-03,-2.260486116e-03,-1.493226066e-04,-2.409808722e-03,-3.409663723e-03,-1.180212186e-04,-3.527684941e-03,-2.035681292e-03,-7.553506373e-05,-2.111216356e-03,-2.354683582e-03,-1.334699476e-04,-2.488153529e-03,-2.336460877e-03,2.382768288e-05,-2.312633194e-03,-2.266336309e-03,-7.439441433e-05,-2.340730724e-03
-8.1,-1.245620967e-04,-1.220326944e-04,-2.465947911e-04,-1.105522332e-03,2.478684876e-06,-1.103043647e-03,-6.652207908e-04,-8.467940317e-05,-7.499001940e-04,-1.383389179e-03,-1.479287059e-05,-1.398182049e-03,-1.095864550e-03,-1.548963752e-05,-1.111354187e-03,-1.025893182e-03,-9.758493332e-05,-1.123478115e-03,-1.482621331e-03,-1.370866573e-04,-1.619707989e-03,-1.524375117e-03,-7.000319110e-05,-1.594378308e-03,-1.361053671e-03,1.197348537e-04,-1.241318817e-03,-2.202769297e-03,-3.587477342e-05,-2.238644070e-03,-1.328992956e-03,4.544582431e-05,-1.283547132e-03,-2.128005427e-03,2.249616500e-04,-1.903043777e-03,-2.484861762e-03,6.366524131e-05,-2.421196521e-03,-1.289320694e-03,1.149426887e-04,-1.174378006e-03,-1.966790076e-03,2.303385985e-04,-1.736451477e-03,-1.148332475e-03,-3.008252515e-05,-1.178415000e-03,-2.438093685e-03,-7.044611771e-05,-2.508539802e-03,-1.185115977e-03,-1.350515495e-04,-1.320167526e-03,-2.159219626e-03,-2.455336631e-04,-2.404753289e-03,-1.831466548e-03,-1.511247531e-04,-1.982591301e-03,-1.488593302e-03,-2.155366752e-05,-1.510146969e-03,-1.181337674e-03,-4.088775610e-05,-1.222225430e-03,-2.632597256e-03,-1.312453792e-04,-2.763842635e-03,-1.745066149e-03,-7.949564610e-05,-1.824561795e-03,-1.347685730e-03,-7.290917330e-05,-1.420594903e-03,-6.391042005e-04,-1.533725601e-04,-7.924767606e-04,-2.293733624e-03,3.059803515e-04,-1.987753273e-03,-1.403306982e-03,-7.646770428e-05,-1.479774686e-03,-1.692204724e-03,-1.564660180e-05,-1.707851326e-03,-3.055250069e-03,-1.999827184e-04,-3.255232787e-03,-2.222607064e-03,-1.503396539e-04,-2.372946718e-03,-3.324488243e-03,-1.175664781e-04,-3.442054721e-03,-2.016510120e-03,-6.769876562e-05,-2.084208886e-03,-2.329918446e-03,-1.280080259e-04,-2.457926472e-03,-2.309075736e-03,3.421619833e-05,-2.274859538e-03,-2.233582695e-03,-7.282774288e-05,-2.306410438e-03
-8,-1.311736501e-04,-1.238079559e-04,-2.549816060e-04,-1.092035825e-03,-2.347861773e-06,-1.094383687e-03,-6.540280435e-04,-9.044751057e-05,-7.444755541e-04,-1.359838062e-03,-2.734139547e-05,-1.387179458e-03,-1.053588466e-03,-3.725532054e-05,-1.090843786e-03,-1.007413910e-03,-1.094893477e-04,-1.116903258e-03,-1.460142978e-03,-1.470940366e-04,-1.607237014e-03,-1.494970053e-03,-7.045037351e-05,-1.565420426e-03,-1.334967035e-03,1.165421555e-04,-1.218424879e-03,-2.178893290e-03,-2.988135866e-05,-2.208774649e-03,-1.302839954e-03,3.427712855e-05,-1.268562826e-03,-2.054658349e-03,1.816270976e-04,-1.873031251e-03,-2.441998276e-03,4.139148033e-05,-2.400606795e-03,-1.257525786e-03,9.807557972e-05,-1.159450206e-03,-1.934855154e-03,2.134175382e-04,-1.721437616e-03,-1.145811106e-03,-3.682784925e-05,-1.182638955e-03,-2.347769566e-03,-9.009917020e-05,-2.437868736e-03,-1.136723279e-03,-1.543013362e-04,-1.291024615e-03,-2.086922270e-03,-2.468725528e-04,-2.333794822e-03,-1.809257211e-03,-1.436177979e-04,-1.952875009e-03,-1.477076786e-03,-2.552726424e-05,-1.502604050e-03,-1.177593053e-03,-3.981807061e-05,-1.217411124e-03,-2.606107818e-03,-1.272471788e-04,-2.733354996e-03,-1.725541033e-03,-7.911209445e-05,-1.804653127e-03,-1.304536038e-03,-8.232229334e-05,-1.386858332e-03,-5.928617355e-04,-1.879537248e-04,-7.808154603e-04,-2.198373714e-03,2.822061881e-04,-1.916167526e-03,-1.381686683e-03,-8.114239536e-05,-1.462829079e-03,-1.667301640e-03,-1.981117765e-05,-1.687112818e-03,-3.001163485e-03,-1.915884599e-04,-3.192751945e-03,-2.182667381e-03,-1.502946653e-04,-2.332962047e-03,-3.234248253e-03,-1.177373966e-04,-3.351985649e-03,-1.994044568e-03,-6.011599588e-05,-2.054160564e-03,-2.302740007e-03,-1.222874934e-04,-2.425027500e-03,-2.277494916e-03,4.397689892e-05,-2.233518017e-03,-2.198147960e-03,-7.110151854e-05,-2.269249478e-03
-7.9,-1.385487937e-04,-1.252141597e-04,-2.637629533e-04,-1.078862916e-03,-6.779415717e-06,-1.085642332e-03,-6.432644181e-04,-9.568395129e-05,-7.389483694e-04,-1.336033817e-03,-3.936932816e-05,-1.375403145e-03,-1.012234651e-03,-5.880776385e-05,-1.071042414e-03,-9.889849480e-04,-1.203404833e-04,-1.109325431e-03,-1.436172258e-03,-1.564088030e-04,-1.592581061e-03,-1.463259164e-03,-7.091499094e-05,-1.534174155e-03,-1.309018381e-03,1.134505863e-04,-1.195567794e-03,-2.151977509e-03,-2.386776065e-05,-2.175845270e-03,-1.276970363e-03,2.335533340e-05,-1.253615030e-03,-1.980922408e-03,1.401144818e-04,-1.840807926e-03,-2.398122385e-03,2.001075510e-05,-2.378111630e-03,-1.224892987e-03,8.168719295e-05,-1.143205794e-03,-1.901586132e-03,1.964256221e-04,-1.705160510e-03,-1.142576057e-03,-4.367698034e-05,-1.186253038e-03,-2.257816963e-03,-1.087003703e-04,-2.366517333e-03,-1.086561238e-03,-1.738278396e-04,-1.260389077e-03,-2.014077347e-03,-2.473489730e-04,-2.261426320e-03,-1.785732278e-03,-1.354406454e-04,-1.921172923e-03,-1.465631752e-03,-2.912564155e-05,-1.494757394e-03,-1.173711481e-03,-3.846237041e-05,-1.212173852e-03,-2.578974103e-03,-1.229942875e-04,-2.701968390e-03,-1.706019895e-03,-7.868404883e-05,-1.784703944e-03,-1.261436103e-03,-9.102560128e-05,-1.352461704e-03,-5.466028911e-04,-2.215617346e-04,-7.681646257e-04,-2.097738732e-03,2.541062593e-04,-1.843632472e-03,-1.359487962e-03,-8.562972257e-05,-1.445117684e-03,-1.640421516e-03,-2.409843182e-05,-1.664519947e-03,-2.945052500e-03,-1.827870263e-04,-3.127839526e-03,-2.140705761e-03,-1.491952616e-04,-2.289901023e-03,-3.139225756e-03,-1.184725566e-04,-3.257698313e-03,-1.968272632e-03,-5.284614665e-05,-2.021118778e-03,-2.273092595e-03,-1.163553953e-04,-2.389447991e-03,-2.241799322e-03,5.305254077e-05,-2.188746781e-03,-2.159970984e-03,-6.923061362e-05,-2.229201598e-03
-7.8,-1.466487964e-04,-1.262671701e-04,-2.729159665e-04,-1.065963027e-03,-1.080582732e-05,-1.076768855e-03,-6.328763168e-04,-1.003701521e-04,-7.332464689e-04,-1.311973210e-03,-5.080832739e-05,-1.362781537e-03,-9.719918079e-04,-7.999748572e-05,-1.051989294e-03,-9.706751289e-04,-1.301164555e-04,-1.100791584e-03,-1.410950449e-03,-1.650572387e-04,-1.576007688e-03,-1.429380812e-03,-7.141277936e-05,-1.500793592e-03,-1.283225209e-03,1.104600170e-04,-1.172765192e-03,-2.122120407e-03,-1.785501362e-05,-2.139975421e-03,-1.251460584e-03,1.274174476e-05,-1.238718839e-03,-1.906899800e-03,1.006685618e-04,-1.806231238e-03,-2.353280237e-03,-3.062664043e-07,-2.353586503e-03,-1.191504299e-03,6.586242785e-05,-1.125641871e-03,-1.867131655e-03,1.795626317e-04,-1.687569023e-03,-1.138522972e-03,-5.053865162e-05,-1.189061624e-03,-2.168798279e-03,-1.259373071e-04,-2.294735586e-03,-1.034874674e-03,-1.934802214e-04,-1.228354895e-03,-1.940857591e-03,-2.469645002e-04,-2.187822091e-03,-1.760828229e-03,-1.266031580e-04,-1.887431387e-03,-1.454232122e-03,-3.230742434e-05,-1.486539547e-03,-1.169586196e-03,-3.682282987e-05,-1.206409025e-03,-2.551104741e-03,-1.184856569e-04,-2.669590398e-03,-1.686398450e-03,-7.821727472e-05,-1.764615725e-03,-1.218335928e-03,-9.899890114e-05,-1.317334829e-03,-5.006508626e-04,-2.538950157e-04,-7.545458783e-04,-1.992339347e-03,2.220198305e-04,-1.770319517e-03,-1.336614288e-03,-8.990790603e-05,-1.426522194e-03,-1.611629335e-03,-2.842998354e-05,-1.640059319e-03,-2.886892372e-03,-1.736429959e-04,-3.060535368e-03,-2.096738019e-03,-1.470577953e-04,-2.243795814e-03,-3.039724639e-03,-1.196972894e-04,-3.159421929e-03,-1.939181593e-03,-4.594416018e-05,-1.985125753e-03,-2.240906966e-03,-1.102593765e-04,-2.351166343e-03,-2.202071583e-03,6.139218178e-05,-2.140679401e-03,-2.118975287e-03,-6.723236900e-05,-2.186207656e-03
-7.7,-1.554155103e-04,-1.269838513e-04,-2.823993616e-04,-1.053275305e-03,-1.442085842e-05,-1.067696163e-03,-6.227897011e-04,-1.044943095e-04,-7.272840105e-04,-1.287631369e-03,-6.159865677e-05,-1.349230026e-03,-9.330143943e-04,-1.006808123e-04,-1.033695207e-03,-9.525298431e-04,-1.388036895e-04,-1.091333533e-03,-1.384702890e-03,-1.730699003e-04,-1.557772790e-03,-1.393473826e-03,-7.195362360e-05,-1.465427450e-03,-1.257587542e-03,1.075687770e-04,-1.150018765e-03,-2.089412026e-03,-1.186693637e-05,-2.101278962e-03,-1.226362605e-03,2.489962552e-06,-1.223872642e-03,-1.832643884e-03,6.349551815e-05,-1.769148366e-03,-2.307484800e-03,-1.940565341e-05,-2.326890453e-03,-1.157422976e-03,5.068073198e-05,-1.106742244e-03,-1.831613080e-03,1.630202867e-04,-1.668592794e-03,-1.133547704e-03,-5.730999162e-05,-1.190857695e-03,-2.081207813e-03,-1.415193657e-04,-2.222727179e-03,-9.819069939e-04,-2.131027005e-04,-1.195009694e-03,-1.867383370e-03,-2.457339073e-04,-2.113117278e-03,-1.734463858e-03,-1.171227029e-04,-1.851586561e-03,-1.442827482e-03,-3.503756035e-05,-1.477865042e-03,-1.165092498e-03,-3.490603387e-05,-1.199998532e-03,-2.522382355e-03,-1.137243929e-04,-2.636106747e-03,-1.666548532e-03,-7.771753594e-05,-1.744266068e-03,-1.175164772e-03,-1.062327377e-04,-1.281397510e-03,-4.553175672e-04,-2.846484761e-04,-7.399660433e-04,-1.882804549e-03,1.864122954e-04,-1.696392253e-03,-1.312947967e-03,-9.395198415e-05,-1.406899952e-03,-1.580977005e-03,-3.273291478e-05,-1.613709920e-03,-2.826626599e-03,-1.642258108e-04,-2.990852410e-03,-2.050756860e-03,-1.439071109e-04,-2.194663971e-03,-2.936064962e-03,-1.213273800e-04,-3.057392342e-03,-1.906757759e-03,-3.946012093e-05,-1.946217880e-03,-2.206104501e-03,-1.040455870e-04,-2.310150088e-03,-2.158396991e-03,6.895296965e-05,-2.089444021e-03,-2.075072726e-03,-6.512595223e-05,-2.140198679e-03
-7.6,-1.647728243e-04,-1.273811721e-04,-2.921539964e-04,-1.040719778e-03,-1.762190404e-05,-1.058341682e-03,-6.129119582e-04,-1.080514692e-04,-7.209634274e-04,-1.262963032e-03,-7.168954244e-05,-1.334652574e-03,-8.954227448e-04,-1.207210412e-04,-1.016143786e-03,-9.345707517e-04,-1.463972795e-04,-1.080968031e-03,-1.357636630e-03,-1.804806947e-04,-1.538117325e-03,-1.355676606e-03,-7.254076495e-05,-1.428217371e-03,-1.232088465e-03,1.047737518e-04,-1.127314713e-03,-2.053934080e-03,-5.929643801e-06,-2.059863724e-03,-1.201703892e-03,-7.354284963e-06,-1.209058177e-03,-1.758155674e-03,2.875654194e-05,-1.729399132e-03,-2.260719041e-03,-3.715228348e-05,-2.297871324e-03,-1.122693538e-03,3.621468799e-05,-1.086478850e-03,-1.795125212e-03,1.469791294e-04,-1.648146083e-03,-1.127547651e-03,-6.388007702e-05,-1.191427728e-03,-1.995461663e-03,-1.551848264e-04,-2.150646490e-03,-9.278977620e-04,-2.325358348e-04,-1.160433597e-03,-1.793724175e-03,-2.436847320e-04,-2.037408907e-03,-1.706543267e-03,-1.070240900e-04,-1.813567357e-03,-1.431344219e-03,-3.728744840e-05,-1.468631667e-03,-1.160090643e-03,-3.272290778e-05,-1.192813550e-03,-2.492665384e-03,-1.087177738e-04,-2.601383158e-03,-1.646320455e-03,-7.719032516e-05,-1.723510780e-03,-1.131838824e-03,-1.127261885e-04,-1.244565012e-03,-4.108941765e-04,-3.135226573e-04,-7.244168337e-04,-1.769864662e-03,1.478605845e-04,-1.622004078e-03,-1.288355075e-03,-9.773411432e-05,-1.386089190e-03,-1.548504800e-03,-3.694099879e-05,-1.585445799e-03,-2.764170227e-03,-1.546088703e-04,-2.918779098e-03,-2.002733981e-03,-1.397760163e-04,-2.142509998e-03,-2.828577100e-03,-1.232739179e-04,-2.951851018e-03,-1.870988870e-03,-3.343843999e-05,-1.904427310e-03,-2.168601537e-03,-9.775780254e-05,-2.266359339e-03,-2.110867062e-03,7.570182629e-05,-2.035165236e-03,-2.028168988e-03,-6.293238754e-05,-2.091101376e-03
-7.5,-1.746288729e-04,-1.274753982e-04,-3.021042710e-04,-1.028199445e-03,-2.040969653e-05,-1.048609141e-03,-6.031346674e-04,-1.110436012e-04,-7.141782686e-04,-1.237904982e-03,-8.103943199e-05,-1.318944414e-03,-8.593041461e-04,-1.399893002e-04,-9.992934463e-04,-9.167960657e-04,-1.529010377e-04,-1.069697103e-03,-1.329937705e-03,-1.873252172e-04,-1.517262923e-03,-1.316126357e-03,-7.317014742e-05,-1.389296504e-03,-1.206695255e-03,1.020706586e-04,-1.104624597e-03,-2.015760137e-03,-7.071314691e-08,-2.015830850e-03,-1.177488046e-03,-1.675284453e-05,-1.194240890e-03,-1.683383733e-03,-3.436568130e-06,-1.686820301e-03,-2.212940660e-03,-5.343163265e-05,-2.266372293e-03,-1.087342760e-03,2.252858772e-05,-1.064814172e-03,-1.757738324e-03,1.316053737e-04,-1.626132951e-03,-1.120422472e-03,-7.013503485e-05,-1.190557507e-03,-1.911891750e-03,-1.667077626e-04,-2.078599512e-03,-8.730821930e-04,-2.516168549e-04,-1.124699048e-03,-1.719902488e-03,-2.408568292e-04,-1.960759317e-03,-1.676959953e-03,-9.633937050e-05,-1.773299324e-03,-1.419687692e-03,-3.903497542e-05,-1.458722667e-03,-1.154429524e-03,-3.028862660e-05,-1.184718151e-03,-2.461790694e-03,-1.034771961e-04,-2.565267890e-03,-1.625545997e-03,-7.664069215e-05,-1.702186689e-03,-1.088268043e-03,-1.184855063e-04,-1.206753549e-03,-3.676450302e-04,-3.402317792e-04,-7.078768095e-04,-1.654324819e-03,1.070318079e-04,-1.547293011e-03,-1.262692143e-03,-1.012240675e-04,-1.363916211e-03,-1.514243387e-03,-4.099572930e-05,-1.555239116e-03,-2.699414159e-03,-1.448687397e-04,-2.844282899e-03,-1.952623728e-03,-1.347044772e-04,-2.087328205e-03,-2.717596429e-03,-1.254488928e-04,-2.843045322e-03,-1.831868112e-03,-2.791677857e-05,-1.859784890e-03,-2.128313102e-03,-9.143755340e-05,-2.219750656e-03,-2.059584293e-03,8.161661011e-05,-1.977967683e-03,-1.978169583e-03,-6.067503669e-05,-2.038844619e-03
-7.4,-1.848786851e-04,-1.272813926e-04,-3.121600777e-04,-1.015602888e-03,-2.278800907e-05,-1.038390897e-03,-5.933367171e-04,-1.134795107e-04,-7.068162278e-04,-1.212379097e-03,-8.961609103e-05,-1.301995188e-03,-8.247140736e-04,-1.583651034e-04,-9.830791770e-04,-8.991813089e-04,-1.583270844e-04,-1.057508393e-03,-1.301767828e-03,-1.936385642e-04,-1.495406393e-03,-1.274957988e-03,-7.383010249e-05,-1.348788091e-03,-1.181360744e-03,9.945437172e-05,-1.081906372e-03,-1.974955438e-03,5.681730572e-06,-1.969273707e-03,-1.153695882e-03,-2.567459994e-05,-1.179370482e-03,-1.608227348e-03,-3.302373452e-05,-1.641251083e-03,-2.164085915e-03,-6.815141228e-05,-2.232237327e-03,-1.051380824e-03,9.677019134e-06,-1.041703805e-03,-1.719500085e-03,1.170480734e-04,-1.602452012e-03,-1.112074050e-03,-7.596411672e-05,-1.188038167e-03,-1.830744017e-03,-1.759038906e-04,-2.006647907e-03,-8.176911942e-04,-2.701802189e-04,-1.087871413e-03,-1.645898568e-03,-2.373021208e-04,-1.883200689e-03,-1.645600930e-03,-8.510746101e-05,-1.730708391e-03,-1.407744726e-03,-4.026456490e-05,-1.448009291e-03,-1.147950274e-03,-2.762249402e-05,-1.175572768e-03,-2.429576325e-03,-9.801804544e-05,-2.527594370e-03,-1.604041420e-03,-7.607313680e-05,-1.680114557e-03,-1.044361937e-03,-1.235225627e-04,-1.167884500e-03,-3.258047245e-04,-3.645100761e-04,-6.903148006e-04,-1.537032963e-03,6.465578259e-05,-1.472377181e-03,-1.235812856e-03,-1.043900219e-04,-1.340202878e-03,-1.478215102e-03,-4.484724070e-05,-1.523062343e-03,-2.632230019e-03,-1.350841202e-04,-2.767314139e-03,-1.900367117e-03,-1.287386535e-04,-2.029105770e-03,-2.603458834e-03,-1.277705335e-04,-2.731229368e-03,-1.789398232e-03,-2.292491065e-05,-1.812323143e-03,-2.085156003e-03,-8.512448909e-05,-2.170280492e-03,-2.004666611e-03,8.668677051e-05,-1.917979840e-03,-1.924985751e-03,-5.837972428e-05,-1.983365475e-03
-7.3,-1.954068864e-04,-1.268120293e-04,-3.222189158e-04,-1.002806915e-03,-2.476335598e-05,-1.027570271e-03,-5.833871105e-04,-1.153745047e-04,-6.987616152e-04,-1.186295215e-03,-9.739655327e-05,-1.283691769e-03,-7.916768884e-04,-1.757367077e-04,-9.674135961e-04,-8.816803713e-04,-1.626950666e-04,-1.044375438e-03,-1.273260715e-03,-1.994529971e-04,-1.472713712e-03,-1.232302339e-03,-7.450149852e-05,-1.306803837e-03,-1.156024521e-03,9.691920193e-05,-1.059105319e-03,-1.931576140e-03,1.129978119e-05,-1.920276358e-03,-1.130286486e-03,-3.409495667e-05,-1.164381443e-03,-1.532541808e-03,-5.999725705e-05,-1.592539065e-03,-2.114070107e-03,-8.124364934e-05,-2.195313757e-03,-1.014801680e-03,-2.296509860e-06,-1.017098190e-03,-1.680436056e-03,1.034367132e-04,-1.576999342e-03,-1.102405387e-03,-8.126600926e-05,-1.183671396e-03,-1.752179462e-03,-1.826344725e-04,-1.934813935e-03,-7.619502864e-04,-2.880595317e-04,-1.050009818e-03,-1.571655607e-03,-2.330840149e-04,-1.804739622e-03,-1.612349732e-03,-7.337355470e-05,-1.685723287e-03,-1.395385709e-03,-4.096721338e-05,-1.436352923e-03,-1.140488845e-03,-2.474770813e-05,-1.165236553e-03,-2.395823757e-03,-9.235949063e-05,-2.488183248e-03,-1.581609959e-03,-7.549150732e-05,-1.657101467e-03,-1.000033853e-03,-1.278526735e-04,-1.127886526e-03,-2.855767804e-04,-3.861174064e-04,-6.716941868e-04,-1.418847293e-03,2.149400370e-05,-1.397353289e-03,-1.207573122e-03,-1.071998245e-04,-1.314772946e-03,-1.440433295e-03,-4.845520683e-05,-1.488888502e-03,-2.562474742e-03,-1.253347619e-04,-2.687809504e-03,-1.845894997e-03,-1.219299882e-04,-1.967824985e-03,-2.486496427e-03,-1.301672530e-04,-2.616663680e-03,-1.743594305e-03,-1.848366392e-05,-1.762077969e-03,-2.039051398e-03,-7.885626926e-05,-2.117907667e-03,-1.946249737e-03,9.091356232e-05,-1.855336174e-03,-1.868539865e-03,-5.607394330e-05,-1.924613808e-03
-7.2,-2.060899681e-04,-1.260777873e-04,-3.321677554e-04,-9.896786826e-04,-2.634473536e-05,-1.016023418e-03,-5.731468414e-04,-1.167498431e-04,-6.898966845e-04,-1.159553061e-03,-1.043669832e-04,-1.263920045e-03,-7.601855216e-04,-1.920014243e-04,-9.521869459e-04,-8.642265499e-04,-1.660312446e-04,-1.030257794e-03,-1.244518484e-03,-2.047958851e-04,-1.449314369e-03,-1.188283569e-03,-7.515835129e-05,-1.263441920e-03,-1.130613712e-03,9.445908755e-05,-1.036154625e-03,-1.885668051e-03,1.675626544e-05,-1.868911786e-03,-1.107197919e-03,-4.199552554e-05,-1.149193445e-03,-1.456144131e-03,-8.440112235e-05,-1.540545254e-03,-2.062784090e-03,-9.266735944e-05,-2.155451449e-03,-9.775820410e-04,-1.336078803e-05,-9.909428290e-04,-1.640547904e-03,9.087911803e-05,-1.549668786e-03,-1.091317684e-03,-8.595479889e-05,-1.177272483e-03,-1.676275323e-03,-1.868083480e-04,-1.863083671e-03,-7.060762040e-04,-3.050913056e-04,-1.011167510e-03,-1.497084995e-03,-2.282759872e-04,-1.725360982e-03,-1.577087540e-03,-6.118839100e-05,-1.638275931e-03,-1.382465789e-03,-4.114047672e-05,-1.423606266e-03,-1.131877055e-03,-2.169096903e-05,-1.153568024e-03,-2.360319299e-03,-8.652424518e-05,-2.446843544e-03,-1.558043415e-03,-7.489890553e-05,-1.632942320e-03,-9.552028053e-04,-1.314926335e-04,-1.086695439e-03,-2.471326840e-04,-4.048450118e-04,-6.519776958e-04,-1.300606494e-03,-2.169096234e-05,-1.322297456e-03,-1.177833517e-03,-1.096227046e-04,-1.287456222e-03,-1.400899413e-03,-5.178967177e-05,-1.452689085e-03,-2.489993993e-03,-1.157008251e-04,-2.605694818e-03,-1.789129551e-03,-1.143344637e-04,-1.903464015e-03,-2.367032771e-03,-1.325794855e-04,-2.499612257e-03,-1.694484145e-03,-1.460404054e-05,-1.709088186e-03,-1.989926733e-03,-7.266775706e-05,-2.062594490e-03,-1.884486043e-03,9.430976368e-05,-1.790176279e-03,-1.808769510e-03,-5.378540992e-05,-1.862554920e-03
-7.1,-2.167977288e-04,-1.250866095e-04,-3.418843383e-04,-9.760769737e-04,-2.754348811e-05,-1.003620462e-03,-5.624696768e-04,-1.176320664e-04,-6.801017432e-04,-1.132042902e-03,-1.105224810e-04,-1.242565383e-03,-7.302002712e-04,-2.070660480e-04,-9.372663192e-04,-8.467333947e-04,-1.683676675e-04,-1.015101062e-03,-1.215608797e-03,-2.096883361e-04,-1.425297133e-03,-1.143015921e-03,-7.576885814e-05,-1.218784780e-03,-1.105043360e-03,9.206766852e-05,-1.012975691e-03,-1.837265346e-03,2.202499898e-05,-1.815240347e-03,-1.084347700e-03,-4.936404662e-05,-1.133711746e-03,-1.378818675e-03,-1.063287425e-04,-1.485147417e-03,-2.010088908e-03,-1.024107527e-04,-2.112499660e-03,-9.396793669e-04,-2.349773837e-05,-9.631771053e-04,-1.599809876e-03,7.945972345e-05,-1.520350152e-03,-1.078705621e-03,-8.996512390e-05,-1.168670744e-03,-1.603024856e-03,-1.883827458e-04,-1.791407602e-03,-6.502709123e-04,-3.211202259e-04,-9.713911382e-04,-1.422070994e-03,-2.229593364e-04,-1.645030331e-03,-1.539692708e-03,-4.860756354e-05,-1.588300272e-03,-1.368825182e-03,-4.078845939e-05,-1.409613642e-03,-1.121942409e-03,-1.848201028e-05,-1.140424419e-03,-2.322834811e-03,-8.053834586e-05,-2.403373157e-03,-1.533123049e-03,-7.429765621e-05,-1.607420705e-03,-9.097923656e-04,-1.344601565e-04,-1.044252522e-03,-2.106107032e-04,-4.205213751e-04,-6.311320783e-04,-1.183103504e-03,-6.416234041e-05,-1.247265844e-03,-1.146459333e-03,-1.116311076e-04,-1.258090440e-03,-1.359598948e-03,-5.483154376e-05,-1.414430491e-03,-2.414624436e-03,-1.062628024e-04,-2.520887238e-03,-1.729984339e-03,-1.060120564e-04,-1.835996396e-03,-2.245377607e-03,-1.349594527e-04,-2.380337060e-03,-1.642106435e-03,-1.128654863e-05,-1.653392983e-03,-1.937716834e-03,-6.658966280e-05,-2.004306497e-03,-1.819540126e-03,9.689899283e-05,-1.722641133e-03,-1.745629658e-03,-5.154075544e-05,-1.797170413e-03
-7,-2.273939278e-04,-1.238440435e-04,-3.512379713e-04,-9.618528152e-04,-2.837327581e-05,-9.902260910e-04,-5.512024503e-04,-1.180522759e-04,-6.692547263e-04,-1.103645499e-03,-1.158668197e-04,-1.219512319e-03,-7.016476280e-04,-2.208475086e-04,-9.224951366e-04,-8.290955183e-04,-1.697415639e-04,-9.988370822e-04,-1.186563501e-03,-2.141447408e-04,-1.400708242e-03,-1.096600455e-03,-7.629678993e-05,-1.172897245e-03,-1.079216791e-03,8.973823520e-05,-9.894785555e-04,-1.786389965e-03,2.708084452e-05,-1.759309121e-03,-1.061633567e-03,-5.619446447e-05,-1.117828032e-03,-1.300323688e-03,-1.259186012e-04,-1.426242289e-03,-1.955812166e-03,-1.104915098e-04,-2.066303676e-03,-9.010301495e-04,-3.270268737e-05,-9.337328368e-04,-1.558165486e-03,6.923831097e-05,-1.488927175e-03,-1.064451991e-03,-9.325620515e-05,-1.157708196e-03,-1.532336207e-03,-1.873633807e-04,-1.719699588e-03,-5.947141509e-04,-3.360049530e-04,-9.307191039e-04,-1.346474464e-03,-2.172206028e-04,-1.563695067e-03,-1.500040074e-03,-3.569098576e-05,-1.535731060e-03,-1.354289315e-03,-3.992186363e-05,-1.394211179e-03,-1.110507817e-03,-1.515317642e-05,-1.125660993e-03,-2.283128598e-03,-7.443093468e-05,-2.357559532e-03,-1.506620542e-03,-7.368938059e-05,-1.580309923e-03,-8.637277380e-04,-1.367749310e-04,-1.000502669e-03,-1.761140872e-04,-4.330179429e-04,-6.091320301e-04,-1.067062063e-03,-1.052310819e-04,-1.172293145e-03,-1.113319775e-03,-1.132022058e-04,-1.226521980e-03,-1.316498328e-03,-5.757245455e-05,-1.374070782e-03,-2.336195986e-03,-9.710144373e-05,-2.433297430e-03,-1.668364190e-03,-9.702641123e-05,-1.765390601e-03,-2.121821992e-03,-1.372693146e-04,-2.259091306e-03,-1.586507815e-03,-8.520771236e-06,-1.595028586e-03,-1.882364146e-03,-6.064706850e-05,-1.943011215e-03,-1.751583032e-03,9.871488688e-05,-1.652868145e-03,-1.679093440e-03,-4.936488276e-05,-1.728458323e-03
-6.9,-2.377366780e-04,-1.223535866e-04,-3.600902646e-04,-9.468501051e-04,-2.885009393e-05,-9.757001990e-04,-5.391858918e-04,-1.180454227e-04,-6.572313145e-04,-1.074232453e-03,-1.204121002e-04,-1.194644553e-03,-6.744203343e-04,-2.332737140e-04,-9.076940483e-04,-8.111897974e-04,-1.701949114e-04,-9.813847088e-04,-1.157379175e-03,-2.181731100e-04,-1.375552285e-03,-1.049122556e-03,-7.670306237e-05,-1.125825618e-03,-1.053026459e-03,8.746359997e-05,-9.655628587e-04,-1.733052192e-03,3.189969162e-05,-1.701152500e-03,-1.038935030e-03,-6.248698699e-05,-1.101422017e-03,-1.220400164e-03,-1.433477881e-04,-1.363747952e-03,-1.899748729e-03,-1.169545123e-04,-2.016703241e-03,-8.615500065e-04,-4.098397563e-05,-9.025339821e-04,-1.515526312e-03,6.024909771e-05,-1.455277214e-03,-1.048423398e-03,-9.581459513e-05,-1.144237993e-03,-1.464031405e-03,-1.838040573e-04,-1.647835462e-03,-5.395568816e-04,-3.496232079e-04,-8.891800895e-04,-1.270136123e-03,-2.111493272e-04,-1.481285450e-03,-1.458001475e-03,-2.250247196e-05,-1.480503947e-03,-1.338669785e-03,-3.855800919e-05,-1.377227794e-03,-1.097392387e-03,-1.173906437e-05,-1.109131451e-03,-2.240947307e-03,-6.823399043e-05,-2.309181297e-03,-1.478299793e-03,-7.307514693e-05,-1.551374940e-03,-8.169334002e-04,-1.384600557e-04,-9.553934559e-04,-1.437089036e-04,-4.422544242e-04,-5.859633278e-04,-9.531152061e-04,-1.442736420e-04,-1.097388848e-03,-1.078288136e-03,-1.143188196e-04,-1.192606955e-03,-1.271544299e-03,-6.001397085e-05,-1.331558270e-03,-2.254535305e-03,-8.829702956e-05,-2.342832335e-03,-1.604166334e-03,-8.744464419e-05,-1.691610978e-03,-1.996635297e-03,-1.394780777e-04,-2.136113374e-03,-1.527740427e-03,-6.285329252e-06,-1.534025756e-03,-1.823818216e-03,-5.485855423e-05,-1.878676771e-03,-1.680787280e-03,9.980021836e-05,-1.580987062e-03,-1.609152723e-03,-4.728088770e-05,-1.656433611e-03
-6.8,-2.476792302e-04,-1.206171270e-04,-3.682963572e-04,-9.309068766e-04,-2.899224733e-05,-9.598991240e-04,-5.262567189e-04,-1.176496425e-04,-6.439063614e-04,-1.043667852e-03,-1.241783219e-04,-1.167846173e-03,-6.483793270e-04,-2.442844372e-04,-8.926637642e-04,-7.928773718e-04,-1.697739540e-04,-9.626513258e-04,-1.128019232e-03,-2.217757900e-04,-1.349795022e-03,-1.000650766e-03,-7.694724546e-05,-1.077598012e-03,-1.026355475e-03,8.523599097e-05,-9.411194835e-04,-1.677252346e-03,3.645851902e-05,-1.640793827e-03,-1.016115794e-03,-6.824795909e-05,-1.084363753e-03,-1.138783131e-03,-1.588240774e-04,-1.297607209e-03,-1.841666177e-03,-1.218675032e-04,-1.963533680e-03,-8.211364419e-04,-4.836185178e-05,-8.694982937e-04,-1.471773360e-03,5.250000298e-05,-1.419273357e-03,-1.030468508e-03,-9.765531872e-05,-1.128123826e-03,-1.397846122e-03,-1.778056590e-04,-1.575651781e-03,-4.849181006e-04,-3.618750843e-04,-8.467931849e-04,-1.192879949e-03,-2.048366300e-04,-1.397716579e-03,-1.413448127e-03,-9.109319788e-06,-1.422557446e-03,-1.321766770e-03,-3.672064058e-05,-1.358487410e-03,-1.082413786e-03,-8.276146450e-06,-1.090689932e-03,-2.196029161e-03,-6.198198395e-05,-2.258011145e-03,-1.447919925e-03,-7.245564223e-05,-1.520375567e-03,-7.693331416e-04,-1.395423862e-04,-9.088755278e-04,-1.134225400e-04,-4.482028664e-04,-5.616254064e-04,-8.417860879e-04,-1.807460141e-04,-1.022532102e-03,-1.041243937e-03,-1.149696800e-04,-1.156213617e-03,-1.224666038e-03,-6.216645259e-05,-1.286832490e-03,-2.169470952e-03,-7.992782007e-05,-2.249398773e-03,-1.537283450e-03,-7.733705168e-05,-1.614620501e-03,-1.870064570e-03,-1.415578660e-04,-2.011622436e-03,-1.465860850e-03,-4.548378292e-06,-1.470409228e-03,-1.762034711e-03,-4.923648532e-05,-1.811271197e-03,-1.607323931e-03,1.002058872e-04,-1.507118043e-03,-1.535819427e-03,-4.531000413e-05,-1.581129431e-03
-6.7,-2.570715157e-04,-1.186354242e-04,-3.757069399e-04,-9.138574689e-04,-2.882027877e-05,-9.426777477e-04,-5.122510555e-04,-1.169056540e-04,-6.291567095e-04,-1.011811408e-03,-1.271928641e-04,-1.139004272e-03,-6.233573945e-04,-2.538320593e-04,-8.771894538e-04,-7.740065455e-04,-1.685284379e-04,-9.425349834e-04,-1.098416789e-03,-2.249500783e-04,-1.323366868e-03,-9.512369474e-04,-7.698884343e-05,-1.028225791e-03,-9.990797726e-04,8.304706530e-05,-9.160327073e-04,-1.618983159e-03,4.073567802e-05,-1.578247481e-03,-9.930268856e-04,-7.348944369e-05,-1.066516329e-03,-1.055214219e-03,-1.725774149e-04,-1.227791634e-03,-1.781313679e-03,-1.253158319e-04,-1.906629511e-03,-7.796741315e-04,-5.486668772e-05,-8.345408192e-04,-1.426760424e-03,4.597219198e-05,-1.380788232e-03,-1.010420035e-03,-9.882085274e-05,-1.109240888e-03,-1.333430801e-03,-1.695142621e-04,-1.502945063e-03,-4.308862052e-04,-3.726840173e-04,-8.035702224e-04,-1.114517257e-03,-1.983745045e-04,-1.312891761e-03,-1.366254633e-03,4.418170477e-06,-1.361836462e-03,-1.303372867e-03,-3.443946128e-05,-1.337812328e-03,-1.065391991e-03,-4.802318358e-06,-1.070194309e-03,-2.148108340e-03,-5.571148733e-05,-2.203819828e-03,-1.415239352e-03,-7.183135555e-05,-1.487070708e-03,-7.208525107e-04,-1.400516285e-04,-8.609041392e-04,-8.524362932e-05,-4.508896903e-04,-5.361333196e-04,-7.334745432e-04,-2.141919092e-04,-9.476664524e-04,-1.002076966e-03,-1.151490788e-04,-1.117226045e-03,-1.175779362e-03,-6.404780918e-05,-1.239827171e-03,-2.080840080e-03,-7.206776428e-05,-2.152907844e-03,-1.467608610e-03,-6.677660472e-05,-1.534385215e-03,-1.742335117e-03,-1.434806765e-04,-1.885815793e-03,-1.400930729e-03,-3.268503495e-06,-1.404199232e-03,-1.696974682e-03,-4.378825758e-05,-1.740762940e-03,-1.531362071e-03,9.998996698e-05,-1.431372104e-03,-1.459128024e-03,-4.347096880e-05,-1.502598993e-03
-6.6,-2.657624627e-04,-1.164085987e-04,-3.821710614e-04,-8.955355140e-04,-2.835686639e-05,-9.238923804e-04,-4.970087457e-04,-1.158561832e-04,-6.128649289e-04,-9.785227400e-04,-1.294898519e-04,-1.108012592e-03,-5.991638815e-04,-2.618820241e-04,-8.610459056e-04,-7.544163702e-04,-1.665105950e-04,-9.209269651e-04,-1.068477548e-03,-2.276884390e-04,-1.296165987e-03,-9.009174995e-04,-7.678827189e-05,-9.777057714e-04,-9.710706989e-04,8.088807177e-05,-8.901826271e-04,-1.558232395e-03,4.471141969e-05,-1.513520975e-03,-9.695101748e-04,-7.822851711e-05,-1.047738692e-03,-9.694540210e-04,-1.848515829e-04,-1.154305604e-03,-1.718432362e-03,-1.273974722e-04,-1.845829834e-03,-7.370417796e-04,-6.053682930e-05,-7.975786089e-04,-1.380318781e-03,4.062025793e-05,-1.339698524e-03,-9.881007170e-04,-9.937766771e-05,-1.087478385e-03,-1.270353669e-03,-1.591185504e-04,-1.429472219e-03,-3.775242355e-04,-3.819955174e-04,-7.595197529e-04,-1.034852311e-03,-1.918551086e-04,-1.226707420e-03,-1.316303880e-03,1.800724796e-05,-1.298296632e-03,-1.283277795e-03,-3.174953033e-05,-1.315027325e-03,-1.046153811e-03,-1.356401412e-06,-1.047510212e-03,-2.096919996e-03,-4.946077714e-05,-2.146380773e-03,-1.380020438e-03,-7.120278215e-05,-1.451223221e-03,-6.714223934e-04,-1.400190780e-04,-8.114414714e-04,-5.912350482e-05,-4.503953431e-04,-5.095188480e-04,-6.284537820e-04,-2.442429989e-04,-8.726967809e-04,-9.606923416e-04,-1.148561289e-04,-1.075548471e-03,-1.124792233e-03,-6.568209148e-05,-1.190474325e-03,-1.988496402e-03,-6.478333592e-05,-2.053279738e-03,-1.395041480e-03,-5.583843348e-05,-1.450879913e-03,-1.613650473e-03,-1.452166838e-04,-1.758867157e-03,-1.333018891e-03,-2.395692988e-06,-1.335414584e-03,-1.628604905e-03,-3.851770754e-05,-1.667122613e-03,-1.453070192e-03,9.921701176e-05,-1.353853180e-03,-1.379139234e-03,-4.177850231e-05,-1.420917736e-03
-6.5,-2.736028956e-04,-1.139365329e-04,-3.875394285e-04,-8.757773975e-04,-2.762668745e-05,-9.034040849e-04,-4.803778955e-04,-1.145453452e-04,-5.949232407e-04,-9.436660792e-04,-1.311093814e-04,-1.074775461e-03,-5.755896763e-04,-2.684129285e-04,-8.440026048e-04,-7.339404984e-04,-1.637741665e-04,-8.977146649e-04,-1.038082405e-03,-2.299783019e-04,-1.268060706e-03,-8.497152466e-04,-7.630754343e-05,-9.260227901e-04,-9.421977156e-04,7.875009982e-05,-8.634476158e-04,-1.494985337e-03,4.836852642e-05,-1.446616810e-03,-9.454019873e-04,-8.248641291e-05,-1.027888400e-03,-8.812933964e-04,-1.958965122e-04,-1.077189909e-03,-1.652765508e-03,-1.282189645e-04,-1.780984473e-03,-6.931192603e-04,-6.541652648e-05,-7.585357868e-04,-1.332262729e-03,3.637336479e-05,-1.295889365e-03,-9.633321093e-04,-9.941073948e-05,-1.062742849e-03,-1.208106159e-03,-1.468469906e-04,-1.354953150e-03,-3.248768363e-04,-3.897745483e-04,-7.146513846e-04,-9.536902362e-04,-1.853691594e-04,-1.139059396e-03,-1.263491758e-03,3.158333323e-05,-1.231908425e-03,-1.261273234e-03,-2.869068658e-05,-1.289963921e-03,-1.024537350e-03,2.022362979e-06,-1.022514987e-03,-2.042205300e-03,-4.326942113e-05,-2.085474721e-03,-1.342034139e-03,-7.057059619e-05,-1.412604735e-03,-6.209826359e-04,-1.394765700e-04,-7.604592060e-04,-3.497937480e-05,-4.468512384e-04,-4.818306132e-04,-5.268773139e-04,-2.706132617e-04,-7.974905757e-04,-9.170153942e-04,-1.140939321e-04,-1.031109326e-03,-1.071610628e-03,-6.709774605e-05,-1.138708374e-03,-1.892318658e-03,-5.812935093e-05,-1.950448009e-03,-1.319494392e-03,-4.459968932e-05,-1.364094081e-03,-1.484190603e-03,-1.467344361e-04,-1.630925039e-03,-1.262204180e-03,-1.872218543e-06,-1.264076399e-03,-1.556899354e-03,-3.342609369e-05,-1.590325448e-03,-1.372617840e-03,9.795732153e-05,-1.274660519e-03,-1.295944116e-03,-4.024113297e-05,-1.336185249e-03
-6.4,-2.804486735e-04,-1.112190840e-04,-3.916677575e-04,-8.544256718e-04,-2.665623101e-05,-8.810819029e-04,-4.622189091e-04,-1.130179215e-04,-5.752368306e-04,-9.071145590e-04,-1.320966145e-04,-1.039211174e-03,-5.524117626e-04,-2.734162665e-04,-8.258280291e-04,-7.124107559e-04,-1.603738255e-04,-8.727845814e-04,-1.007089796e-03,-2.318016948e-04,-1.238891491e-03,-7.976415520e-04,-7.551078744e-05,-8.731523394e-04,-9.123308286e-04,7.662430208e-05,-8.357065265e-04,-1.429226858e-03,5.169282782e-05,-1.377534030e-03,-9.205364000e-04,-8.628770454e-05,-1.006824104e-03,-7.905631205e-04,-2.059612225e-04,-9.965243429e-04,-1.584067136e-03,-1.278923836e-04,-1.711959520e-03,-6.477938520e-04,-6.955417047e-05,-7.173480225e-04,-1.282395513e-03,3.313758516e-05,-1.249257927e-03,-9.359438893e-04,-9.901699896e-05,-1.034960888e-03,-1.146111734e-03,-1.329644569e-04,-1.279076191e-03,-2.729765804e-04,-3.960025518e-04,-6.689791322e-04,-8.708468914e-04,-1.790029002e-04,-1.049849792e-03,-1.207730608e-03,4.507071523e-05,-1.162659893e-03,-1.237157106e-03,-2.530703569e-05,-1.262464141e-03,-1.000395555e-03,5.294857540e-06,-9.951006972e-04,-1.983715935e-03,-3.717779279e-05,-2.020893727e-03,-1.301064086e-03,-6.993570168e-05,-1.370999787e-03,-5.694853699e-04,-1.384553511e-04,-7.079407210e-04,-1.269926042e-05,-4.404338704e-04,-4.531331308e-04,-4.287916673e-04,-2.930913862e-04,-7.218830535e-04,-8.709952607e-04,-1.128688313e-04,-9.838640921e-04,-1.016143791e-03,-6.832557153e-05,-1.084469363e-03,-1.792217898e-03,-5.214426369e-05,-1.844362162e-03,-1.240896714e-03,-3.313998281e-05,-1.274036696e-03,-1.354108292e-03,-1.480025089e-04,-1.502110801e-03,-1.188577784e-03,-1.633500647e-06,-1.190211285e-03,-1.481840906e-03,-2.851267349e-05,-1.510353580e-03,-1.290175474e-03,9.628563831e-05,-1.193889836e-03,-1.209666666e-03,-3.885911294e-05,-1.248525779e-03
-6.3,-2.861635472e-04,-1.082561709e-04,-3.944197181e-04,-8.313318569e-04,-2.547356630e-05,-8.568054232e-04,-4.424074054e-04,-1.113185126e-04,-5.537259180e-04,-8.687533159e-04,-1.325007865e-04,-1.001254102e-03,-5.293968003e-04,-2.768959503e-04,-8.062927506e-04,-6.896598911e-04,-1.563651907e-04,-8.460250818e-04,-9.753380197e-04,-2.331351037e-04,-1.208473123e-03,-7.446982175e-04,-7.436474249e-05,-8.190629600e-04,-8.813424145e-04,7.450201544e-05,-8.068403990e-04,-1.360942942e-03,5.467345292e-05,-1.306269489e-03,-8.947479148e-04,-8.965965224e-05,-9.844075671e-04,-6.971410603e-04,-2.152870643e-04,-9.124281246e-04,-1.512107979e-03,-1.265331128e-04,-1.638641092e-03,-6.009646852e-04,-7.300084036e-05,-6.739655255e-04,-1.230515404e-03,3.079966124e-05,-1.199715743e-03,-9.057813152e-04,-9.829885758e-05,-1.004080173e-03,-1.083739484e-03,-1.177669513e-04,-1.201506435e-03,-2.218484032e-04,-4.006743867e-04,-6.225227898e-04,-7.861589083e-04,-1.728338920e-04,-9.589928003e-04,-1.148950751e-03,5.839329983e-05,-1.090557451e-03,-1.210736766e-03,-2.164643848e-05,-1.232383204e-03,-9.735982920e-04,8.422713248e-06,-9.651755788e-04,-1.921217713e-03,-3.122649078e-05,-1.952444204e-03,-1.256909804e-03,-6.929911212e-05,-1.326208916e-03,-5.168978453e-04,-1.369843321e-04,-6.538821774e-04,7.852420997e-06,-4.313570909e-04,-4.235046699e-04,-3.341515657e-04,-3.115323924e-04,-6.456839580e-04,-8.226063406e-04,-1.111898200e-04,-9.337961605e-04,-9.583081227e-04,-6.939660489e-05,-1.027704728e-03,-1.688142006e-03,-4.684611693e-05,-1.734988123e-03,-1.159196795e-03,-2.154216367e-05,-1.180738959e-03,-1.223524839e-03,-1.489916573e-04,-1.372516496e-03,-1.112243972e-03,-1.609100690e-06,-1.113853072e-03,-1.403422252e-03,-2.377517870e-05,-1.427197431e-03,-1.205911410e-03,9.427933860e-05,-1.111632071e-03,-1.120462883e-03,-3.762339188e-05,-1.158086275e-03
-6.2,-2.906212610e-04,-1.050479237e-04,-3.956691847e-04,-8.063583289e-04,-2.410811141e-05,-8.304664403e-04,-4.208358759e-04,-1.094906290e-04,-5.303265049e-04,-8.284812154e-04,-1.323741618e-04,-9.608553772e-04,-5.063037573e-04,-2.788677989e-04,-7.851715562e-04,-6.655234337e-04,-1.518052823e-04,-8.173287161e-04,-9.426479969e-04,-2.339499060e-04,-1.176597903e-03,-6.908790941e-04,-7.283918707e-05,-7.637182812e-04,-8.491084645e-04,7.237478039e-05,-7.767336841e-04,-1.290121951e-03,5.730280497e-05,-1.232819146e-03,-8.678735748e-04,-9.263170730e-05,-9.605052821e-04,-6.009565123e-04,-2.241010653e-04,-8.250575776e-04,-1.436679291e-03,-1.242578004e-04,-1.560937091e-03,-5.525452322e-04,-7.580913453e-05,-6.283543667e-04,-1.176422190e-03,2.923218793e-05,-1.147190002e-03,-8.727098466e-04,-9.735868814e-05,-9.700685347e-04,-1.020322890e-03,-1.015734254e-04,-1.121896315e-03,-1.715124633e-04,-4.037948291e-04,-5.753072923e-04,-6.994915526e-04,-1.669267870e-04,-8.664183396e-04,-1.087100515e-03,7.147533338e-05,-1.015625182e-03,-1.181831142e-03,-1.775996177e-05,-1.199591103e-03,-9.440331778e-04,1.136894828e-05,-9.326642295e-04,-1.854493566e-03,-2.545570391e-05,-1.879949270e-03,-1.209389342e-03,-6.866167270e-05,-1.278051015e-03,-4.632041123e-04,-1.350879209e-04,-5.982920333e-04,2.683035009e-05,-4.198642668e-04,-3.930339167e-04,-2.428378600e-04,-3.258472463e-04,-5.686851063e-04,-7.718475682e-04,-1.090680986e-04,-8.809156668e-04,-8.980300250e-04,-7.034014464e-05,-9.683701696e-04,-1.580077558e-03,-4.223017024e-05,-1.622307728e-03,-1.074362398e-03,-9.892880112e-06,-1.084255278e-03,-1.092527028e-03,-1.496762169e-04,-1.242203245e-03,-1.033319139e-03,-1.723879242e-06,-1.035043019e-03,-1.321646030e-03,-1.921020077e-05,-1.340856231e-03,-1.119986737e-03,9.201676519e-05,-1.027969971e-03,-1.028516080e-03,-3.651625289e-05,-1.065032333e-03
-6.1,-2.937068703e-04,-1.015949799e-04,-3.953018503e-04,-7.793795264e-04,-2.259043792e-05,-8.019699643e-04,-3.974146553e-04,-1.075758364e-04,-5.049904918e-04,-7.862118321e-04,-1.317709472e-04,-9.179827792e-04,-4.828863966e-04,-2.793591383e-04,-7.622455349e-04,-6.398413026e-04,-1.467530049e-04,-7.865943075e-04,-9.088271103e-04,-2.342134846e-04,-1.143040595e-03,-6.361718163e-04,-7.090715533e-05,-7.070789716e-04,-8.155096485e-04,7.023430005e-05,-7.452753484e-04,-1.216756244e-03,5.957633761e-05,-1.157179906e-03,-8.397549785e-04,-9.523507187e-05,-9.349900503e-04,-5.019924653e-04,-2.326097229e-04,-7.346021882e-04,-1.357596568e-03,-1.211816887e-04,-1.478778257e-03,-5.024646601e-04,-7.803228963e-05,-5.804969497e-04,-1.119924360e-03,2.829971874e-05,-1.091624641e-03,-8.366177425e-04,-9.629455551e-05,-9.329122980e-04,-9.551819605e-04,-8.471555086e-05,-1.039897511e-03,-1.219864977e-04,-4.053746092e-04,-5.273611069e-04,-6.107435163e-04,-1.613304216e-04,-7.720739379e-04,-1.022146146e-03,8.424203004e-05,-9.379041158e-04,-1.150272486e-03,-1.370131065e-05,-1.163973797e-03,-9.116060576e-04,1.409847147e-05,-8.975075861e-04,-1.783346627e-03,-1.990456019e-05,-1.803251187e-03,-1.158341970e-03,-6.802368836e-05,-1.226365659e-03,-4.084048376e-04,-1.327845823e-04,-5.411894199e-04,4.440558652e-05,-4.062215748e-04,-3.618159883e-04,-1.546789177e-04,-3.359901402e-04,-4.906690579e-04,-7.187406009e-04,-1.065166821e-04,-8.252572830e-04,-8.352489580e-04,-7.118204095e-05,-9.064309989e-04,-1.468050639e-03,-3.826842425e-05,-1.506319063e-03,-9.863813690e-04,1.717576948e-06,-9.846637920e-04,-9.611678092e-04,-1.500337874e-04,-1.111201597e-03,-9.519303128e-04,-1.899293597e-06,-9.538296064e-04,-1.236525295e-03,-1.481321229e-05,-1.251338507e-03,-1.032550367e-03,8.957603649e-05,-9.429743306e-04,-9.340304788e-04,-3.551333647e-05,-9.695438153e-04
-6,-2.953177693e-04,-9.789878207e-05,-3.932165513e-04,-7.502830473e-04,-2.095209767e-05,-7.712351449e-04,-3.720731196e-04,-1.056130487e-04,-4.776861683e-04,-7.418747020e-04,-1.307461834e-04,-8.726208853e-04,-4.588966616e-04,-2.784085063e-04,-7.373051679e-04,-6.124599532e-04,-1.412692812e-04,-7.537292345e-04,-8.736742741e-04,-2.338908121e-04,-1.107565086e-03,-5.805600605e-04,-6.854495145e-05,-6.491050120e-04,-7.804326794e-04,6.807238273e-05,-7.123602967e-04,-1.140844575e-03,6.149226053e-05,-1.079352315e-03,-8.102406610e-04,-9.750219590e-05,-9.077428569e-04,-4.002867321e-04,-2.409941486e-04,-6.412808807e-04,-1.274704877e-03,-1.174153641e-04,-1.392120241e-03,-4.506692551e-04,-7.972362923e-05,-5.303928843e-04,-1.060846814e-03,2.786483033e-05,-1.032981984e-03,-7.974182067e-04,-9.519691482e-05,-8.926151215e-04,-8.876458378e-04,-6.752764289e-05,-9.551734807e-04,-7.328810508e-05,-4.054267581e-04,-4.787148632e-04,-5.198500127e-04,-1.560767299e-04,-6.759267425e-04,-9.540729632e-04,9.662009851e-05,-8.574528646e-04,-1.115908605e-03,-9.526244894e-06,-1.125434850e-03,-8.762421667e-04,1.657839182e-05,-8.596637749e-04,-1.707604123e-03,-1.461045208e-05,-1.722214575e-03,-1.103631542e-03,-6.738453078e-05,-1.171016072e-03,-3.525156440e-04,-1.300869292e-04,-4.826025732e-04,6.076402366e-05,-3.907127853e-04,-3.299487617e-04,-6.947307562e-05,-3.419456942e-04,-4.114187698e-04,-6.633282206e-04,-1.035501021e-04,-7.668783227e-04,-7.699218474e-04,-7.194334092e-05,-8.418651883e-04,-1.352127831e-03,-3.491074342e-05,-1.387038575e-03,-8.952638161e-04,1.319623361e-05,-8.820675825e-04,-8.294718793e-04,-1.500434573e-04,-9.795153366e-04,-8.682145425e-04,-2.054873340e-06,-8.702694158e-04,-1.148085444e-03,-1.057816584e-05,-1.158663610e-03,-9.437359221e-04,8.703388529e-05,-8.567020368e-04,-8.372258634e-04,-3.458612343e-05,-8.718119868e-04
-5.9,-2.953650274e-04,-9.396168845e-05,-3.893267158e-04,-7.189711304e-04,-1.922543333e-05,-7.381965637e-04,-3.447617017e-04,-1.036379932e-04,-4.483996949e-04,-6.954175186e-04,-1.293546729e-04,-8.247721915e-04,-4.340894474e-04,-2.760653235e-04,-7.101547709e-04,-5.832353117e-04,-1.354167174e-04,-7.186520292e-04,-8.369856888e-04,-2.329460855e-04,-1.069931774e-03,-5.240262843e-04,-6.573222213e-05,-5.897585064e-04,-7.437722053e-04,6.588092296e-05,-6.778912823e-04,-1.062395251e-03,6.305132915e-05,-9.993439217e-04,-7.791889752e-04,-9.946611682e-05,-8.786550920e-04,-2.959322318e-04,-2.494074162e-04,-5.453396480e-04,-1.187885383e-03,-1.130623351e-04,-1.300947718e-03,-3.971246094e-04,-8.093640333e-05,-4.780610128e-04,-9.990384040e-04,2.779304963e-05,-9.712453544e-04,-7.550523588e-04,-9.414571789e-05,-8.491980766e-04,-8.170739292e-04,-5.033839440e-05,-8.674123236e-04,-2.543673323e-05,-4.039641192e-04,-4.294008525e-04,-4.267863265e-04,-1.511809527e-04,-5.779672791e-04,-8.828882315e-04,1.085382028e-04,-7.743500287e-04,-1.078606015e-03,-5.291906665e-06,-1.083897921e-03,-8.378885033e-04,1.877826421e-05,-8.191102391e-04,-1.627122246e-03,-9.608329232e-06,-1.636730575e-03,-1.045150657e-03,-6.674226050e-05,-1.111892917e-03,-2.955654900e-04,-1.270027775e-04,-4.225682675e-04,7.610478860e-05,-3.736350878e-04,-2.975302992e-04,1.299197641e-05,-3.437196222e-04,-3.307276458e-04,-6.056735114e-04,-1.001844814e-04,-7.058579929e-04,-7.020290011e-04,-7.263931340e-05,-7.746683145e-04,-1.232417388e-03,-3.208733977e-05,-1.264504728e-03,-8.010458265e-04,2.444889676e-05,-7.765969297e-04,-6.974449617e-04,-1.496840478e-04,-8.471290095e-04,-7.823197578e-04,-2.109977964e-06,-7.844297358e-04,-1.056368046e-03,-6.496899321e-06,-1.062864945e-03,-8.536608566e-04,8.446381048e-05,-7.691970462e-04,-7.383346140e-04,-3.370419607e-05,-7.720388100e-04
-5.8,-2.937752902e-04,-8.978686957e-05,-3.835621598e-04,-6.853627060e-04,-1.744334774e-05,-7.028060537e-04,-3.154547312e-04,-1.016828150e-04,-4.171375462e-04,-6.468092784e-04,-1.276500010e-04,-7.744592794e-04,-4.082284797e-04,-2.723893727e-04,-6.806178524e-04,-5.520361546e-04,-1.292588748e-04,-6.812950294e-04,-7.985603422e-04,-2.313439821e-04,-1.029904324e-03,-4.665546254e-04,-6.245229046e-05,-5.290069158e-04,-7.054331691e-04,6.365199113e-05,-6.417811780e-04,-9.814296065e-04,6.425685103e-05,-9.171727555e-04,-7.464713059e-04,-1.011595921e-04,-8.476308980e-04,-1.890765431e-04,-2.579741551e-04,-4.470506983e-04,-1.097061702e-03,-1.082188631e-04,-1.205280565e-03,-3.418186023e-04,-8.172391321e-05,-4.235425155e-04,-9.343786392e-04,2.795604215e-05,-9.064225971e-04,-7.094937468e-04,-9.320746907e-05,-8.027012159e-04,-7.428756604e-04,-3.346446825e-05,-7.763401286e-04,2.154439676e-05,-4.009980667e-04,-3.794536700e-04,-3.315729681e-04,-1.466420252e-04,-4.782149933e-04,-8.086252500e-04,1.199273738e-04,-6.886978763e-04,-1.038253886e-03,-1.055992938e-06,-1.039309879e-03,-7.965172474e-04,2.067044709e-05,-7.758468003e-04,-1.541791635e-03,-4.929997062e-06,-1.546721633e-03,-9.828253781e-04,-6.609326368e-05,-1.048918642e-03,-2.375961157e-04,-1.235361229e-04,-3.611322386e-04,9.063708768e-05,-3.552948184e-04,-2.646577307e-04,9.292425976e-05,-3.413345839e-04,-2.484103241e-04,-5.458600707e-04,-9.643804502e-05,-6.422981157e-04,-6.315807544e-04,-7.327881166e-05,-7.048595661e-04,-1.109070195e-03,-2.971237949e-05,-1.138782575e-03,-7.037939509e-04,3.538175073e-05,-6.684122002e-04,-5.650839735e-04,-1.489337926e-04,-7.140177661e-04,-6.944066378e-04,-1.985857612e-06,-6.963924954e-04,-9.614365193e-04,-2.558466948e-06,-9.639949863e-04,-7.624276982e-04,8.193333707e-05,-6.804943611e-04,-6.376007195e-04,-3.283723812e-05,-6.704379577e-04
-5.7,-2.904930657e-04,-8.537812093e-05,-3.758711866e-04,-6.493959024e-04,-1.563901368e-05,-6.650349160e-04,-2.841536712e-04,-9.977573679e-05,-3.839294080e-04,-5.960438599e-04,-1.256836556e-04,-7.217275155e-04,-3.810925817e-04,-2.674499732e-04,-6.485425549e-04,-5.187474502e-04,-1.228592670e-04,-6.416067172e-04,-7.582045423e-04,-2.290502944e-04,-9.872548367e-04,-4.081336821e-04,-5.869264210e-05,-4.668263242e-04,-6.653333927e-04,6.137806055e-05,-6.039553321e-04,-8.979853371e-04,6.511494674e-05,-8.328703903e-04,-7.119753095e-04,-1.026140600e-04,-8.145893695e-04,-7.992133040e-05,-2.667913834e-04,-3.467127138e-04,-1.002205305e-03,-1.029760114e-04,-1.105181316e-03,-2.847648116e-04,-8.213957554e-05,-3.669043871e-04,-8.667833561e-04,2.823340588e-05,-8.385499503e-04,-6.607540994e-04,-9.243225209e-05,-7.531863515e-04,-6.645300662e-04,-1.720496351e-05,-6.817350297e-04,6.762595291e-05,-3.965378979e-04,-3.289119450e-04,-2.342823432e-04,-1.424419302e-04,-3.767242734e-04,-7.313476638e-04,1.307213540e-04,-6.006263098e-04,-9.947681625e-04,3.124155850e-06,-9.916440067e-04,-7.521294766e-04,2.223060336e-05,-7.298988732e-04,-1.451542789e-03,-6.034743304e-07,-1.452146264e-03,-9.166198864e-04,-6.543191137e-05,-9.820517978e-04,-1.786621886e-04,-1.196877395e-04,-2.983499281e-04,1.045744467e-04,-3.360019171e-04,-2.314274704e-04,1.705149545e-04,-3.348305474e-04,-1.643155929e-04,-4.839934304e-04,-9.233163043e-05,-5.763250608e-04,-5.586236444e-04,-7.386396776e-05,-6.324876122e-04,-9.822802293e-04,-2.768818481e-05,-1.009968414e-03,-6.036094294e-04,4.590294644e-05,-5.577064830e-04,-4.323856689e-04,-1.477718477e-04,-5.801575166e-04,-6.046507587e-04,-1.607817111e-06,-6.062585758e-04,-8.633830511e-04,1.251612629e-06,-8.621314385e-04,-6.701272580e-04,7.950084241e-05,-5.906264156e-04,-5.352796946e-04,-3.195689848e-05,-5.672365931e-04
-5.6,-2.854829864e-04,-8.073973191e-05,-3.662227183e-04,-6.110306721e-04,-1.384548331e-05,-6.248761554e-04,-2.508900635e-04,-9.794067837e-05,-3.488307419e-04,-5.431432377e-04,-1.235042024e-04,-6.666474401e-04,-3.524814765e-04,-2.613248083e-04,-6.138062849e-04,-4.832733278e-04,-1.162801834e-04,-5.995535113e-04,-7.157352659e-04,-2.260319687e-04,-9.417672347e-04,-3.487589854e-04,-5.444529508e-05,-4.032042805e-04,-6.234060035e-04,5.905229202e-05,-5.643537114e-04,-8.121192144e-04,6.563495851e-05,-7.464842559e-04,-6.756077632e-04,-1.038585802e-04,-7.794663434e-04,3.127769967e-05,-2.759290984e-04,-2.446513988e-04,-9.033390137e-04,-9.742286720e-05,-1.000761881e-03,-2.260056198e-04,-8.223666505e-05,-3.082422849e-04,-7.962090385e-04,2.851382407e-05,-7.676952144e-04,-6.088885648e-04,-9.185133950e-05,-7.007399043e-04,-5.816052439e-04,-1.835941594e-06,-5.834411855e-04,1.127701926e-04,-3.905905644e-04,-2.778203718e-04,-1.350459704e-04,-1.385435778e-04,-2.735895482e-04,-6.511527906e-04,1.408568689e-04,-5.102959217e-04,-9.480950057e-04,7.192368149e-06,-9.409026376e-04,-7.047581357e-04,2.343824579e-05,-6.813198900e-04,-1.356350600e-03,3.347587955e-06,-1.353003012e-03,-8.465402702e-04,-6.475027420e-05,-9.112905444e-04,-1.188315102e-04,-1.154554952e-04,-2.342870054e-04,1.181270258e-04,-3.160629889e-04,-1.979359631e-04,2.459269814e-04,-3.242686311e-04,-7.834164963e-05,-4.202030842e-04,-8.788863951e-05,-5.080917237e-04,-4.832448264e-04,-7.439031227e-05,-5.576351387e-04,-8.522836752e-04,-2.590949941e-05,-8.781931747e-04,-5.006312103e-04,5.592429113e-05,-4.447069192e-04,-2.993531690e-04,-1.461810147e-04,-4.455341837e-04,-5.132443761e-04,-9.071210652e-07,-5.141514972e-04,-7.623351004e-04,4.951964036e-06,-7.573831363e-04,-5.768431808e-04,7.721272882e-05,-4.996304519e-04,-4.316383694e-04,-3.103836495e-05,-4.626767344e-04
-5.5,-2.787315831e-04,-7.587646871e-05,-3.546080518e-04,-5.702510457e-04,-1.209514282e-05,-5.823461885e-04,-2.157273327e-04,-9.619678355e-05,-3.119241162e-04,-4.881594386e-04,-1.211564750e-04,-6.093159137e-04,-3.222202919e-04,-2.540984434e-04,-5.763187354e-04,-4.455394475e-04,-1.095815172e-04,-5.551209647e-04,-6.709824920e-04,-2.222568651e-04,-8.932393570e-04,-2.884349305e-04,-4.970694456e-05,-3.381418751e-04,-5.796012148e-04,5.666871579e-05,-5.229324990e-04,-7.239087478e-04,6.582978616e-05,-6.580789617e-04,-6.372964962e-04,-1.049189685e-04,-7.422154647e-04,1.442107135e-04,-2.854297627e-04,-1.412190492e-04,-8.005367566e-04,-9.164991135e-05,-8.921866680e-04,-1.656138981e-04,-8.206787624e-05,-2.476817744e-04,-7.226546115e-04,2.869566552e-05,-6.939589459e-04,-5.539981790e-04,-9.147607427e-05,-6.454742533e-04,-4.937751093e-04,1.239500921e-05,-4.813801001e-04,1.569302317e-04,-3.831608723e-04,-2.262306406e-04,-3.406037307e-05,-1.348882746e-04,-1.689486476e-04,-5.681727920e-04,1.502739108e-04,-4.178988811e-04,-8.982126398e-04,1.109423336e-05,-8.871184064e-04,-6.544692312e-04,2.427725679e-05,-6.301919745e-04,-1.256237236e-03,6.904480267e-06,-1.249332756e-03,-7.726365985e-04,-6.403790825e-05,-8.366745068e-04,-5.818556550e-05,-1.108340994e-04,-1.690196649e-04,1.314940627e-04,-2.957737961e-04,-1.642797335e-04,3.192864625e-04,-3.097373658e-04,9.549096765e-06,-3.546436709e-04,-8.313427651e-05,-4.377779474e-04,-4.055735881e-04,-7.484737195e-05,-4.804209600e-04,-7.193552267e-04,-2.426766043e-05,-7.436228872e-04,-3.950368424e-04,6.536312332e-05,-3.296737191e-04,-1.660010344e-04,-1.441504682e-04,-3.101515027e-04,-4.203971445e-04,1.776379529e-07,-4.202195065e-04,-6.584592935e-04,8.565354172e-06,-6.498939394e-04,-4.826563344e-04,7.510163742e-05,-4.075546970e-04,-3.269535311e-04,-3.006125513e-05,-3.570147862e-04
-5.4,-2.702481023e-04,-7.079364401e-05,-3.410417463e-04,-5.270664691e-04,-1.041901070e-05,-5.374854798e-04,-1.787606834e-04,-9.455789876e-05,-2.733185822e-04,-4.311744948e-04,-1.186807879e-04,-5.498552826e-04,-2.901621272e-04,-2.458606891e-04,-5.360228163e-04,-4.054945962e-04,-1.028198635e-04,-5.083144596e-04,-6.237908906e-04,-2.176937730e-04,-8.414846636e-04,-2.271758495e-04,-4.447905412e-05,-2.716549036e-04,-5.338870398e-04,5.422218246e-05,-4.796648573e-04,-6.334524812e-04,6.571591758e-05,-5.677365637e-04,-5.969909971e-04,-1.058172780e-04,-7.028082751e-04,2.585150391e-04,-2.953069264e-04,-3.679188732e-05,-6.939187403e-04,-8.575151624e-05,-7.796702566e-04,-1.036922918e-04,-8.168502300e-05,-1.853773148e-04,-6.461591073e-04,2.868639765e-05,-6.174727096e-04,-4.962284699e-04,-9.129807793e-05,-5.875265478e-04,-4.008302961e-04,2.527380789e-05,-3.755564882e-04,2.000526474e-04,-3.742526160e-04,-1.741999686e-04,6.841081440e-05,-1.313946327e-04,-6.298381834e-05,-4.825730362e-04,1.589161942e-04,-3.236568420e-04,-8.451309810e-04,1.477751462e-05,-8.303534664e-04,-6.013606170e-04,2.473639368e-05,-5.766242233e-04,-1.151272858e-03,1.005404117e-05,-1.141218817e-03,-6.950027669e-04,-6.328170084e-05,-7.582844677e-04,3.179036007e-06,-1.058138571e-04,-1.026348211e-04,1.448579328e-04,-2.754116790e-04,-1.305537462e-04,3.906791460e-04,-2.913597299e-04,9.931941603e-05,-2.874938718e-04,-7.809441766e-05,-3.655882894e-04,-3.257794860e-04,-7.521956800e-05,-4.009990540e-04,-5.838008462e-04,-2.265467880e-05,-6.064555250e-04,-2.870404844e-04,7.414421248e-05,-2.128962719e-04,-3.235953017e-05,-1.416771367e-04,-1.740366668e-04,-3.263350626e-04,1.699754314e-06,-3.246353083e-04,-5.519612956e-04,1.211783568e-05,-5.398434599e-04,-3.876472066e-04,7.318584662e-05,-3.144613599e-04,-2.215085722e-04,-2.900952257e-05,-2.505180947e-04
-5.3,-2.600640401e-04,-6.549720667e-05,-3.255612467e-04,-4.815118353e-04,-8.845981156e-06,-4.903578164e-04,-1.401149009e-04,-9.303212297e-05,-2.331470239e-04,-3.722981988e-04,-1.161122084e-04,-4.884104072e-04,-2.561886727e-04,-2.367050510e-04,-4.928937237e-04,-3.631115260e-04,-9.604807060e-05,-4.591595966e-04,-5.740214923e-04,-2.123131888e-04,-7.863346811e-04,-1.650060826e-04,-3.876817092e-05,-2.037742535e-04,-4.862489138e-04,5.170807378e-05,-4.345408400e-04,-5.408690939e-04,6.531301742e-05,-4.755560765e-04,-5.546617858e-04,-1.065716261e-04,-6.612334119e-04,3.737789419e-04,-3.055438615e-04,6.823508045e-05,-5.836437885e-04,-7.982644840e-05,-6.634702369e-04,-4.037009811e-05,-8.113893915e-05,-1.215090373e-04,-5.667951295e-04,2.840067460e-05,-5.383944549e-04,-4.357648735e-04,-9.129015727e-05,-5.270550307e-04,-3.026823962e-04,3.662418664e-05,-2.660582095e-04,2.420841915e-04,-3.638709764e-04,-1.217867849e-04,1.720402800e-04,-1.279599014e-04,4.408037859e-05,-3.945481603e-04,1.667318300e-04,-2.278163303e-04,-7.888891891e-04,1.819250046e-05,-7.706966886e-04,-5.455586610e-04,2.480977053e-05,-5.207488904e-04,-1.041574342e-03,1.278924801e-05,-1.028785094e-03,-6.137743646e-04,-6.246579126e-05,-6.762401559e-04,6.514867105e-05,-1.003786451e-04,-3.522997403e-05,1.583800958e-04,-2.552279629e-04,-9.684786702e-05,4.601514350e-04,-2.692994248e-04,1.908520102e-04,-2.189525837e-04,-7.279458276e-05,-2.917471665e-04,-2.440678372e-04,-7.548709198e-05,-3.195549292e-04,-4.459481976e-04,-2.096713943e-05,-4.669153371e-04,-1.768883260e-04,8.220142295e-05,-9.468690304e-05,1.015211317e-04,-1.387647479e-04,-3.724361627e-05,-2.312974949e-04,3.704045448e-06,-2.275934495e-04,-4.430819879e-04,1.563728403e-05,-4.274447038e-04,-2.918954961e-04,7.146942472e-05,-2.204260714e-04,-1.155882216e-04,-2.787046582e-05,-1.434586874e-04
-5.2,-2.482314874e-04,-5.999379552e-05,-3.082252829e-04,-4.336462611e-04,-7.402164376e-06,-4.410484254e-04,-9.994075090e-05,-9.162153420e-05,-1.915622851e-04,-3.116643027e-04,-1.134799468e-04,-4.251442495e-04,-2.202097627e-04,-2.267274675e-04,-4.469372303e-04,-3.183873883e-04,-8.931517853e-05,-4.077025668e-04,-5.215541162e-04,-2.060889958e-04,-7.276431120e-04,-1.019594013e-04,-3.258655505e-05,-1.345459564e-04,-4.366887082e-04,4.912186486e-05,-3.875668434e-04,-4.462959966e-04,6.464308973e-05,-3.816529068e-04,-5.102991701e-04,-1.071962449e-04,-6.174954150e-04,4.895477602e-04,-3.160931051e-04,1.734546551e-04,-4.699021009e-04,-7.397589826e-05,-5.438779991e-04,2.420106935e-05,-8.047938116e-05,-5.627831181e-05,-4.846604520e-04,2.775815544e-05,-4.569022965e-04,-3.728266807e-04,-9.140732732e-05,-4.642340080e-04,-1.993629141e-04,4.631072056e-05,-1.530521936e-04,2.829813239e-04,-3.520257835e-04,-6.904445956e-05,2.764457783e-04,-1.244631436e-04,1.519826346e-04,-3.043173996e-04,1.736740690e-04,-1.306433306e-04,-7.295521576e-04,2.129236565e-05,-7.082597920e-04,-4.872140205e-04,2.449721559e-05,-4.627168049e-04,-9.273029265e-04,1.510967185e-05,-9.121932546e-04,-5.291255400e-04,-6.157161817e-05,-5.906971582e-04,1.275916514e-04,-9.450433705e-05,3.308731435e-05,1.721987715e-04,-2.354410645e-04,-6.324229297e-05,5.277134892e-04,-2.437652425e-04,2.839482467e-04,-1.492333967e-04,-6.725917276e-05,-2.164925695e-04,-1.606742882e-04,-7.562658299e-05,-2.363008711e-04,-3.061373789e-04,-1.910979914e-05,-3.252471780e-04,-6.485328605e-05,8.947911543e-05,2.462582938e-05,2.355654736e-04,-1.354204255e-04,1.001450481e-04,-1.355330077e-04,6.226584626e-06,-1.293064231e-04,-3.320916664e-04,1.915181309e-05,-3.129398533e-04,-1.954780726e-04,6.994287463e-05,-1.255351980e-04,-9.472759203e-06,-2.663323992e-05,-3.610599913e-05
-5.1,-2.348208390e-04,-5.429073095e-05,-2.891115699e-04,-3.835511681e-04,-6.110408295e-06,-3.896615764e-04,-5.841119617e-05,-9.032210361e-05,-1.487332998e-04,-2.494263785e-04,-1.108069229e-04,-3.602333015e-04,-1.821631351e-04,-2.160253669e-04,-3.981885021e-04,-2.713443209e-04,-8.266644778e-05,-3.540107686e-04,-4.662909563e-04,-1.990007180e-04,-6.652916743e-04,-3.807848652e-05,-2.595294695e-05,-6.403143348e-05,-3.852237822e-04,4.645865127e-05,-3.387651310e-04,-3.498881616e-04,6.372937687e-05,-2.861587847e-04,-4.639120796e-04,-1.077015953e-04,-5.716136748e-04,6.053315603e-04,-3.268774819e-04,2.784540784e-04,-3.529108547e-04,-6.829969980e-05,-4.212105545e-04,8.985122777e-05,-7.975480863e-05,1.009641914e-05,-3.998709067e-04,2.668230725e-05,-3.731885994e-04,-3.076610185e-04,-9.158809409e-05,-3.992491126e-04,-9.101869819e-05,5.424001036e-05,-3.677868782e-05,3.227193792e-04,-3.387346136e-04,-1.601523447e-05,3.812021554e-04,-1.207690767e-04,2.604330787e-04,-2.121207796e-04,1.797019422e-04,-3.241883742e-05,-6.672072284e-04,2.403357349e-05,-6.431736549e-04,-4.264979161e-04,2.380439576e-05,-4.026935203e-04,-8.086618232e-04,1.702172196e-05,-7.916401012e-04,-4.412659389e-04,-6.057812152e-05,-5.018440604e-04,1.903586927e-04,-8.815912970e-05,1.021995630e-04,1.864281171e-04,-2.162315992e-04,-2.980348216e-05,5.933418818e-04,-2.150123475e-04,3.783295342e-04,-7.855905679e-05,-6.151092641e-05,-1.400699832e-04,-7.586005826e-05,-7.561166834e-05,-1.514717266e-04,-1.647144807e-04,-1.699867186e-05,-1.817131526e-04,4.876867237e-05,9.593350317e-05,1.447021755e-04,3.696661409e-04,-1.316497878e-04,2.380163531e-04,-3.929516684e-05,9.294154710e-06,-3.000101213e-05,-2.192841525e-04,2.268837275e-05,-1.965957797e-04,-9.846763008e-05,6.858460690e-05,-2.988302318e-05,9.656629429e-05,-2.528729690e-05,7.127899739e-05
-5,-2.199185095e-04,-4.839594935e-05,-2.683144588e-04,-3.313283942e-04,-4.989976303e-06,-3.363183705e-04,-1.571840084e-05,-8.912373960e-05,-1.048421404e-04,-1.857544126e-04,-1.081095617e-04,-2.938639742e-04,-1.420151637e-04,-2.046969180e-04,-3.467120818e-04,-2.220305897e-04,-7.614314987e-05,-2.981737396e-04,-4.081609244e-04,-1.910357571e-04,-5.991966815e-04,2.658501916e-05,-1.889324717e-05,7.691771990e-06,-3.318864551e-04,4.371273260e-05,-2.881737225e-04,-2.518174965e-04,6.259525755e-05,-1.892222389e-04,-4.155273223e-04,-1.080944129e-04,-5.236217352e-04,7.206131330e-04,-3.377925009e-04,3.828206321e-04,-2.329129920e-04,-6.289210273e-05,-2.958050948e-04,1.563945458e-04,-7.901209403e-05,7.738245177e-05,-3.125564711e-04,2.510041214e-05,-2.874560589e-04,-2.405373777e-04,-9.175668404e-05,-3.322940617e-04,2.209460236e-05,6.036007587e-05,8.245467823e-05,3.612980691e-04,-3.240250042e-04,3.727306493e-05,4.858543319e-04,-1.167321804e-04,3.691221515e-04,-1.182168790e-04,1.847807661e-04,6.656388715e-05,-6.019619561e-04,2.637639062e-05,-5.755855655e-04,-3.635996717e-04,2.274272984e-05,-3.408569419e-04,-6.858943899e-04,1.853871302e-05,-6.673556769e-04,-3.504382636e-04,-5.946208341e-05,-4.099003470e-04,2.532841201e-04,-8.130598988e-05,1.719781302e-04,2.011583129e-04,-1.977402136e-04,3.418099365e-06,6.569817274e-04,-1.833402839e-04,4.736414435e-04,-7.156877910e-06,-5.557080393e-05,-6.272768185e-05,1.009150720e-05,-7.541350834e-05,-6.532200114e-05,-2.202929338e-05,-1.456323956e-05,-3.659253294e-05,1.636595140e-04,1.015340543e-04,2.651935683e-04,5.036770521e-04,-1.274520446e-04,3.762250075e-04,5.716090122e-05,1.292313123e-05,7.008403245e-05,-1.049719312e-04,2.627149168e-05,-7.870043956e-05,-9.338360703e-07,6.736361600e-05,6.642977993e-05,2.022676031e-04,-2.382105231e-05,1.784465508e-04
-4.9,-2.036250565e-04,-4.231793264e-05,-2.459429892e-04,-2.770987873e-04,-4.056313863e-06,-2.811551012e-04,2.792817500e-05,-8.801042038e-05,-6.008224538e-05,-1.208325585e-04,-1.053978265e-04,-2.262303849e-04,-9.976248743e-05,-1.928403103e-04,-2.926027977e-04,-1.705222121e-04,-6.978200296e-05,-2.403042150e-04,-3.471238308e-04,-1.821910889e-04,-5.293149197e-04,9.196985670e-05,-1.144101916e-05,8.052883753e-05,-2.767239159e-04,4.087732932e-05,-2.358465865e-04,-1.522726336e-04,6.126341175e-05,-9.100922185e-05,-3.651892438e-04,-1.083776110e-04,-4.735668549e-04,8.348551087e-04,-3.487095056e-04,4.861456030e-04,-1.101777193e-04,-5.783853571e-05,-1.680162550e-04,2.236301757e-04,-7.829614467e-05,1.453340310e-04,-2.228606009e-04,2.294410370e-05,-1.999164972e-04,-1.717426438e-04,-9.182661875e-05,-2.635692626e-04,1.396202435e-04,6.465829568e-05,2.042785391e-04,3.987420626e-04,-3.079359230e-04,9.080613962e-05,5.899297615e-04,-1.122016366e-04,4.777281249e-04,-2.288195084e-05,1.888825903e-04,1.660006395e-04,-5.339430402e-04,2.828559061e-05,-5.056574496e-04,-2.987255312e-04,2.132924507e-05,-2.773962861e-04,-5.592828279e-04,1.968081606e-05,-5.396020119e-04,-2.569164046e-04,-5.819858017e-05,-3.151149848e-04,3.161865896e-04,-7.390622404e-05,2.422803655e-04,2.164556353e-04,-1.800677159e-04,3.638791941e-05,7.185512941e-04,-1.490898408e-04,5.694614533e-04,6.474466411e-05,-4.945862624e-05,1.528603787e-05,9.687734334e-05,-7.500147187e-05,2.187587147e-05,1.215630632e-04,-1.174754672e-05,1.098155165e-04,2.794779612e-04,1.062647653e-04,3.857427265e-04,6.374075999e-04,-1.228163055e-04,5.145912944e-04,1.535809946e-04,1.711772679e-05,1.706987214e-04,1.051750510e-05,2.992194268e-05,4.043944778e-05,9.705247577e-05,6.624314665e-05,1.632956224e-04,3.073782488e-04,-2.222082100e-05,2.851574278e-04
-4.8,-1.860538213e-04,-3.606572038e-05,-2.221195416e-04,-2.210013271e-04,-3.320868322e-06,-2.243221954e-04,7.230289647e-05,-8.696040940e-05,-1.465751293e-05,-5.485780591e-05,-1.026754600e-04,-1.575332659e-04,-5.543392171e-05,-1.805529331e-04,-2.359868549e-04,-1.169245349e-04,-6.361439517e-05,-1.805389300e-04,-2.831735985e-04,-1.724741445e-04,-4.556477430e-04,1.580041665e-04,-3.637792405e-06,1.543663741e-04,-2.197983492e-04,3.794447941e-05,-1.818538698e-04,-5.145879097e-05,5.975540309e-05,8.296612119e-06,-3.129595544e-04,-1.085500440e-04,-4.215095983e-04,9.475060835e-04,-3.594793672e-04,5.880267163e-04,1.499915047e-05,-5.321425926e-05,-3.821510879e-05,2.913416705e-04,-7.764925968e-05,2.136924108e-04,-1.309416722e-04,2.014977624e-05,-1.107918960e-04,-1.015766776e-04,-9.170533628e-05,-1.932820139e-04,2.611096182e-04,6.715785012e-05,3.282674683e-04,4.350982951e-04,-2.905191507e-04,1.445791444e-04,6.929496288e-04,-1.070273682e-04,5.859222606e-04,7.359030657e-05,1.919866596e-04,2.655769662e-04,-4.632959750e-04,2.973130949e-05,-4.335646655e-04,-2.320982170e-04,1.958649721e-05,-2.125117198e-04,-4.291469164e-04,2.047489441e-05,-4.086720220e-04,-1.610037383e-04,-5.676152352e-05,-2.177652619e-04,3.788692933e-04,-6.592343392e-05,3.129458593e-04,2.323618431e-04,-1.632763336e-04,6.908550952e-05,7.779522938e-04,-1.126418453e-04,6.653104484e-04,1.369177461e-04,-4.319422760e-05,9.372351848e-05,1.841767590e-04,-7.434403887e-05,1.098327202e-04,2.656982693e-04,-8.510389049e-06,2.571878802e-04,3.958574320e-04,1.101250990e-04,5.059825310e-04,7.706188600e-04,-1.177197090e-04,6.528991510e-04,2.497134864e-04,2.186800362e-05,2.715814900e-04,1.268443892e-04,3.365527827e-05,1.604996675e-04,1.954128536e-04,6.518455653e-05,2.605974101e-04,4.116496587e-04,-2.046995640e-05,3.911797023e-04
-4.7,-1.673299526e-04,-2.964906896e-05,-1.969790216e-04,-1.631925190e-04,-2.790965749e-06,-1.659834848e-04,1.171649843e-04,-8.594653167e-05,3.121845260e-05,1.196108033e-05,-9.994035640e-05,-8.797927607e-05,-9.091876487e-06,-1.679303742e-04,-1.770222507e-04,-6.137314066e-05,-5.766563405e-05,-1.190387747e-04,-2.163401093e-04,-1.619029048e-04,-3.782430140e-04,2.246044537e-04,4.466893622e-06,2.290713473e-04,-1.611869283e-04,3.490507928e-05,-1.262818490e-04,5.040271833e-05,5.809163687e-05,1.084943552e-04,-2.589169480e-04,-1.086062363e-04,-3.675231844e-04,1.058007172e-03,-3.699372278e-04,6.880699439e-04,1.422956655e-04,-4.908462656e-05,9.321103896e-05,3.592957477e-04,-7.711014140e-05,2.821856063e-04,-3.697526085e-05,1.665883365e-05,-2.031642720e-05,-3.034827725e-05,-9.129917755e-05,-1.216474548e-04,3.860337144e-04,6.791257836e-05,4.539462928e-04,4.704330148e-04,-2.718410717e-04,1.985919431e-04,7.944382998e-04,-1.010663218e-04,6.933719780e-04,1.708892737e-04,1.940798890e-04,3.649691627e-04,-3.901846429e-04,3.068986539e-05,-3.594947775e-04,-1.639563254e-04,1.754250937e-05,-1.464138160e-04,-2.958420229e-04,2.095419530e-05,-2.748878276e-04,-6.303098339e-05,-5.512424877e-05,-1.181552322e-04,4.411207864e-04,-5.732781641e-05,3.837929699e-04,2.488931543e-04,-1.473912565e-04,1.015018978e-04,8.350856326e-04,-7.441893376e-05,7.606666989e-04,2.091351830e-04,-3.679834021e-05,1.723368428e-04,2.716540891e-04,-7.340987174e-05,1.982442173e-04,4.099992720e-04,-4.825148092e-06,4.051741239e-04,5.124042673e-04,1.131304413e-04,6.255347087e-04,9.030225348e-04,-1.121273464e-04,7.908951884e-04,3.453103798e-04,2.714844601e-05,3.724588258e-04,2.436588237e-04,3.748048932e-05,2.811393131e-04,2.940546105e-04,6.415042502e-05,3.582050355e-04,5.148333049e-04,-1.854850092e-05,4.962848040e-04
-4.6,-1.475894559e-04,-2.307873905e-05,-1.706681950e-04,-1.038456201e-04,-2.469757909e-06,-1.063153781e-04,1.622602950e-04,-8.493644578e-05,7.732384926e-05,7.940514404e-05,-9.718496863e-05,-1.777982459e-05,3.916750764e-05,-1.550652294e-04,-1.158977217e-04,-4.033564951e-06,-5.195447802e-05,-5.598804297e-05,-1.466896486e-04,-1.505054871e-04,-2.971951357e-04,2.916747648e-04,1.281571961e-05,3.044904844e-04,-1.009812528e-04,3.174894592e-05,-6.923230690e-05,1.530757746e-04,5.629148390e-05,2.093672585e-04,-2.031560369e-04,-1.085362755e-04,-3.116923124e-04,1.165800329e-03,-3.799083401e-04,7.858919893e-04,2.713646107e-04,-4.550581538e-05,2.258587953e-04,4.272417175e-04,-7.671277446e-05,3.505289431e-04,5.884368802e-05,1.241846193e-05,7.126214995e-05,4.162919668e-05,-9.051804906e-05,-4.888885238e-05,5.137973207e-04,6.700056088e-05,5.807978815e-04,5.048299638e-04,-2.519845724e-04,2.528453914e-04,8.939309541e-04,-9.418775854e-05,7.997431955e-04,2.686892813e-04,1.951572963e-04,4.638465777e-04,-3.147899843e-04,3.114433021e-05,-2.836456541e-04,-9.455252147e-05,1.523060533e-05,-7.932191614e-05,-1.597555851e-04,2.115791108e-05,-1.385976740e-04,3.664707363e-05,-5.326006629e-05,-1.661299265e-05,5.027173234e-04,-4.810058017e-05,4.546167432e-04,2.660400607e-04,-1.324026499e-04,1.336374108e-04,8.898696391e-04,-3.488882336e-05,8.549808157e-04,2.811696500e-04,-3.029275678e-05,2.508768932e-04,3.589627657e-04,-7.216881605e-05,2.867939496e-04,5.540753715e-04,-6.796197394e-07,5.533957517e-04,6.286974819e-04,1.153119571e-04,7.440094390e-04,1.034283361e-03,-1.059934350e-04,9.282899262e-04,4.401283334e-04,3.291763313e-05,4.730459666e-04,3.606029926e-04,4.139903244e-05,4.020020250e-04,3.928667850e-04,6.310627404e-05,4.559730591e-04,6.166786750e-04,-1.643391605e-05,6.002447589e-04
-4.5,-1.269777821e-04,-1.636680856e-05,-1.433445907e-04,-4.314916077e-05,-2.356246866e-06,-4.550540764e-05,2.073245442e-04,-8.389285564e-05,1.234316886e-04,1.472480493e-04,-9.439667333e-05,5.285137597e-05,8.921615676e-05,-1.420458337e-04,-5.282967693e-05,5.490053117e-05,-4.649320607e-05,8.407325093e-06,-7.432422041e-05,-1.383196511e-04,-2.126438715e-04,3.591063659e-04,2.134399227e-05,3.804503581e-04,-3.928589738e-05,2.846477469e-05,-1.082112269e-05,2.563118358e-04,5.437331029e-05,3.106851461e-04,-1.457851945e-04,-1.083260644e-04,-2.541112589e-04,1.270338489e-03,-3.892140034e-04,8.811244853e-04,4.018347953e-04,-4.252507769e-05,3.593097176e-04,4.949130405e-04,-7.648553573e-05,4.184275048e-04,1.562997702e-04,7.383678283e-06,1.636834485e-04,1.140433870e-04,-8.927936363e-05,2.476402337e-05,6.437563711e-04,6.451716598e-05,7.082735371e-04,5.383888057e-04,-2.310501286e-04,3.073386771e-04,9.909802419e-04,-8.627713593e-05,9.047031059e-04,3.666535466e-04,1.952223692e-04,5.618759158e-04,-2.373071555e-04,3.108481511e-05,-2.062223404e-04,-2.414986305e-05,1.268909758e-05,-1.146076546e-05,-2.130161431e-05,2.113066552e-05,-1.709487872e-07,1.376564468e-04,-5.114270763e-05,8.651373912e-05,5.634266464e-04,-3.823767421e-05,5.251889722e-04,2.837691092e-04,-1.182687575e-04,1.655003517e-04,9.422579503e-04,5.433072292e-06,9.476910226e-04,3.527941392e-04,-2.370007898e-05,3.290940602e-04,4.457513191e-04,-7.059263506e-05,3.751586841e-04,6.975247554e-04,3.924339589e-06,7.014490950e-04,7.442913158e-04,1.167157372e-04,8.610070529e-04,1.164025867e-03,-9.926331715e-05,1.064762550e-03,5.339303762e-04,3.911899126e-05,5.730493674e-04,4.773146137e-04,4.540416919e-05,5.227187829e-04,4.917206138e-04,6.202075034e-05,5.537413642e-04,7.169349777e-04,-1.410295803e-05,7.028320197e-04
-4.4,-1.056475905e-04,-9.526903695e-06,-1.151744942e-04,1.869563033e-05,-2.445415895e-06,1.625021443e-05,2.520881231e-04,-8.277370051e-05,1.693144226e-04,2.152603609e-04,-9.155808670e-05,1.237022742e-04,1.408978757e-04,-1.289551276e-04,1.194274812e-05,1.152106786e-04,-4.128830296e-05,7.392237567e-05,6.196254243e-07,-1.253926245e-04,-1.247729990e-04,4.267780281e-04,2.998013068e-05,4.567581588e-04,2.378391231e-05,2.503996109e-05,4.882387341e-05,3.598532484e-04,5.235426464e-05,4.122075131e-04,-8.692332256e-05,-1.079579762e-04,-1.948812988e-04,1.371096962e-03,-3.976768828e-04,9.734200789e-04,5.333133444e-04,-4.018010803e-05,4.931332364e-04,5.620315502e-04,-7.645073675e-05,4.855808135e-04,2.551580954e-04,1.520469349e-06,2.566785648e-04,1.865900750e-04,-8.751139714e-05,9.907867783e-05,7.752374179e-04,6.056887739e-05,8.358062953e-04,5.712230405e-04,-2.091556926e-04,3.620673479e-04,1.085163142e-03,-7.723909665e-05,1.007924046e-03,4.644398457e-04,1.942873915e-04,6.587272373e-04,-1.579413278e-04,3.050863519e-05,-1.274326926e-04,4.698349992e-05,9.960867139e-06,5.694436706e-05,1.190864390e-04,2.092194436e-05,1.400083834e-04,2.396102027e-04,-4.874670104e-05,1.908635017e-04,6.230127990e-04,-2.775199910e-05,5.952607999e-04,3.020263345e-04,-1.049202912e-04,1.971060432e-04,9.922541487e-04,4.598395750e-05,1.038238106e-03,4.237848238e-04,-1.704366565e-05,4.067411582e-04,5.316707801e-04,-6.865551648e-05,4.630152636e-04,8.399393723e-04,8.971822836e-06,8.489111951e-04,8.587212033e-04,1.174010125e-04,9.761222158e-04,1.291845486e-03,-9.187635169e-05,1.199969134e-03,6.264884660e-04,4.568237252e-05,6.721708386e-04,5.934323766e-04,4.948042655e-05,6.429128031e-04,5.904739935e-04,6.086455515e-05,6.513385486e-04,8.153561006e-04,-1.153405878e-05,8.038220418e-04
-4.3,-8.375570470e-05,-2.574316565e-06,-8.633002127e-05,8.147842923e-05,-2.728534264e-06,7.874989496e-05,2.962818662e-04,-8.153246611e-05,2.147494001e-04,2.832147139e-04,-8.864740199e-05,1.945673119e-04,1.940333242e-04,-1.158698721e-04,7.816345213e-05,1.766577095e-04,-3.634149471e-05,1.403162148e-04,7.797159777e-05,-1.117813814e-04,-3.380978368e-05,4.945565844e-04,3.864628933e-05,5.332028737e-04,8.810501470e-05,2.146036646e-05,1.095653812e-04,4.634367890e-04,5.024985685e-05,5.136866459e-04,-2.669613423e-05,-1.074117347e-04,-1.341078689e-04,1.467585495e-03,-4.051261192e-04,1.062459376e-03,6.653889125e-04,-3.849752553e-05,6.268913870e-04,6.283132339e-04,-7.662449555e-05,5.516887383e-04,3.551673336e-04,-5.191110298e-06,3.499762233e-04,2.589812804e-04,-8.515642068e-05,1.738248597e-04,9.075559076e-04,5.526938614e-05,9.628252937e-04,6.034577800e-04,-1.864358140e-04,4.170219660e-04,1.176088110e-03,-6.700014131e-05,1.109087969e-03,5.617065554e-04,1.923736666e-04,7.540802220e-04,-7.690309647e-05,2.942051528e-05,-4.748258119e-05,1.185801076e-04,7.092814608e-06,1.256729223e-04,2.609633628e-04,2.058541345e-05,2.815487763e-04,3.421151409e-04,-4.604778610e-05,2.960673548e-04,6.812416550e-04,-1.667397019e-05,6.645676848e-04,3.207406575e-04,-9.226577718e-05,2.284748804e-04,1.039919458e-03,8.615953570e-05,1.126078994e-03,4.939256102e-04,-1.034803839e-05,4.835775718e-04,6.163818350e-04,-6.633454580e-05,5.500472892e-04,9.809099042e-04,1.443683967e-05,9.953467439e-04,9.715123324e-04,1.174372244e-04,1.088949557e-03,1.417321892e-03,-8.376961138e-05,1.333552280e-03,7.175861130e-04,5.252626181e-05,7.701123748e-04,7.086024472e-04,5.360326042e-05,7.622057077e-04,6.889766663e-04,5.960885991e-05,7.485855262e-04,9.117067219e-04,-8.709410322e-06,9.029973116e-04
-4.2,-6.145973394e-05,4.473974156e-06,-5.698575978e-05,1.449838552e-04,-3.193676360e-06,1.417901789e-04,3.396426227e-04,-8.011875489e-05,2.595238678e-04,3.508907156e-04,-8.563884585e-05,2.652518698e-04,2.484247718e-04,-1.028602649e-04,1.455645070e-04,2.389856859e-04,-3.165067961e-05,2.073350063e-04,1.575276147e-04,-9.755311485e-05,5.997449984e-05,5.622971362e-04,4.725929285e-05,6.095564291e-04,1.535487386e-04,1.771015260e-05,1.712588912e-04,5.667966990e-04,4.807347327e-05,6.148701723e-04,3.476724069e-05,-1.066652780e-04,-7.189803732e-05,1.559359605e-03,-4.114027373e-04,1.147956868e-03,7.976345768e-04,-3.749082618e-05,7.601437506e-04,6.934735704e-04,-7.701670162e-05,6.164568687e-04,4.560633666e-04,-1.275481192e-05,4.433085547e-04,3.309526083e-04,-8.217353158e-05,2.487790767e-04,1.040029813e-03,4.873826551e-05,1.088768078e-03,6.352268662e-04,-1.630400716e-04,4.721867945e-04,1.263401117e-03,-5.551089615e-05,1.207890221e-03,6.581175658e-04,1.895114373e-04,8.476290031e-04,5.595347561e-06,2.783281882e-05,3.342816638e-05,1.903781475e-04,4.135090460e-06,1.945132380e-04,4.038792029e-04,2.017805756e-05,4.240572605e-04,4.447777279e-04,-4.302342365e-05,4.017543042e-04,7.378868013e-04,-5.051184474e-06,7.328356168e-04,3.398255432e-04,-8.019706186e-05,2.596284813e-04,1.085372400e-03,1.253268117e-04,1.210699212e-03,5.630123796e-04,-3.639440076e-06,5.593729395e-04,6.995600047e-04,-6.361027864e-05,6.359497261e-04,1.120029425e-03,2.028500680e-05,1.140314432e-03,1.082188773e-03,1.169001648e-04,1.199088938e-03,1.540031370e-03,-7.488176141e-05,1.465149608e-03,8.070198907e-04,5.956044750e-05,8.665803382e-04,8.224840140e-04,5.773924849e-05,8.802232625e-04,7.870723379e-04,5.822419161e-05,8.452965295e-04,1.005767043e-03,-5.616217593e-06,1.000150825e-03
-4.1,-3.891503943e-05,1.159941204e-05,-2.731562739e-05,2.089951502e-04,-3.826375234e-06,2.051687749e-04,3.819176655e-04,-7.847914554e-05,3.034385200e-04,4.180785740e-04,-8.250330550e-05,3.355752685e-04,3.038596337e-04,-8.998980818e-05,2.138698255e-04,3.019251258e-04,-2.721045351e-05,2.747146723e-04,2.390492422e-04,-8.278540212e-05,1.562638400e-04,6.298425483e-04,5.573196702e-05,6.855745153e-04,2.199825687e-04,1.377178275e-05,2.337543515e-04,6.696669117e-04,4.583598400e-05,7.155028957e-04,9.733682974e-05,-1.056954669e-04,-8.358637193e-06,1.646029065e-03,-4.163649773e-04,1.229664088e-03,9.296094845e-04,-3.715852719e-05,8.924509574e-04,7.572310059e-04,-7.763096335e-05,6.796000425e-04,5.575716351e-04,-2.115705985e-05,5.364145753e-04,4.022676924e-04,-7.854056493e-05,3.237271275e-04,1.171987773e-03,4.110090512e-05,1.213088678e-03,6.666673351e-04,-1.391301759e-04,5.275371592e-04,1.346789030e-03,-4.274749489e-05,1.304041535e-03,7.533452620e-04,1.857393574e-04,9.390846194e-04,8.934263672e-05,2.576568274e-05,1.151083195e-04,2.621248119e-04,1.140070895e-06,2.632648828e-04,5.473849280e-04,1.975914920e-05,5.671440772e-04,5.472085231e-04,-3.965334728e-05,5.075551758e-04,7.927352399e-04,7.051795356e-06,7.997870352e-04,3.591782684e-04,-6.859386391e-05,2.905844045e-04,1.128783441e-03,1.628422409e-04,1.291625682e-03,6.308551821e-04,3.053949782e-06,6.339091319e-04,7.808980984e-04,-6.046737736e-05,7.204307210e-04,1.256896002e-03,2.647632672e-05,1.283372328e-03,1.190281363e-03,1.158677715e-04,1.306149135e-03,1.659556292e-03,-6.515660122e-05,1.594399690e-03,8.945991898e-04,6.668884417e-05,9.612880340e-04,9.347525464e-04,6.184689795e-05,9.965994444e-04,8.845962298e-04,5.668050638e-05,9.412767362e-04,1.097334456e-03,-2.246999443e-06,1.095087456e-03
-4,-1.627257148e-05,1.878216201e-05,2.509590531e-06,2.732969213e-04,-4.610240873e-06,2.686866804e-04,4.228675874e-04,-7.655827808e-05,3.463093094e-04,4.845810403e-04,-7.920910545e-05,4.053719349e-04,3.601126406e-04,-7.731521180e-05,2.827974287e-04,3.651956412e-04,-2.301224316e-05,3.421833981e-04,3.222635184e-04,-6.756563522e-05,2.546978832e-04,6.970224283e-04,6.397474931e-05,7.609971776e-04,2.872709584e-04,9.626229520e-06,2.968971879e-04,7.717825774e-04,4.354558187e-05,8.153281592e-04,1.608834974e-04,-1.044786032e-04,5.640489417e-05,1.727261981e-03,-4.198927389e-04,1.307369243e-03,1.060860120e-03,-3.748339995e-05,1.023376720e-03,8.193083343e-04,-7.846459636e-05,7.408437380e-04,6.594072506e-04,-3.036638566e-05,6.290408649e-04,4.727182691e-04,-7.425445019e-05,3.984638189e-04,1.302773245e-03,3.248810131e-05,1.335261346e-03,6.979101166e-04,-1.148754347e-04,5.830346819e-04,1.425980104e-03,-2.871205397e-05,1.397268050e-03,8.470715743e-04,1.811035926e-04,1.028175167e-03,1.741292217e-04,2.324702517e-05,1.973762469e-04,3.335779479e-04,-1.838811160e-06,3.317391368e-04,6.910366482e-04,1.938913200e-05,7.104257802e-04,6.490249687e-04,-3.592006084e-05,6.131049078e-04,8.455921012e-04,1.955318495e-05,8.651452862e-04,3.786774853e-04,-5.732662611e-05,3.213508592e-04,1.170367201e-03,1.980719340e-04,1.368439135e-03,6.972779987e-04,9.702313991e-06,7.069803127e-04,8.601064235e-04,-5.689522699e-05,8.032111965e-04,1.391115035e-03,3.296756126e-05,1.424082596e-03,1.295333691e-03,1.144160916e-04,1.409749782e-03,1.775491797e-03,-5.454631645e-05,1.720945480e-03,9.801443847e-04,7.381196318e-05,1.053956348e-03,1.045100685e-03,6.587786449e-05,1.110978549e-03,9.813694196e-04,5.494850465e-05,1.036317924e-03,1.186222037e-03,1.400698289e-06,1.187622735e-03
-3.9,6.322305020e-06,2.600155169e-05,3.232385671e-05,3.376767983e-04,-5.527429215e-06,3.321493691e-04,4.622678867e-04,-7.430006507e-05,3.879678216e-04,5.502138366e-04,-7.572288209e-05,4.744909545e-04,4.169470970e-04,-6.488618277e-05,3.520609142e-04,4.285082723e-04,-1.904419274e-05,4.094640795e-04,4.068639620e-04,-5.198953494e-05,3.548744271e-04,7.636521002e-04,7.189741716e-05,8.355495173e-04,3.552754802e-04,5.253392790e-06,3.605288730e-04,8.728811249e-04,4.120795539e-05,9.140890803e-04,2.252799039e-04,-1.029907484e-04,1.222891555e-04,1.802784423e-03,-4.218906168e-04,1.380893806e-03,1.190922650e-03,-3.843331971e-05,1.152489331e-03,8.794325352e-04,-7.950873623e-05,7.999237990e-04,7.612732182e-04,-4.033322988e-05,7.209399883e-04,5.421198295e-04,-6.932989448e-05,4.727899350e-04,1.431746466e-03,2.303493413e-05,1.454781400e-03,7.290680773e-04,-9.044699349e-05,6.386210838e-04,1.500742797e-03,-1.343284849e-05,1.487309948e-03,9.389876579e-04,1.756567768e-04,1.114644435e-03,2.597473255e-04,2.031249136e-05,2.800598169e-04,4.045063755e-04,-4.748206739e-06,3.997581688e-04,8.343987099e-04,1.912850783e-05,8.535272177e-04,7.498529528e-04,-3.180924078e-05,7.180437120e-04,8.962832672e-04,3.235383189e-05,9.286370991e-04,3.981806967e-04,-4.625787816e-05,3.519228185e-04,1.210371323e-03,2.304114118e-04,1.440782735e-03,7.621169059e-04,1.627475911e-05,7.783916650e-04,9.369120527e-04,-5.288852202e-05,8.840235307e-04,1.522301897e-03,3.971398303e-05,1.562015880e-03,1.396906275e-03,1.126157420e-04,1.509522017e-03,1.887450823e-03,-4.301460012e-05,1.844436223e-03,1.063483962e-03,8.082873148e-05,1.144312694e-03,1.153237141e-03,6.977855408e-05,1.223015695e-03,1.077192694e-03,5.300138798e-05,1.130194082e-03,1.272255062e-03,5.324623832e-06,1.277579686e-03
-3.8,2.873028726e-05,3.323646928e-05,6.196675654e-05,4.019262542e-04,-6.558971831e-06,3.953672824e-04,4.999097458e-04,-7.164891114e-05,4.282608347e-04,6.148051698e-04,-7.201052576e-05,5.427946441e-04,4.741158972e-04,-5.274505155e-05,4.213708456e-04,4.915675786e-04,-1.529082793e-05,4.762767507e-04,4.925131319e-04,-3.615883509e-05,4.563542968e-04,8.295320229e-04,7.941086117e-05,9.089428841e-04,4.238546439e-04,6.327084703e-07,4.244873524e-04,9.727031389e-04,3.882680351e-05,1.011529942e-03,2.904010612e-04,-1.012078763e-04,1.891931849e-04,1.872376563e-03,-4.222892014e-04,1.450087361e-03,1.319326452e-03,-3.996337746e-05,1.279363075e-03,9.373339455e-04,-8.074859329e-05,8.565853522e-04,8.628578885e-04,-5.099018451e-05,8.118677040e-04,6.103042872e-04,-6.379685622e-05,5.465074310e-04,1.558285035e-03,1.287972190e-05,1.571164757e-03,7.602234203e-04,-6.601134255e-05,6.942120778e-04,1.570884199e-03,3.035302887e-06,1.573919502e-03,1.028793115e-03,1.694570022e-04,1.198250117e-03,3.459905076e-04,1.700533598e-05,3.629958436e-04,4.746895928e-04,-7.535864700e-06,4.671537281e-04,9.770462714e-04,1.903677473e-05,9.960830461e-04,8.493279275e-04,-2.731008472e-05,8.220178428e-04,9.446552488e-04,4.533805116e-05,9.899933000e-04,4.175234805e-04,-3.524326268e-05,3.822802179e-04,1.249061546e-03,2.593038349e-04,1.508365381e-03,8.252177556e-04,2.273981032e-05,8.479575659e-04,1.011058476e-03,-4.844777711e-05,9.626106989e-04,1.650085385e-03,4.667043362e-05,1.696755819e-03,1.494579279e-03,1.105291544e-04,1.605108433e-03,1.995068579e-03,-3.053951069e-05,1.964529068e-03,1.144451238e-03,8.763786871e-05,1.232089107e-03,1.258884165e-03,7.349228602e-05,1.332376451e-03,1.171842483e-03,5.081577847e-05,1.222658262e-03,1.355267286e-03,9.517896261e-06,1.364785183e-03
-3.7,5.081842864e-05,4.046554778e-05,9.128397642e-05,4.658410865e-04,-7.685019638e-06,4.581560668e-04,5.356006716e-04,-6.855081645e-05,4.670498551e-04,6.781952007e-04,-6.803817327e-05,6.101570275e-04,5.313630473e-04,-4.092625929e-05,4.904367880e-04,5.540735527e-04,-1.173246975e-05,5.423410830e-04,5.788467414e-04,-2.017842402e-05,5.586683174e-04,8.944480154e-04,8.642883418e-05,9.808768496e-04,4.928638065e-04,-4.256119826e-06,4.886076867e-04,1.070993432e-03,3.640457006e-05,1.107398002e-03,3.561249625e-04,-9.910600726e-05,2.570189552e-04,1.935866454e-03,-4.210442235e-04,1.514822230e-03,1.445598151e-03,-4.201820803e-05,1.403579943e-03,9.927458787e-04,-8.216384249e-05,9.105820362e-04,9.638333285e-04,-6.225289959e-05,9.015804289e-04,6.771119495e-04,-5.769743798e-05,6.194145116e-04,1.681783198e-03,2.163900140e-06,1.683947098e-03,7.914161276e-04,-4.172359811e-05,7.496925295e-04,1.636248498e-03,2.061064340e-05,1.656859142e-03,1.116195895e-03,1.625669002e-04,1.278762795e-03,4.326537093e-04,1.337608717e-05,4.460297965e-04,5.439178128e-04,-1.015151310e-05,5.337662997e-04,1.118568185e-03,1.917143242e-05,1.137739617e-03,9.470965482e-04,-2.241566151e-05,9.246808867e-04,9.905729971e-04,5.837577684e-05,1.048948774e-03,4.365220852e-04,-2.413391276e-05,4.123881725e-04,1.286706154e-03,2.842556384e-04,1.570961792e-03,8.864343093e-04,2.906575128e-05,9.155000605e-04,1.082306475e-03,-4.357951748e-05,1.038726957e-03,1.774112493e-03,5.379207826e-05,1.827904572e-03,1.587954636e-03,1.082088122e-04,1.696163448e-03,2.098007280e-03,-1.711596509e-05,2.080891315e-03,1.222881554e-03,9.413918439e-05,1.317020739e-03,1.361774603e-03,7.696197583e-05,1.438736578e-03,1.265070416e-03,4.837122063e-05,1.313441636e-03,1.435098709e-03,1.396878214e-05,1.449067491e-03
-3.6,7.246081637e-05,4.766711306e-05,1.201279294e-04,5.292221729e-04,-8.885023486e-06,5.203371494e-04,5.691657633e-04,-6.495428235e-05,5.042114809e-04,7.402363717e-04,-6.377321239e-05,6.764631593e-04,5.884264721e-04,-2.945580913e-05,5.589706630e-04,6.157238106e-04,-8.344590567e-06,6.073792200e-04,6.654790929e-04,-4.153365407e-06,6.613257275e-04,9.581726056e-04,9.286957574e-05,1.051042181e-03,5.621556460e-04,-9.432408586e-06,5.527232374e-04,1.167502756e-03,3.394317017e-05,1.201445926e-03,4.223338362e-04,-9.666155791e-05,3.256722783e-04,1.993122673e-03,-4.181333208e-04,1.574989352e-03,1.569266376e-03,-4.453359959e-05,1.524732776e-03,1.045405876e-03,-8.372917934e-05,9.616766967e-04,1.063856697e-03,-7.402204936e-05,9.898346472e-04,7.423849398e-04,-5.108260834e-05,6.913023314e-04,1.801650281e-03,-8.966818619e-06,1.792683462e-03,8.226348200e-04,-1.772119723e-05,8.049136227e-04,1.696715269e-03,3.918493964e-05,1.735900208e-03,1.200913915e-03,1.550528288e-04,1.355966744e-03,5.195346187e-04,9.481847609e-06,5.290164663e-04,6.119931934e-04,-1.254760000e-05,5.994455934e-04,1.258570964e-03,1.958706835e-05,1.278158032e-03,1.042819605e-03,-1.712323974e-05,1.025696365e-03,1.033917345e-03,7.132570538e-05,1.105243050e-03,4.549803826e-04,-1.278144823e-05,4.421989344e-04,1.323563469e-03,3.048480192e-04,1.628411488e-03,9.456277280e-04,3.522103172e-05,9.808487597e-04,1.150436636e-03,-3.829589422e-05,1.112140742e-03,1.894054650e-03,6.103569309e-05,1.955090343e-03,1.676659132e-03,1.056963720e-04,1.782355504e-03,2.195962066e-03,-2.758013487e-06,2.193204053e-03,1.298611074e-03,1.002348728e-04,1.398845947e-03,1.461649954e-03,8.013293630e-05,1.541782890e-03,1.356606571e-03,4.564913408e-05,1.402255706e-03,1.511596139e-03,1.866007400e-05,1.530256213e-03
