Time,S1D1HbO,S1D1HbR,S1D1HbT,S2D2HbO,S2D2HbR,S2D2HbT,S3D3HbO,S3D3HbR,S3D3HbT,S4D4HbO,S4D4HbR,S4D4HbT,S5D5HbO,S5D5HbR,S5D5HbT,S6D6HbO,S6D6HbR,S6D6HbT,S7D7HbO,S7D7HbR,S7D7HbT,S8D8HbO,S8D8HbR,S8D8HbT,S9D9HbO,S9D9HbR,S9D9HbT,S10D10HbO,S10D10HbR,S10D10HbT,S11D11HbO,S11D11HbR,S11D11HbT,S12D12HbO,S12D12HbR,S12D12HbT,S13D13HbO,S13D13HbR,S13D13HbT,S14D14HbO,S14D14HbR,S14D14HbT,S15D15HbO,S15D15HbR,S15D15HbT,S16D16HbO,S16D16HbR,S16D16HbT,S17D17HbO,S17D17HbR,S17D17HbT,S18D18HbO,S18D18HbR,S18D18HbT,S19D19HbO,S19D19HbR,S19D19HbT,S20D20HbO,S20D20HbR,S20D20HbT,S21D21HbO,S21D21HbR,S21D21HbT,S22D22HbO,S22D22HbR,S22D22HbT,S23D23HbO,S23D23HbR,S23D23HbT,S24D24HbO,S24D24HbR,S24D24HbT,S25D25HbO,S25D25HbR,S25D25HbT,S26D26HbO,S26D26HbR,S26D26HbT,S27D27HbO,S27D27HbR,S27D27HbT,S28D28HbO,S28D28HbR,S28D28HbT,S29D29HbO,S29D29HbR,S29D29HbT,S30D30HbO,S30D30HbR,S30D30HbT,S31D31HbO,S31D31HbR,S31D31HbT,S32D32HbO,S32D32HbR,S32D32HbT,S33D33HbO,S33D33HbR,S33D33HbT,S34D34HbO,S34D34HbR,S34D34HbT,S35D35HbO,S35D35HbR,S35D35HbT,S36D36HbO,S36D36HbR,S36D36HbT
0.0,-0.0002086905039,-7.421066739e-05,-0.0002829011712,-0.0002922626052,0.0002710395312,-2.122307398e-05,-0.0003162498297,5.209740497e-06,-0.0003110400892,-0.0004825376269,0.0002759523291,-0.0002065852977,2.280604338e-05,0.0002661899031,0.0002889959465,1.119038148e-05,0.0003045352632,0.0003157256447,0.0001922126979,0.0001130500919,0.0003052627898,0.00028671208,-1.26620518e-05,0.0002740500282,9.87609279e-05,7.287863301e-05,0.0001716395609,9.908131861e-05,9.019198403e-05,0.0001892733026,-0.0006766494584,0.0003477925856,-0.0003288568727,-8.359847701e-06,0.000198288552,0.0001899287043,-0.0001301286424,6.219308733e-05,-6.793555508e-05,-0.0002058948911,2.222916061e-05,-0.0001836657305,-0.0005582778135,-5.696866247e-05,-0.0006152464759,-0.0009494446745,-0.0001071352576,-0.001056579932,-0.001215544396,-0.000143401388,-0.001358945784,-0.0008735410422,3.636933254e-05,-0.0008371717097,-0.0006884333408,-7.885707823e-05,-0.000767290419,-5.801606082e-07,0.0001262580934,0.0001256779328,-0.0007928995463,0.0002509889449,-0.0005419106014,-0.0007163477023,0.0002395240548,-0.0004768236476,-0.0003497311584,0.0001999108014,-0.000149820357,-0.0003276786643,0.0001077518549,-0.0002199268094,-0.0001804968721,7.499734784e-05,-0.0001054995243,-8.080544216e-05,-3.147726643e-05,-0.0001122827086,-0.0001196152512,2.696454203e-05,-9.265070914e-05,-0.0003622622092,-0.0001295973932,-0.0004918596025,-0.001107576515,2.747454419e-05,-0.001080101971,-0.0007877988309,9.313023326e-05,-0.0006946685976,-0.001086446726,-3.497046002e-05,-0.001121417186,-0.00053683284,5.164607004e-05,-0.00048518677,-0.001526677255,-4.583851122e-05,-0.001572515766,-0.0007845414051,6.977181899e-05,-0.0007147695861,-0.001058804189,0.0002645520812,-0.0007942521081,-0.0006480550925,0.0001102124728,-0.0005378426197
0.1,-0.0001174270021,-7.447620223e-05,-0.0001919032043,-0.0001892389159,0.0002802525928,9.101367691e-05,-0.0002430803702,1.326151463e-05,-0.0002298188555,-0.0004273807023,0.0002990130127,-0.0001283676896,7.060431694e-05,0.0002644020842,0.0003350064012,6.718065868e-05,0.0003097045004,0.0003768851591,0.0002554993704,0.000112144804,0.0003676441744,0.000342098098,-1.554751584e-05,0.0003265505821,0.0001547983638,7.56500368e-05,0.0002304484006,0.0001364616382,8.956752498e-05,0.0002260291632,-0.0006353576143,0.0003568605489,-0.0002784970654,8.709502683e-05,0.00019368135,0.0002807763769,-5.476506338e-05,6.860226709e-05,1.383720371e-05,-0.0001551038282,2.256197776e-05,-0.0001325418504,-0.0005027172026,-5.225879038e-05,-0.0005549759929,-0.0008795853689,-0.0001054547648,-0.0009850401337,-0.00115139461,-0.0001426050191,-0.001293999629,-0.0008120475598,3.241122565e-05,-0.0007796363342,-0.0006272785312,-7.74261393e-05,-0.0007047046706,3.99806766e-05,0.000126731801,0.0001667124776,-0.0007549335447,0.000262770836,-0.0004921627087,-0.0006821832727,0.0002417018651,-0.0004404814076,-0.0003006370573,0.0002057040826,-9.493297469e-05,-0.0002760851995,0.0001018056184,-0.0001742795811,-0.0001276088639,7.802186302e-05,-4.95870009e-05,-5.402743917e-05,-3.186189419e-05,-8.588933336e-05,-5.48353146e-05,2.259840362e-05,-3.223691098e-05,-0.000325563176,-0.0001263104379,-0.0004518736139,-0.001046239444,3.15123234e-05,-0.00101472712,-0.0007217933559,8.900032156e-05,-0.0006327930344,-0.001021212818,-2.931522364e-05,-0.001050528042,-0.0004444070909,4.857034346e-05,-0.0003958367475,-0.001426567439,-1.604595006e-05,-0.001442613389,-0.0006665230598,9.596854552e-05,-0.0005705545143,-0.0009641329617,0.0002822632877,-0.0006818696741,-0.0005468948448,0.0001286530934,-0.0004182417514
0.2,-2.535392835e-05,-7.501030482e-05,-0.0001003642332,-8.58704779e-05,0.0002890770065,0.0002032065286,-0.0001695487789,2.154055436e-05,-0.0001480082245,-0.0003718338645,0.0003226593117,-4.917455281e-05,0.000118045506,0.0002624934388,0.0003805389448,0.0001232813303,0.0003144540149,0.0004377353453,0.0003186110656,0.0001110524844,0.0004296635499,0.0003971873267,-1.870961227e-05,0.0003784777144,0.0002108740761,7.818339551e-05,0.0002890574716,0.0001737320448,8.871898633e-05,0.0002624510311,-0.0005934169851,0.000365578419,-0.0002278385661,0.000182381409,0.0001885856058,0.0003709670148,2.230762843e-05,7.417373055e-05,9.648135898e-05,-0.0001040714903,2.284137082e-05,-8.123011949e-05,-0.0004456735351,-4.766118301e-05,-0.0004933347181,-0.0008084962675,-0.0001039140377,-0.0009124103052,-0.001086484458,-0.0001416410471,-0.001228125505,-0.0007497019335,2.829849579e-05,-0.0007214034377,-0.0005656712903,-7.565434356e-05,-0.0006413256338,8.023370993e-05,0.0001271204711,0.000207354181,-0.0007164513161,0.0002744170534,-0.0004420342626,-0.0006476305846,0.0002437495818,-0.0004038810028,-0.0002512949924,0.0002113666337,-3.992835871e-05,-0.0002248483611,9.579485631e-05,-0.0001290535047,-7.420124885e-05,8.102029883e-05,6.819049985e-06,-2.691354711e-05,-3.224523008e-05,-5.915877719e-05,1.051540309e-05,1.887386003e-05,2.938926312e-05,-0.0002887930272,-0.000122897981,-0.0004116910082,-0.0009841356829,3.54976727e-05,-0.0009486380102,-0.000655182523,8.475852286e-05,-0.0005704240001,-0.0009554206811,-2.362288088e-05,-0.000979043562,-0.0003516401288,4.545006564e-05,-0.0003061900632,-0.001323636974,1.544066172e-05,-0.001308196312,-0.0005475810962,0.0001234133159,-0.0004241677802,-0.0008680016073,0.0003007375929,-0.0005672640144,-0.0004429223681,0.0001458103358,-0.0002971120323
0.3,6.711121232e-05,-7.581717995e-05,-8.705967631e-06,1.736368076e-05,0.0002974806971,0.0003148443779,-9.599547323e-05,3.002548887e-05,-6.596998435e-05,-0.0003161391611,0.0003468084358,3.066927468e-05,0.0001649622796,0.0002604917555,0.0004254540351,0.0001792414539,0.0003187605774,0.0004980020313,0.0003813119626,0.0001097779956,0.0004910899583,0.0004517613935,-2.21432136e-05,0.00042961818,0.0002667588759,8.045749159e-05,0.0003472163675,0.0002107405,8.764649167e-05,0.0002983869917,-0.0005510430607,0.0003739027622,-0.0001771402986,0.0002770876394,0.000183008217,0.0004600958564,0.0001008248006,7.885780537e-05,0.000179682606,-5.301240026e-05,2.30586792e-05,-2.995372106e-05,-0.0003872859848,-4.322749391e-05,-0.0004305134787,-0.0007365316324,-0.0001025148175,-0.0008390464498,-0.001021098535,-0.000140515486,-0.001161614021,-0.0006867649164,2.404235882e-05,-0.0006627225576,-0.0005038187546,-7.357645125e-05,-0.0005773952058,0.0001199853655,0.0001274260876,0.0002474114531,-0.0006777058893,0.0002859047978,-0.0003918010915,-0.0006129158664,0.0002456992311,-0.0003672166353,-0.0002019417842,0.0002168875754,1.494579126e-05,-0.0001742592935,8.9743672e-05,-8.451562154e-05,-2.05201304e-05,8.40012197e-05,6.34810893e-05,4.350262373e-07,-3.260898925e-05,-3.217396302e-05,7.617624296e-05,1.588479148e-05,9.206103444e-05,-0.0002520513164,-0.0001193800726,-0.000371431389,-0.0009214389491,3.942674979e-05,-0.0008820121993,-0.0005881964501,8.042800385e-05,-0.0005077684462,-0.00088928287,-1.79117495e-05,-0.0009071946195,-0.0002588525642,4.23058386e-05,-0.0002165467256,-0.00121816953,4.856216132e-05,-0.001169607368,-0.0004280385464,0.0001518376496,-0.0002762008968,-0.0007708680856,0.0003200776137,-0.0004507904719,-0.0003364509157,0.0001616519848,-0.0001747989309
0.4,0.0001595656218,-7.689942842e-05,8.266619338e-05,0.0001199950142,0.0003054338985,0.0004254289127,-2.274771606e-05,3.869165077e-05,1.594393471e-05,-0.0002605404278,0.0003713708002,0.0001108303724,0.0002111997737,0.000258424065,0.0004696238387,0.0002348115332,0.0003226026561,0.0005574141893,0.0004433741629,0.0001083264001,0.000551700563,0.0005056078606,-2.584164623e-05,0.0004797662144,0.0003222323905,8.245270552e-05,0.000404685096,0.0002473411283,8.635133999e-05,0.0003336924683,-0.0005084437875,0.0003817926608,-0.0001266511268,0.0003708232057,0.0001769562113,0.0005477794171,0.0001805161809,8.261456277e-05,0.0002631307436,-2.132660661e-06,2.320584028e-05,2.107317962e-05,-0.0003277038495,-3.900397003e-05,-0.0003667078195,-0.0006640406258,-0.0001012569315,-0.0007652975573,-0.0009555046503,-0.0001392391289,-0.001094743779,-0.0006234886157,1.965408921e-05,-0.0006038345265,-0.0004419148002,-7.123195667e-05,-0.0005131467569,0.0001590495787,0.000127651019,0.0002867005977,-0.0006389430252,0.0002972115796,-0.0003417314456,-0.0005782632238,0.0002475829656,-0.0003306802582,-0.0001528019958,0.0002222553628,6.945336699e-05,-0.0001245953173,8.367602055e-05,-4.091929679e-05,3.31884865e-05,8.697121662e-05,0.0001201597031,2.791700324e-05,-3.293411915e-05,-5.01711591e-06,0.0001418870965,1.370523511e-05,0.0001555923316,-0.0002154312593,-0.0001157759469,-0.0003312072062,-0.0008583159412,4.32947398e-05,-0.0008150212014,-0.0005210576795,7.602970802e-05,-0.0004450279715,-0.0008230061171,-1.220014488e-05,-0.000835206262,-0.0001663504395,3.915359374e-05,-0.0001271968458,-0.001110453699,8.322336221e-05,-0.001027230337,-0.0003081891828,0.0001809513644,-0.0001272378184,-0.0006731749923,0.000340351938,-0.0003328230543,-0.0002278088105,0.0001761718302,-5.163698032e-05
0.5,0.0002516284713,-7.825795112e-05,0.0001733705202,0.0002215734587,0.0003129094039,0.0005344828626,4.988637665e-05,4.751121201e-05,9.739758866e-05,-0.0002052786061,0.0003962506182,0.0001909720121,0.0002566192597,0.0002563162849,0.0005129355446,0.0002897475161,0.000325960562,0.0006157080781,0.0005045820316,0.0001067028749,0.0006112849066,0.0005585239091,-2.979686735e-05,0.0005287270418,0.000377086946,8.415125836e-05,0.0004612382044,0.0002833968605,8.483605692e-05,0.0003682329174,-0.0004658159952,0.000389210252,-7.660574322e-05,0.0004632235467,0.0001704374072,0.0006336609539,0.0002611111521,8.541365682e-05,0.0003465248089,4.837324199e-05,2.327568853e-05,7.164893052e-05,-0.0002670841628,-3.503079576e-05,-0.0003021149586,-0.0005913609506,-0.0001001387705,-0.0006914997211,-0.0008899487113,-0.0001378278657,-0.001027776577,-0.0005601126322,1.514540867e-05,-0.0005449672235,-0.000380136583,-6.866406559e-05,-0.0004488006486,0.0001972511887,0.0001277979061,0.0003250490948,-0.0006003963156,0.0003083150169,-0.0002920812987,-0.0005438911215,0.0002494324225,-0.0002944586991,-0.0001040835291,0.0002274577691,0.00012337424,-7.611534267e-05,7.761540747e-05,1.500064796e-06,8.668151511e-05,8.993422868e-05,0.0001766157438,5.543219706e-05,-3.320103172e-05,2.223116534e-05,0.000207394651,1.238604629e-05,0.0002197806973,-0.0001790187495,-0.0001121034898,-0.0002911222394,-0.0007949240836,4.709602157e-05,-0.000747828062,-0.0004539779934,7.158236012e-05,-0.0003823956333,-0.000756788116,-6.505827318e-06,-0.0007632939433,-7.441939597e-05,3.600453778e-05,-3.841485819e-05,-0.001000780321,0.0001192989347,-0.000881481386,-0.0001882940479,0.0002104472733,2.215322542e-05,-0.0005753365731,0.0003615854573,-0.0002137511158,-0.0001173298157,0.0001893838225,7.205400679e-05
0.6,0.0003429469425,-7.989184584e-05,0.0002630550967,0.0003216739267,0.0003198826127,0.0006415565394,0.0001216226151,5.645332451e-05,0.0001780759397,-0.0001505876061,0.0004213467282,0.000270759122,0.0003011007627,0.0002541928189,0.0005552935816,0.0003438139835,0.0003288166814,0.0006726306648,0.0005647357085,0.0001049126437,0.0006696483522,0.0006103190348,-3.399963951e-05,0.0005763193953,0.0004311302242,8.553726036e-05,0.0005166674846,0.0003187812531,8.310437524e-05,0.0004018856283,-0.0004233428583,0.0003961210785,-2.722177982e-05,0.0005539532828,0.0001634607915,0.0007174140743,0.0003423419566,8.723493656e-05,0.0004295768931,9.832458141e-05,2.326208587e-05,0.0001215866673,-0.0002055890417,-3.134183226e-05,-0.000236930874,-0.0005188132897,-9.915779819e-05,-0.0006179710879,-0.0008246511634,-0.0001363025115,-0.0009609536749,-0.0004968609978,1.052893238e-05,-0.0004863320654,-0.0003186419109,-6.591861568e-05,-0.0003845605266,0.0002344282236,0.0001278693125,0.0003622975361,-0.0005622833923,0.0003191926214,-0.0002430907709,-0.0005100095605,0.0002512780143,-0.0002587315462,-5.597510528e-05,0.0002324818104,0.0001765067051,-2.905707057e-05,7.158463078e-05,4.25275602e-05,0.0001397210379,9.289123785e-05,0.0002326122758,8.288248873e-05,-3.338981489e-05,4.949267384e-05,0.0002724569741,1.195328955e-05,0.0002844102637,-0.0001428918542,-0.0001083786745,-0.0002512705287,-0.000731410856,5.082435555e-05,-0.0006805865005,-0.0003871566022,6.710261775e-05,-0.0003200539844,-0.0006908154032,-8.4568204e-07,-0.0006916610853,1.667906419e-05,3.286530538e-05,4.954436958e-05,-0.0008894424609,0.0001566409711,-0.0007328014897,-6.857909161e-05,0.0002400059128,0.0001714268212,-0.0004777281499,0.0003837505921,-9.397755782e-05,-5.345634007e-06,0.0002013162848,0.0001959706508
0.7,0.0004331997729,-8.17984081e-05,0.0003514013648,0.0004199000114,0.0003263313782,0.0007462313895,0.0001922034876,6.548425277e-05,0.0002576877404,-9.669141014e-05,0.0004465536396,0.0003498622295,0.000344543838,0.0002520761276,0.0005966199656,0.0003967859663,0.0003311557361,0.0007279417025,0.0006236528899,0.0001029608942,0.0007266137841,0.0006608162063,-3.843975609e-05,0.0006223764503,0.0004841862243,8.659661802e-05,0.0005707828423,0.0003533791138,8.116114591e-05,0.0004345402597,-0.000381192776,0.0004024942412,2.130146521e-05,0.000642707071,0.0001560365422,0.0007987436131,0.0004239440865,8.807027621e-05,0.0005120143627,0.0001475550939,2.315989489e-05,0.0001707149888,-0.0001433830958,-2.796479852e-05,-0.0001713478943,-0.0004466974743,-9.83110064e-05,-0.0005450084807,-0.0007598057125,-0.0001346882871,-0.0008944939996,-0.0004339406224,5.818600595e-06,-0.0004281220218,-0.0002575682528,-6.304308457e-05,-0.0003206113374,0.0002704326373,0.0001278673517,0.000398299989,-0.0005248037811,0.0003298216954,-0.0001949820857,-0.0004768182659,0.0002531483146,-0.0002236699513,-8.645625479e-06,0.0002373136618,0.0002286680364,1.636400062e-05,6.560562885e-05,8.196962947e-05,0.0001920756734,9.584034317e-05,0.0002879160166,0.0001101724028,-3.348039077e-05,7.669201201e-05,0.000336846032,1.240841122e-05,0.0003492544432,-0.000107121263,-0.0001046149385,-0.0002117362015,-0.0006679148532,5.447305702e-05,-0.0006134417962,-0.0003207798661,6.260531534e-05,-0.0002581745508,-0.0006252626416,4.764313573e-06,-0.000620498328,0.0001067084415,2.973830923e-05,0.0001364467507,-0.0007767397868,0.0001950862644,-0.0005816535224,5.076377405e-05,0.0002693004225,0.0003200641965,-0.0003806771899,0.0004067587569,2.608156694e-05,0.0001078178816,0.0002120071822,0.0003198250638
0.8,0.0005220981601,-8.397330836e-05,0.0004381248517,0.0005158849506,0.0003322357185,0.0008481206691,0.0002613989646,7.456752956e-05,0.0003359664941,-4.380247763e-05,0.0004717627005,0.0004279602228,0.0003868666059,0.0002499863207,0.0006368529266,0.0004484494611,0.0003329650353,0.0007814144964,0.0006811688324,0.000100852687,0.0007820215194,0.0007098516891,-4.310631955e-05,0.0006667453695,0.0005360948226,8.731693151e-05,0.0006234117541,0.000387086101,7.901223389e-05,0.0004660983349,-0.0003395194387,0.0004083024424,6.87830037e-05,0.0007292085915,0.0001481756645,0.000877384256,0.0005056544374,8.79262129e-05,0.0005935806503,0.0001959124771,2.296490522e-05,0.0002188773823,-8.063106887e-05,-2.492178146e-05,-0.0001055528503,-0.0003752905915,-9.759526769e-05,-0.0004728858592,-0.0006955801016,-0.0001330142012,-0.0008285943027,-0.0003715413231,1.029985295e-06,-0.0003705113378,-0.0001970334561,-6.008584671e-05,-0.0002571193028,0.0003051297468,0.0001277934594,0.0004329232062,-0.0004881382917,0.0003401793783,-0.0001479589133,-0.0004445057626,0.0002550696168,-0.0001894361458,3.775537372e-05,0.0002419385916,0.0002796939653,5.995445286e-05,5.969943766e-05,0.0001196538905,0.0002435211734,9.877696686e-05,0.0003422981402,0.0001372092738,-3.345266954e-05,0.0001037566043,0.0004003487277,1.372944345e-05,0.0004140781711,-7.177145078e-05,-0.0001008227425,-0.0001725941933,-0.0006045678969,5.80350494e-05,-0.0005465328475,-0.0002550220988,5.810368423e-05,-0.0001969184145,-0.0005602930236,1.030891269e-05,-0.0005499841109,0.0001954556338,2.662227549e-05,0.0002220779093,-0.0006629869444,0.0002344620039,-0.0004285249406,0.0001695715026,0.0002980018358,0.0004675733384,-0.0002844559936,0.0004304539962,0.0001459980026,0.0002218408254,0.0002215008647,0.0004433416901
0.9,0.0006093849158,-8.641092924e-05,0.0005229739865,0.000609290987,0.0003375775037,0.0009468684907,0.0003290061169,8.366421658e-05,0.0004126703334,7.87902442e-06,0.0004968632671,0.0005047422915,0.0004280038752,0.0002479408466,0.0006759447218,0.0004986012352,0.0003342347122,0.0008328359474,0.0007371352735,9.859288021e-05,0.0008357281537,0.000757274258,-4.798801583e-05,0.0007092862422,0.0005867107752,8.768749583e-05,0.0006743982711,0.0004198078808,7.666442561e-05,0.0004964723064,-0.0002984623665,0.0004135219938,0.0001150596273,0.0008132087894,0.0001398893728,0.0009530981622,0.000587208431,8.682629928e-05,0.0006740347303,0.0002432574195,2.26737908e-05,0.0002659312103,-1.749562215e-05,-2.222989965e-05,-3.97255218e-05,-0.0003048465391,-9.700754821e-05,-0.0004018540873,-0.0006321180308,-0.0001313125165,-0.0007634305474,-0.0003098368302,-3.819653024e-06,-0.0003136564832,-0.0001371376365,-5.709570001e-05,-0.0001942333365,0.0003383972442,0.0001276482919,0.0004660455361,-0.0004524491725,0.0003502427013,-0.0001022064712,-0.0004132488099,0.0002570655835,-0.0001561832264,8.309738445e-05,0.0002463409547,0.0003294383392,0.0001015428072,5.38862214e-05,0.0001554290286,0.0002938406581,0.0001016939266,0.0003955345847,0.0001639031584,-3.328676832e-05,0.00013061639,0.0004627671906,1.587256226e-05,0.0004786397528,-3.69019944e-05,-9.70094737e-05,-0.0001339114681,-0.0005414970079,6.15027102e-05,-0.0004799942977,-0.0001900466208,5.360947728e-05,-0.0001364371435,-0.0004960589945,1.577329185e-05,-0.0004802857027,0.0002827282983,2.351290759e-05,0.0003062412059,-0.0005485231638,0.0002745899914,-0.0002739331723,0.0002877024095,0.0003257845139,0.0006134869233,-0.0001892783496,0.0004546123472,0.0002653339975,0.0003364072027,0.0002298458155,0.0005662530182
1.0,0.0006948333904,-8.910473772e-05,0.0006057286526,0.0006998088911,0.0003423402879,0.001042149179,0.000394848701,9.27333558e-05,0.0004875820568,5.816599412e-05,0.0005217437757,0.0005799097698,0.0004679055882,0.0002459543454,0.0007138599336,0.0005470488193,0.0003349579322,0.0008820067515,0.0007914194081,9.618607833e-05,0.0008876054864,0.0008029447769,-5.307332311e-05,0.0007498714538,0.0006359032543,8.769942997e-05,0.0007236026843,0.0004514596183,7.412531462e-05,0.000525584933,-0.0002581469463,0.0004181327905,0.0001599858442,0.0008944843803,0.0001311886106,0.001025672991,0.0006683377384,8.481194242e-05,0.0007531496808,0.000289463119,2.228408727e-05,0.0003117472063,4.58650888e-05,-1.990203521e-05,2.596305359e-05,-0.0002355959711,-9.654499248e-05,-0.0003321409635,-0.0005695410285,-0.0001296182758,-0.0006991593043,-0.000248985819,-8.711578328e-06,-0.0002576973974,-7.796539132e-05,-5.41214534e-05,-0.0001320868447,0.0003701249403,0.0001274316521,0.0004975565924,-0.0004178799069,0.0003599885024,-5.789140444e-05,-0.0003832115008,0.0002591568437,-0.0001240546572,0.000127269797,0.0002505043139,0.0003777741108,0.0001409803691,4.818534024e-05,0.0001891657093,0.0003428249911,0.0001045813481,0.0004474063392,0.0001901667247,-3.296326848e-05,0.0001572034562,0.0005239185597,1.877405254e-05,0.0005426926123,-2.568645785e-06,-9.317948598e-05,-9.574813176e-05,-0.0004788250031,6.486756296e-05,-0.0004139574402,-0.0001260061443,4.913301338e-05,-7.687313092e-05,-0.0004327022416,2.114270222e-05,-0.0004115595394,0.0003683532305,2.040349383e-05,0.0003887567243,-0.0004337190025,0.0003152899016,-0.0001184291009,0.0004050290294,0.0003523315012,0.0007573605307,-9.53023783e-05,0.0004789484142,0.0003836460359,0.0004512028529,0.0002370926355,0.0006882954885
1.1,0.000778247675,-9.204750533e-05,0.0006862001697,0.0007871592397,0.0003465094213,0.001133668661,0.0004587777194,0.0001017326127,0.000560510332,0.0001068859549,0.0005462926544,0.0006531786092,0.0005065366195,0.0002440386593,0.0007505752788,0.0005936114905,0.0003351310236,0.0009287425141,0.000843903953,9.363660169e-05,0.0009375405547,0.0008467369273,-5.835064531e-05,0.000788386282,0.0006835566796,8.734587327e-05,0.0007709025529,0.0004819663748,7.140313312e-05,0.000553369508,-0.0002186832698,0.0004221182285,0.0002034349587,0.0009728371593,0.0001220841427,0.001094921302,0.0007487702607,8.194098305e-05,0.0008307112438,0.0003344159332,2.179416681e-05,0.0003562101,0.0001093003043,-1.794759036e-05,9.135271399e-05,-0.0001677454692,-9.620497779e-05,-0.000263950447,-0.000507949217,-0.0001279687378,-0.0006359179548,-0.0001891320948,-1.362595377e-05,-0.0002027580485,-1.958740463e-05,-5.121133488e-05,-7.079873952e-05,0.0004002159527,0.0001271424285,0.0005273583812,-0.0003845538691,0.0003693932652,-1.516060385e-05,-0.0003545436159,0.0002613605243,-9.318309164e-05,0.0001701841837,0.0002544117077,0.0004245958914,0.0001781432993,4.26154243e-05,0.0002207587236,0.0003902736619,0.0001074266652,0.000497700327,0.000215915373,-3.246343718e-05,0.0001834519358,0.0005836342681,2.235327788e-05,0.000605987546,3.117615217e-05,-8.933401586e-05,-5.815786368e-05,-0.0004166691357,6.811995311e-05,-0.0003485491826,-6.304194204e-05,4.468317812e-05,-1.835876392e-05,-0.000370352238,2.640224795e-05,-0.00034394999,0.0004521772801,1.728530809e-05,0.0004694625882,-0.0003189766691,0.0003563816877,3.740501863e-05,0.0005214329457,0.000377340147,0.0008987730927,-2.638362574e-06,0.0005031265749,0.0005004882123,0.00056591454,0.0002432922306,0.0008092067707
1.2,0.0008594646341,-9.523125859e-05,0.0007642333756,0.0008710957685,0.0003500723838,0.001221168152,0.0005206730783,0.0001106189934,0.0006312920717,0.0001538835608,0.0005703990981,0.0007242826588,0.000543878005,0.0002422028979,0.0007860809029,0.000638122401,0.0003347535064,0.0009728759073,0.0008944885115,9.094848282e-05,0.0009854369943,0.0008885391083,-6.380842397e-05,0.0008247306843,0.0007295726293,8.662215126e-05,0.0008161947805,0.0005112643153,6.850655976e-05,0.0005797708751,-0.0001801639933,0.0004254650907,0.0002453010974,0.001048094023,0.0001125872327,0.001160681256,0.0008282330111,7.828414945e-05,0.0009065171606,0.0003780169309,2.120324736e-05,0.0003992201783,0.0001726697776,-1.637315073e-05,0.0001562966269,-0.0001014754202,-9.598524021e-05,-0.0001974606605,-0.0004474206477,-0.0001264026715,-0.0005738233191,-0.0001304035706,-1.854226711e-05,-0.0001489458377,3.79391591e-05,-4.841222656e-05,-1.047306746e-05,0.0004285889539,0.0001267786062,0.0005553675602,-0.0003525720573,0.0003784330877,2.586103047e-05,-0.0003273784524,0.0002636898361,-6.368861626e-05,0.0002117770178,0.0002580459805,0.0004698229983,0.0002129350883,3.7194411e-05,0.0002501294993,0.0004359962074,0.0001102149872,0.0005462111945,0.0002410677333,-3.176941762e-05,0.0002092983157,0.0006417590073,2.651692622e-05,0.0006682759335,6.428366688e-05,-8.547115355e-05,-2.118748667e-05,-0.0003551383569,7.124876258e-05,-0.0002838895943,-1.282128342e-06,4.02673874e-05,3.898525905e-05,-0.0003091235405,3.153690919e-05,-0.0002775866314,0.0005340704743,1.414787109e-05,0.0005482183453,-0.0002047230128,0.0003976871236,0.0001929641108,0.0006368019488,0.0004005279373,0.001037329886,8.864274758e-05,0.0005267723827,0.0006154151302,0.0006802297575,0.0002484950662,0.0009287248237
1.3,0.0009383567984,-9.864702627e-05,0.0008397097721,0.0009514094106,0.0003530191132,0.001304428524,0.0005804453769,0.0001193494886,0.0006997948655,0.0001990233479,0.000593953817,0.0007929771649,0.000579928529,0.0002404534343,0.0008203819633,0.0006804311395,0.000333828068,0.001014259207,0.0009430913881,8.812550287e-05,0.001031216891,0.0009282566335,-6.943528463e-05,0.0008588213488,0.000773871687,8.552582825e-05,0.0008593975153,0.0005393019605,6.544456428e-05,0.0006047465247,-0.0001426623075,0.0004281634336,0.0002855011261,0.001120107035,0.0001027104073,0.001222817442,0.0009064567953,7.392049351e-05,0.0009803772888,0.0004201833278,2.051147189e-05,0.0004406947997,0.0002358464361,-1.518294443e-05,0.0002206634917,-3.693726276e-05,-9.588403681e-05,-0.0001328212996,-0.0003880099359,-0.0001249595979,-0.0005129695338,-7.291047621e-05,-2.343977515e-05,-9.635025136e-05,9.457124973e-05,-4.576896839e-05,4.880228134e-05,0.0004551802343,0.0001263373408,0.0005815175751,-0.0003220109778,0.0003870838749,6.507289713e-05,-0.0003018308196,0.0002661537847,-3.567703487e-05,0.0002520112962,0.0002613900337,0.0005134013299,0.0002452881016,3.193950051e-05,0.0002772276021,0.0004798138418,0.0001129298728,0.0005927437146,0.0002655464348,-3.086444941e-05,0.0002346819854,0.0006981495195,3.116401945e-05,0.0007293135389,9.671019317e-05,-8.158625102e-05,1.512394214e-05,-0.0002943306398,7.424110613e-05,-0.0002200895337,5.915990585e-05,3.589149554e-05,9.50514014e-05,-0.0002491129182,3.653171908e-05,-0.0002125811991,0.0006139292446,1.097923437e-05,0.000624908479,-9.139763061e-05,0.0004390311651,0.0003476335345,0.0007510289998,0.000421637609,0.001172666609,0.0001785036893,0.0005494822639,0.0007279859532,0.0007938361759,0.0002527520844,0.00104658826
1.4,0.001014834232,-0.0001022845847,0.0009125496477,0.001027930904,0.0003553421254,0.001383273029,0.0006380364859,0.0001278815864,0.0007659180722,0.0002421916506,0.0006168498914,0.000859041542,0.0006147052175,0.0002387938052,0.0008534990227,0.0007204056654,0.0003323605428,0.001052766208,0.0009896505444,8.517126128e-05,0.001074821806,0.0009658130687,-7.522021117e-05,0.0008905928575,0.000816394016,8.405660191e-05,0.000900450618,0.0005660406331,6.222629913e-05,0.0006282669323,-0.0001062311377,0.0004302064589,0.0003239753213,0.001188752681,9.246777649e-05,0.001281220458,0.0009831805737,6.893315971e-05,0.001052113733,0.0004608487787,1.972000167e-05,0.0004805687804,0.0002987179258,-1.437911842e-05,0.0002843388074,2.574843009e-05,-9.590017567e-05,-7.015174558e-05,-0.0003297475837,-0.0001236790503,-0.000453426634,-1.674379027e-05,-2.829796421e-05,-4.504175448e-05,0.0001502804809,-4.332391672e-05,0.0001069565642,0.0004799444406,0.0001258149983,0.0006057594389,-0.0002929217682,0.0003953216507,0.0001023998825,-0.0002779958253,0.0002687569375,-9.238887824e-06,0.0002908760401,0.0002644269341,0.0005553029742,0.0002751632968,2.686701877e-05,0.0003020303156,0.0005215607538,0.0001155542916,0.0006371150455,0.0002892788185,-2.973312581e-05,0.0002595456927,0.0007526729536,3.619105387e-05,0.0007888640075,0.0001284185912,-7.767274741e-05,5.07458438e-05,-0.0002343316909,7.708199164e-05,-0.0001572496992,0.0001181859357,3.155963297e-05,0.0001497455687,-0.0001903975351,4.137188739e-05,-0.0001490256477,0.0006916774978,7.766350968e-06,0.0006994438488,2.055977445e-05,0.0004802445938,0.0005008043682,0.0008640117606,0.0004404406287,0.001304452389,0.0002669377795,0.000570833479,0.0008377712585,0.0009064205857,0.0002561168677,0.001162537453
1.5,0.001088843906,-0.0001061323546,0.0009827115513,0.001100530573,0.0003570364088,0.001457566982,0.0006934181063,0.0001361736971,0.0008295918033,0.0002832969463,0.0006389837982,0.0009222807445,0.0006482419052,0.0002372245805,0.0008854664857,0.0007579329186,0.0003303598812,0.0010882928,0.001034122809,8.208924316e-05,0.001116212052,0.001001150031,-8.115270547e-05,0.0009199973252,0.0008570981409,8.221603651e-05,0.0009393141774,0.0005914537147,5.886098867e-05,0.0006503147033,-7.09040007e-05,0.0004315903142,0.0003606863135,0.001253929711,8.187489226e-05,0.001335804603,0.001058154169,6.340585077e-05,0.001121560019,0.0004999621267,1.883102552e-05,0.0005187931523,0.0003611867528,-1.396197239e-05,0.0003472247804,8.649186096e-05,-9.603281255e-05,-9.540951584e-06,-0.0002726411164,-0.0001225998491,-0.0003952409655,3.802521893e-05,-3.30969847e-05,4.928234227e-06,0.0002050525157,-4.111670787e-05,0.0001639358078,0.0005028536121,0.0001252071244,0.0006280607365,-0.0002653310231,0.0004031228735,0.0001377918504,-0.0002559486945,0.0002714991926,1.555049806e-05,0.0003283836799,0.0002671399258,0.0005955236057,0.0003025481024,2.199223424e-05,0.0003245403366,0.0005610846131,0.0001180714956,0.0006791561087,0.0003121972992,-2.836162689e-05,0.0002838356724,0.0008052043519,4.149716176e-05,0.0008467015136,0.0001593792171,-7.372304994e-05,8.565616713e-05,-0.000175215554,7.975406037e-05,-9.546149364e-05,0.0001757119044,2.727399862e-05,0.000202985903,-0.0001330348451,4.604275872e-05,-8.69920864e-05,0.0007672645203,4.495502464e-06,0.0007717600228,0.0001307193278,0.0005211688528,0.0006518881807,0.0009756516038,0.0004567387791,0.001432390383,0.0003539652025,0.0005903970418,0.0009443622444,0.001017667919,0.0002586483859,0.001276316305
1.6,0.001160366302,-0.000110177465,0.001050188837,0.001169115274,0.0003580992193,0.001527214493,0.0007465883923,0.0001441855354,0.0008907739277,0.0003222685803,0.0006602565403,0.0009825251205,0.0006805860159,0.0002357432808,0.0009163292967,0.0007929180662,0.0003278380607,0.001120756127,0.001076481289,7.888285176e-05,0.001155364141,0.001034225533,-8.722291794e-05,0.0009470026146,0.0008959582296,8.000719218e-05,0.0009759654218,0.0006155248932,5.535778301e-05,0.0006708826762,-3.669720514e-05,0.0004323138115,0.0003956166063,0.001315555367,7.094864566e-05,0.001386504012,0.001131139684,5.741936089e-05,0.001188559045,0.0005374848858,1.784767422e-05,0.00055533256,0.0004231691747,-1.393031793e-05,0.0004092388568,0.0001452317573,-9.628111358e-05,4.895064372e-05,-0.0002166782734,-0.0001217594279,-0.0003384377013,9.134401415e-05,-3.781800451e-05,5.352600964e-05,0.0002588848426,-3.918408505e-05,0.0002197007576,0.0005238948677,0.0001245084377,0.0006484033054,-0.0002392430982,0.0004104647638,0.0001712216656,-0.0002357454989,0.0002743756415,3.863014257e-05,0.0003645662102,0.000269512452,0.0006340786622,0.0003274532066,1.732919914e-05,0.0003447824058,0.0005982461501,0.0001204656411,0.0007187117912,0.0003342393221,-2.673788789e-05,0.0003075014343,0.0008556234295,4.698909558e-05,0.000902612525,0.0001895699938,-6.972926617e-05,0.0001198407277,-0.0001170466882,8.223754885e-05,-3.480913931e-05,0.0002316658404,2.303466728e-05,0.0002547005076,-7.706407469e-05,5.052964755e-05,-2.653442714e-05,0.0008406601861,1.152754831e-06,0.0008418129409,0.0002386666915,0.0005616622829,0.0008003289744,0.001085852145,0.0004703640982,0.001556216243,0.0004396263408,0.0006077534064,0.001047379747,0.001127260619,0.0002604138703,0.001387674489
1.7,0.001229410125,-0.0001144059261,0.001115004199,0.001233623694,0.0003585299146,0.001592153608,0.0007975674749,0.0001518784598,0.0009494459347,0.0003590544374,0.0006805747136,0.001039629151,0.0007117944457,0.0002343443895,0.0009461388352,0.0008252829237,0.0003248099318,0.001150092855,0.001116711719,7.555541056e-05,0.00119226713,0.001065011603,-9.342174959e-05,0.0009715898536,0.0009329607734,7.743428547e-05,0.001010395059,0.0006382460027,5.172560984e-05,0.0006899716125,-3.612586418e-06,0.000432378134,0.0004287655476,0.001373560576,5.970779012e-05,0.001433268366,0.001201912795,5.104781159e-05,0.001252960607,0.0005733882566,1.677392296e-05,0.0005901621795,0.0004845932848,-1.428199954e-05,0.0004703112852,0.0002019316873,-9.66439838e-05,0.0001052877035,-0.0001618315557,-0.0001211932884,-0.000283024844,0.0001431766951,-4.24435222e-05,0.0001007331729,0.0003117833447,-3.755972636e-05,0.0002742236183,0.0005430676125,0.0001237129815,0.0006667805941,-0.0002146431073,0.000417325682,0.0002026825747,-0.0002174243867,0.0002773766708,5.995228411e-05,0.0003994714776,0.0002715282622,0.0006709997398,0.0003499094161,1.289064006e-05,0.0003628000561,0.0006329179811,0.0001227221982,0.0007556401793,0.0003553471144,-2.485175853e-05,0.0003304953559,0.0009038117691,5.258501317e-05,0.0009563967823,0.0002189759442,-6.568387523e-05,0.0001532920689,-5.988236852e-05,8.451049169e-05,2.462812317e-05,0.0002859855615,1.883944077e-05,0.0003048250022,-2.250849363e-05,5.481763584e-05,3.230914221e-05,0.000911849091,-2.275556452e-06,0.0009095735345,0.0003440057531,0.0006016056156,0.0009456113687,0.001194518274,0.000481177814,0.001675696088,0.0005239725826,0.0006225078597,0.001146480442,0.001234878438,0.0002614910874,0.001496369525
1.8,0.001296006712,-0.0001188028297,0.001177203883,0.001294021924,0.000358329926,0.00165235185,0.0008463931274,0.0001592157847,0.001005608912,0.000393618508,0.0006998513763,0.001093469884,0.0007419298377,0.0002330194896,0.0009749493273,0.0008549644425,0.0003212930432,0.001176257486,0.001154808948,7.211017912e-05,0.001226919127,0.001093492235,-9.974089554e-05,0.000993751339,0.0009681018269,7.450252148e-05,0.001042604348,0.00065961523,4.797308078e-05,0.0007075883108,2.836021354e-05,0.0004317866184,0.000460146832,0.001427885503,4.81743384e-05,0.001476059842,0.001270264492,4.435510128e-05,0.001314619593,0.0006076507591,1.561452937e-05,0.0006232652885,0.0005453968313,-1.501439786e-05,0.0005303824334,0.0002565761479,-9.711998852e-05,0.0001594561593,-0.0001080628596,-0.0001209345534,-0.000228997413,0.000193501668,-4.6957796e-05,0.000146543872,0.0003637586252,-3.627404929e-05,0.0003274845759,0.0005603813733,0.0001228144484,0.0006831958217,-0.0001914995363,0.0004236854852,0.0002321859489,-0.0002010067197,0.0002804883173,7.948159759e-05,0.0004331608467,0.0002731716184,0.0007063324651,0.000369965688,8.68785057e-06,0.0003786535386,0.0006649830842,0.00012482828,0.0007898113641,0.0003754675674,-2.269527335e-05,0.000352772294,0.0009496516897,5.821601207e-05,0.001007867702,0.0002475887721,-6.158052665e-05,0.0001860082455,-3.77402881e-06,8.654908279e-05,8.277505398e-05,0.0003386172262,1.468371611e-05,0.0003533009423,3.062266836e-05,5.889138249e-05,8.951405085e-05,0.0009808258801,-5.802391054e-06,0.0009750234891,0.0004463620922,0.0006409044444,0.001087266537,0.001301556449,0.0004890692541,0.001790625703,0.0006070562635,0.0006343033957,0.001241359659,0.001340199129,0.0002619691652,0.001602168294
1.9,0.001360205865,-0.00012335245,0.001236853415,0.001350301037,0.0003575029111,0.001707803948,0.0008931176371,0.0001661631259,0.001059280763,0.000425939265,0.0007180067019,0.001143945967,0.0007710583901,0.0002317575264,0.001002815916,0.0008819140672,0.0003173074911,0.001199221558,0.001190774763,6.855043074e-05,0.001259325194,0.001119662502,-0.0001061727975,0.001013489704,0.001001385635,7.121810271e-05,0.001072603738,0.0006796362472,4.410845661e-05,0.0007237447038,5.924258441e-05,0.0004305446218,0.0004897872062,0.001478477025,3.63755344e-05,0.001514852559,0.001336003038,3.739242979e-05,0.001373395467,0.0006402572782,1.437493608e-05,0.0006546322142,0.0006055252962,-1.612472112e-05,0.0005894005751,0.0003091677058,-9.770745533e-05,0.0002114602505,-5.532696476e-05,-0.0001210134736,-0.0001763404384,0.0002423101055,-5.13474928e-05,0.0001909626127,0.00041482317,-3.535394464e-05,0.0003794692253,0.0005758550162,0.0001218065421,0.0006976615583,-0.0001697656949,0.0004295257279,0.000259760033,-0.0001864976816,0.000283692739,9.719505738e-05,0.0004657086083,0.000274427572,0.0007401361803,0.0003876886868,4.730533988e-06,0.0003924192208,0.0006943335092,0.0001267729579,0.0008211064671,0.0003945525293,-2.026307186e-05,0.0003742894575,0.000993027079,6.382556275e-05,0.001056852642,0.0002754070009,-5.741502573e-05,0.0002179919752,5.123318553e-05,8.832813414e-05,0.0001395613197,0.000389515327,1.056035582e-05,0.0004000756828,8.233345689e-05,6.273497895e-05,0.0001450684358,0.001047593488,-9.43978141e-06,0.001038153706,0.0005453907596,0.0006794876205,0.00122487838,0.001406875821,0.0004939556044,0.001900831426,0.0006889204258,0.0006428321516,0.001331752577,0.001442900781,0.0002619473816,0.001704848163
2.0,0.001422073918,-0.0001280381276,0.001294035791,0.00140247711,0.0003560550406,0.001758532151,0.000937806082,0.0001726888181,0.0011104949,0.0004560091609,0.0007349685045,0.001190977665,0.0007992494409,0.0002305451437,0.001029794585,0.0009060981546,0.0003128757755,0.00121897393,0.00122461742,6.487959797e-05,0.001289497018,0.001143528914,-0.0001127105315,0.001030818383,0.001032824538,6.758825657e-05,0.001100412794,0.0006983182051,4.013962142e-05,0.0007384578265,8.906673361e-05,0.0004286594085,0.0005177261421,0.001525288654,2.434563078e-05,0.001549634285,0.0013989556,3.019747088e-05,0.001429153071,0.0006711993747,1.30610285e-05,0.0006842604032,0.0006649304969,-1.761008584e-05,0.0006473204111,0.0003597258502,-9.840466097e-05,0.0002613211893,-3.57338166e-06,-0.0001214568241,-0.0001250302058,0.0002896056474,-5.560246301e-05,0.0002340031844,0.0004649899199,-3.48224229e-05,0.000430167497,0.000589517106,0.0001206832494,0.0007102003554,-0.0001493801615,0.0004348297104,0.0002854495489,-0.00017388646,0.0002869686803,0.0001130822203,0.000497202243,0.0002752822685,0.0007724845115,0.0004031630958,1.026606882e-06,0.0004041897027,0.0007208697466,0.0001285475979,0.0008494173445,0.0004125595466,-1.755284097e-05,0.0003950067056,0.001033825644,6.93678969e-05,0.00110319354,0.0003024367045,-5.318631504e-05,0.0002492503895,0.0001051020893,8.982163261e-05,0.0001949237219,0.000438643735,6.459612117e-06,0.0004451033472,0.0001326414178,6.633187852e-05,0.0001989732963,0.001112164102,-1.319882591e-05,0.001098965276,0.0006407882328,0.0007173026018,0.001358090835,0.001510388612,0.0004957828007,0.002006171413,0.0007695885336,0.0006478472254,0.001417435759,0.001542666126,0.0002615316994,0.001804197826
2.1,0.001481693279,-0.0001328419539,0.001348851325,0.001450592384,0.0003539952549,0.001804587639,0.00098053518,0.0001787643484,0.001159299528,0.0004838346872,0.0007506727234,0.001234507411,0.000826575873,0.0002293670086,0.001055942882,0.0009274988733,0.000308022593,0.001235521466,0.00125635215,6.110143576e-05,0.001317453586,0.00116511019,-0.0001193476949,0.001045762495,0.001062439204,6.36211266e-05,0.001126060331,0.0007156759658,3.607403121e-05,0.000751749997,0.0001178755316,0.0004261400045,0.0005440155361,0.001568282094,1.212669244e-05,0.001580408787,0.001458969151,2.27952548e-05,0.001481764406,0.0007004758546,1.167874278e-05,0.0007121545974,0.0007235694614,-1.946748442e-05,0.000704101977,0.0004082870188,-9.921002809e-05,0.0003090769907,4.725291348e-05,-0.0001222873528,-7.503443928e-05,0.0003354047602,-5.9716415e-05,0.0002756883452,0.0005142718566,-3.469825776e-05,0.0004795735989,0.0006014063154,0.0001194390553,0.0007208453707,-0.0001302672158,0.0004395825592,0.0003093153434,-0.000163146579,0.0002902919491,0.0001271453702,0.0005277420887,0.0002757232313,0.00080346532,0.0004164914044,-2.417990526e-06,0.0004140734139,0.0007445006631,0.0001301463026,0.0008746469657,0.0004294527821,-1.456558542e-05,0.0004148871967,0.00107194195,7.480614885e-05,0.001146748099,0.0003286923926,-4.889716532e-05,0.0002797952273,0.0001578049464,9.10033939e-05,0.0002488083403,0.0004859767326,2.36918487e-06,0.0004883459175,0.0001815778397,6.966490393e-05,0.0002512427436,0.001174560879,-1.708969564e-05,0.001157471183,0.0007323048167,0.000754310291,0.001486615108,0.001612008416,0.0004945271264,0.002106535543,0.0008490551492,0.0006491739984,0.001498229148,0.001639187923,0.0002608296331,0.001900017556
2.2,0.001539161665,-0.0001377444484,0.001401417217,0.001494715544,0.0003513353133,0.001846050857,0.001021391553,0.0001843646997,0.001205756253,0.0005094360631,0.0007650638959,0.001274499959,0.0008531139398,0.0002282060726,0.001081320012,0.0009461146928,0.000302774535,0.001248889228,0.00128600143,5.722013985e-05,0.001343221569,0.001184437418,-0.0001260783274,0.001058359091,0.001090258189,5.932552238e-05,0.001149583712,0.0007317298949,3.191866138e-05,0.0007636485562,0.0001457215351,0.0004229970492,0.0005687185843,0.001607428845,-2.318217819e-07,0.001607197023,0.001515910373,1.520031656e-05,0.00153111069,0.0007280925448,1.023365414e-05,0.0007383261989,0.0007814029858,-2.169364604e-05,0.0007597093398,0.0004549045108,-0.0001001223315,0.0003547821793,9.721080663e-05,-0.000123523532,-2.631272538e-05,0.0003797366036,-6.368730721e-05,0.0003160492964,0.0005626816224,-3.499581579e-05,0.0005276858066,0.000611570872,0.0001180692174,0.0007296400894,-0.0001123382722,0.000443771498,0.0003314332258,-0.0001542369118,0.0002936359719,0.0001393990601,0.000557439532,0.0002757395793,0.0008331791112,0.0004277924073,-5.599467886e-06,0.0004221929394,0.0007651436028,0.0001315664553,0.0008967100581,0.0004452036869,-1.130562238e-05,0.0004338980645,0.001107280621,8.011043061e-05,0.001187391051,0.0003541974308,-4.455441805e-05,0.0003096430128,0.0002093236407,9.184774629e-05,0.000301171387,0.0005314991403,-1.725563548e-06,0.0005297735767,0.0002291869932,7.271633543e-05,0.0003019033287,0.001234818371,-2.112160123e-05,0.00121369677,0.0008197537271,0.0007904813963,0.001610235123,0.001711646409,0.0004901967499,0.002201843159,0.0009272792833,0.0006467180843,0.001573997368,0.001732173599,0.0002599448406,0.00199211844
2.3,0.001594589753,-0.0001427244374,0.001451865316,0.001534939881,0.0003480895859,0.001883029467,0.001060468813,0.0001894685586,0.001249937371,0.0005328459755,0.0007780956021,0.001310941578,0.0008789417572,0.0002270437915,0.001105985549,0.0009619598881,0.0002971597434,0.001259119632,0.001313594238,5.324039357e-05,0.001366834632,0.001201553095,-0.0001328968567,0.001068656239,0.001116316435,5.471061971e-05,0.001171027055,0.0007465049244,2.767999426e-05,0.0007741849186,0.0001726649042,0.0004192426955,0.0005919075997,0.001642710503,-1.267426216e-05,0.00163003624,0.001569664525,7.419332667e-06,0.001577083858,0.0007540608962,8.730695109e-06,0.0007627915913,0.0008383934325,-2.42847187e-05,0.0008141087138,0.0004996473144,-0.0001011409312,0.0003985063832,0.0001463616773,-0.0001251797176,2.118195971e-05,0.0004226416041,-6.751741903e-05,0.0003551241851,0.0006102304257,-3.572521146e-05,0.0005745052143,0.0006200668257,0.0001165700869,0.0007366369126,-9.549459868e-05,0.0004473862296,0.0003518916309,-0.0001471034626,0.0002969724088,0.0001498689462,0.0005864138757,0.0002753221666,0.0008617360423,0.0004371985607,-8.516357858e-06,0.0004286822028,0.0007827244067,0.0001328091545,0.0009155335612,0.0004597911155,-7.780327589e-06,0.0004520107879,0.001139758959,8.525581735e-05,0.001225014776,0.0003789834595,-4.016877497e-05,0.0003388146846,0.0002596483077,9.233012371e-05,0.0003519784314,0.0005752053343,-5.841307847e-06,0.0005693640264,0.0002755239336,7.546806735e-05,0.0003509920009,0.001292980881,-2.530295364e-05,0.001267677927,0.0009030159468,0.0008257941617,0.001728810108,0.001809206054,0.0004828330181,0.002292039072,0.001004181802,0.0006404679002,0.001644649702,0.001821347441,0.0002589732231,0.002080320664
2.4,0.001648097133,-0.0001477592002,0.001500337933,0.001571379519,0.0003442747056,0.001915654225,0.001097863709,0.0001940584377,0.001291922147,0.0005541074324,0.0007897308503,0.001343838283,0.0009041367355,0.0002258603682,0.001129997104,0.0009750631216,0.0002912075946,0.001266270716,0.001339164361,4.916733859e-05,0.0013883317,0.001216509252,-0.0001397980397,0.001076711212,0.001140653106,4.978568918e-05,0.001190438796,0.0007600291051,2.336404167e-05,0.0007833931467,0.0001987705957,0.000414890553,0.0006136611487,0.001674117492,-2.514011829e-05,0.001648977374,0.00162013349,-5.463529834e-07,0.001619587137,0.0007783958306,7.174041783e-06,0.0007855698724,0.0008945017968,-2.723572144e-05,0.0008672660753,0.0005425976636,-0.0001022659711,0.0004403316924,0.0001947673122,-0.0001272666154,6.750069681e-05,0.0004641687199,-7.121315616e-05,0.0003929555637,0.0006569260709,-3.689267973e-05,0.0006200333911,0.000626955742,0.0001149393313,0.0007418950733,-7.963080443e-05,0.0004504192076,0.0003707884032,-0.0001416815578,0.0003002717302,0.0001585901724,0.0006147887981,0.0002744637035,0.0008892525016,0.0004448529561,-1.116964901e-05,0.0004336833071,0.0007971773378,0.0001338793854,0.0009310567232,0.0004732008771,-3.99971721e-06,0.0004692011599,0.001169308438,9.022046771e-05,0.001259528906,0.0004030886049,-3.575421262e-05,0.0003673343923,0.0003087750417,9.242749903e-05,0.0004012025408,0.0006170975749,-9.996452425e-06,0.0006071011224,0.0003206512105,7.790178115e-05,0.0003985529916,0.001349099234,-2.964189479e-05,0.001319457339,0.0009820421803,0.0008602314906,0.001842273671,0.001904576892,0.0004725120465,0.002377088939,0.001079647181,0.0006304920669,0.001710139248,0.001906449204,0.0002580023181,0.002164451522
2.5,0.001699807496,-0.0001528247901,0.001546982706,0.001604164974,0.0003399092888,0.001944074262,0.001133672208,0.0001981207906,0.001331792999,0.0005732713029,0.0007999423373,0.00137321364,0.0009287729284,0.0002246350824,0.001153408011,0.0009854657369,0.0002849484202,0.001270414157,0.001362748489,4.500646081e-05,0.00140775495,0.001229365406,-0.0001467768479,0.001082588558,0.001163309634,4.455990991e-05,0.001207869543,0.0007723322389,1.897636169e-05,0.0007913086006,0.0002241056592,0.0004099556351,0.0006340612943,0.001701647412,-3.756517773e-05,0.001664082235,0.00166723339,-8.698329758e-06,0.00165853506,0.0008011137681,5.567106968e-06,0.000806680875,0.0009496844945,-3.053978599e-05,0.0009191447085,0.0005838478238,-0.0001034984376,0.0004803493862,0.0002424877256,-0.0001297918415,0.0001126958841,0.000504372016,-7.478464695e-05,0.000429587369,0.0007027704824,-3.850088186e-05,0.0006642696005,0.0006323028297,0.0001131759824,0.0007454788121,-6.463816176e-05,0.0004528656857,0.0003882275239,-0.0001378978808,0.0003035037109,0.0001656058301,0.0006426895618,0.0002731589414,0.0009158485031,0.0004509068277,-1.356278921e-05,0.0004373440385,0.0008084450376,0.0001347860292,0.0009432310668,0.0004854250021,2.40522954e-08,0.0004854490544,0.00119587476,9.498448225e-05,0.001290859242,0.0004265548151,-3.132715912e-05,0.000395227656,0.0003567037525,9.211871248e-05,0.0004488224649,0.0006571843888,-1.421078321e-05,0.0006429736055,0.0003646354403,7.999910743e-05,0.0004446345478,0.001403227328,-3.414707663e-05,0.001369080251,0.001056853006,0.0008937756949,0.001950628701,0.001997628612,0.0004593466644,0.002456975277,0.001153528724,0.0006169332413,0.001770461965,0.001987229437,0.0002571144811,0.002244343918
2.6,0.001749844472,-0.0001578963927,0.00159194808,0.001633439658,0.0003350138862,0.001968453544,0.001167986505,0.0002016461197,0.001369632624,0.0005903943531,0.0008087124912,0.001399106844,0.0009529194082,0.0002233467137,0.001176266122,0.0009932206216,0.0002784132206,0.001271633842,0.001384385128,4.07634028e-05,0.001425148531,0.001240187177,-0.0001538282518,0.001086358925,0.001184328876,3.904231981e-05,0.001223371195,0.0007834452315,1.452206036e-05,0.0007979672918,0.0002487374685,0.0004044543107,0.0006531917791,0.001725304523,-4.988245584e-05,0.001675422067,0.001710892374,-1.70385958e-05,0.001693853778,0.0008222317206,3.912605557e-06,0.0008261443261,0.001003890565,-3.41873225e-05,0.0009697032425,0.0006234970762,-0.0001048400637,0.0005186570125,0.0002895797545,-0.0001327603598,0.0001568193947,0.00054330749,-7.824518814e-05,0.0004650623018,0.0007477575295,-4.054897587e-05,0.0007072085537,0.0006361762977,0.0001112803939,0.0007474566916,-5.040697312e-05,0.0004547236566,0.0004043166835,-0.0001356719278,0.0003066378988,0.000170965971,0.000670241633,0.0002714049238,0.0009416465568,0.0004555180989,-1.570153244e-05,0.0004398165664,0.0008164787985,0.0001355418572,0.0009520206557,0.0004964611089,4.277171496e-06,0.0005007382804,0.00121941663,9.952995985e-05,0.001318946589,0.0004494250596,-2.69056244e-05,0.0004225194352,0.0004034371031,9.138478378e-05,0.0004948218869,0.0006954796266,-1.8504989e-05,0.0006769746376,0.0004075447422,8.174186105e-05,0.0004892866033,0.001455420117,-3.882844816e-05,0.001416591669,0.001127536839,0.0009264012499,0.002053938089,0.002088207366,0.0004434877642,0.00253169513,0.001225655962,0.0005999997015,0.001825655664,0.002063443749,0.00025639196,0.002319835709
2.7,0.001798329165,-0.000162948627,0.001635380538,0.001659358205,0.0003296111389,0.001988969344,0.001200893485,0.0002046289909,0.001405522476,0.0006055382908,0.0008160332515,0.001421571542,0.000976640164,0.000221974011,0.001198614175,0.0009983921046,0.0002716333276,0.001270025432,0.001404114919,3.644376803e-05,0.001440558687,0.001249045929,-0.0001609469229,0.001088099006,0.001203755599,3.324189951e-05,0.001236997498,0.0007934003504,1.000582158e-05,0.000803406172,0.0002727331106,0.0003984042946,0.0006711374052,0.001745100559,-6.202271638e-05,0.001683077843,0.001751049158,-2.556705158e-05,0.001725482106,0.0008417676103,2.212705423e-06,0.0008439803158,0.001057059879,-3.816534818e-05,0.001018894531,0.0006616497926,-0.0001062931816,0.000555356611,0.0003360969435,-0.000136174716,0.0001999222275,0.0005810309095,-8.161064604e-05,0.0004994202635,0.0007918719769,-4.303254385e-05,0.0007488394331,0.0006386479159,0.0001092541962,0.0007479021121,-3.682785747e-05,0.0004559938354,0.0004191659779,-0.000134916902,0.0003096441046,0.0001747272026,0.0006975702707,0.0002692011989,0.0009667714695,0.0004588505894,-1.759370608e-05,0.0004412568834,0.0008212394439,0.0001361634818,0.0009574029257,0.0005063121313,8.74453723e-06,0.0005150566685,0.001239904192,0.0001038418553,0.001343746048,0.0004717410476,-2.25084619e-05,0.0004492325857,0.000448980583,9.020920147e-05,0.0005391897844,0.0007320021933,-2.290007201e-05,0.0007091021213,0.0004494473617,8.311244205e-05,0.0005325598038,0.001505733615,-4.369781305e-05,0.001462035802,0.001194245128,0.0009580672704,0.002152312398,0.002176135688,0.0004251238889,0.002601259577,0.001295843255,0.000579955213,0.001875798468,0.002134848891,0.0002559208881,0.002390769779
2.8,0.001845379138,-0.0001679557976,0.00167742334,0.001682085886,0.0003237259505,0.002005811836,0.001232474128,0.0002070678668,0.001439541995,0.0006187695581,0.0008219056607,0.001440675219,0.0009999949391,0.0002204961335,0.001220491073,0.001001056527,0.0002646400162,0.001265696543,0.001421981985,3.205299394e-05,0.001454034979,0.001256018988,-0.000168126944,0.001087892044,0.001221637516,2.716769795e-05,0.001248805214,0.0008022319084,5.431994327e-06,0.0008076639027,0.0002961592819,0.0003918246605,0.0006879839424,0.001761055577,-7.391456209e-05,0.001687141015,0.001787652525,-3.427977223e-05,0.001753372753,0.0008597410793,4.692295427e-07,0.0008602103088,0.001109122379,-4.245717318e-05,0.001066665206,0.0006984145707,-0.0001078606201,0.0005905539506,0.0003820903532,-0.0001400351158,0.0002420552373,0.0006175966594,-8.48989334e-05,0.000532697726,0.0008350897036,-4.594360025e-05,0.0007891461033,0.0006397939164,0.0001071001869,0.0007468941033,-2.379258384e-05,0.0004566796692,0.0004328870854,-0.0001355404824,0.0003124928486,0.0001769523662,0.0007247998362,0.0002665498712,0.0009913497074,0.0004610728421,-1.924898717e-05,0.0004418238549,0.0008226987611,0.0001366711668,0.0009593699279,0.0005149863933,1.340990389e-05,0.0005283962972,0.0012573182,0.0001079086693,0.001365226869,0.0004935415043,-1.815476976e-05,0.0004753867345,0.0004933426943,8.857813217e-05,0.0005819208265,0.0007667757382,-2.741677331e-05,0.0007393589649,0.0004904108675,8.409430701e-05,0.0005745051745,0.001554225508,-4.876885189e-05,0.001505456656,0.0012571861,0.0009887099485,0.002245896048,0.002261215742,0.0004044784224,0.002665694165,0.001363898423,0.000557107702,0.001921006125,0.002201202083,0.000255792274,0.002456994357
2.9,0.001891107447,-0.0001728921863,0.001718215261,0.001701797394,0.000317385481,0.002019182875,0.001262802749,0.0002089647555,0.001471767505,0.0006301590133,0.0008263393994,0.001456498413,0.001023039774,0.0002188930275,0.001241932802,0.001001302549,0.0002574641119,0.001258766661,0.001438035163,2.75963024e-05,0.001465631466,0.001261189457,-0.000175361627,0.00108582783,0.001238025769,2.082888478e-05,0.001258854654,0.0008099766131,8.046982006e-07,0.0008107813113,0.0003190817174,0.0003847357946,0.000703817512,0.00177319743,-8.548455587e-05,0.001687712874,0.001820661389,-4.316878428e-05,0.001777492605,0.000876173766,-1.316183922e-06,0.0008748575821,0.001159997746,-4.704245667e-05,0.00111295529,0.0007339033116,-0.0001095456381,0.0006243576735,0.0004276091217,-0.0001443393551,0.0002832697666,0.0006530567729,-8.812961268e-05,0.0005649271603,0.000877378433,-4.927084685e-05,0.0008281075862,0.0006396952092,0.0001048220445,0.0007445172538,-1.119532708e-05,0.0004567872426,0.0004455919155,-0.0001374459635,0.0003151556633,0.0001777096997,0.0007520517511,0.000263455474,0.001015507225,0.0004623556891,-2.067869714e-05,0.000441676992,0.0008208410193,0.0001370884713,0.0009579294906,0.0005224977501,1.825586349e-05,0.0005407536136,0.001271650167,0.0001117223399,0.001383372507,0.0005148604377,-1.386325332e-05,0.0005009971844,0.0005365339604,8.648056928e-05,0.0006230145297,0.0007998274426,-3.207509015e-05,0.0007677523525,0.0005305008789,8.467228394e-05,0.0006151731629,0.001600954136,-5.405639949e-05,0.001546897736,0.001316619075,0.001018234164,0.002334853239,0.002343234067,0.0003818046199,0.002725038687,0.001429630047,0.0005317973131,0.00196142736,0.002262262837,0.0002560998602,0.002518362698
3.0,0.001935620267,-0.0001777324819,0.001757887785,0.001718673623,0.0003106189068,0.00202929253,0.001291945181,0.0002103247435,0.001502269925,0.0006397807403,0.0008293523285,0.001469133069,0.001045826317,0.0002171457375,0.001262972054,0.0009992304214,0.0002501356262,0.001249366048,0.00145232814,2.307866953e-05,0.00147540681,0.001264644954,-0.0001826434847,0.001082001469,0.001252974177,1.423468908e-05,0.001267208866,0.0008166731191,-3.872109003e-06,0.0008128010101,0.0003415636188,0.0003771592433,0.0007187228621,0.001781559537,-9.665793287e-05,0.001684901604,0.001850044553,-5.222311118e-05,0.001797821442,0.0008910884812,-3.142015832e-06,0.0008879464654,0.001209594838,-5.189749746e-05,0.001157697341,0.0007682289058,-0.0001113517825,0.0006568771233,0.0004726996574,-0.0001490825676,0.0003236170898,0.0006874591733,-9.132357497e-05,0.0005961355984,0.00091869797,-5.30002032e-05,0.0008656977668,0.0006384363941,0.0001024239046,0.0007408602987,1.065139049e-06,0.000456325046,0.0004573901851,-0.0001405340042,0.0003176052777,0.0001770712735,0.0007794409059,0.0002599247478,0.001039365654,0.0004628684371,-2.189555721e-05,0.0004409728799,0.0008156640524,0.0001374417573,0.0009531058097,0.0005288654092,2.326382264e-05,0.0005521292319,0.001282903016,0.0001152772523,0.001398180268,0.000535724952,-9.651495657e-06,0.0005260734563,0.0005785642307,8.390848678e-05,0.0006624727175,0.0008311855697,-3.68938446e-05,0.0007942917251,0.000569778602,8.483264873e-05,0.0006546112507,0.001645974794,-5.957515096e-05,0.001586399643,0.001372848789,0.001046505646,0.002419354435,0.002421965798,0.0003573792259,0.002779345024,0.001492852634,0.000504383966,0.0019972366,0.002317795392,0.0002569360407,0.002574731433
3.1,0.00197901265,-0.0001824523888,0.001796560261,0.001732896299,0.0003034570213,0.002036353321,0.001319955794,0.0002111554849,0.001531111279,0.0006477097988,0.0008309699895,0.001478679788,0.001068399784,0.0002152366584,0.001283636443,0.0009949500846,0.0002426834099,0.001237633494,0.001464918151,1.850477695e-05,0.001483422928,0.00126647524,-0.0001899643294,0.00107651091,0.001266537343,7.3942901e-06,0.001273931633,0.0008223608169,-8.594592287e-06,0.0008137662246,0.0003636632165,0.0003691175241,0.0007327807405,0.001786177578,-0.0001073600469,0.001678817532,0.001875779538,-6.14301308e-05,0.001814349407,0.0009045074132,-5.006850701e-06,0.0008995005625,0.001257810762,-5.699563697e-05,0.001200815125,0.000801501,-0.0001132825812,0.0006882184188,0.0005174031948,-0.0001542568636,0.0003631463313,0.0007208447569,-9.450268708e-05,0.0006263420698,0.0009589994627,-5.711551777e-05,0.0009018839449,0.000636103696,9.990998891e-05,0.0007360136849,1.308239428e-05,0.0004553037083,0.0004683861026,-0.0001447048832,0.0003198158463,0.0001751109632,0.00080707123,0.0002559664421,0.001063037672,0.0004627743215,-2.291335744e-05,0.000439860964,0.0008071797077,0.0001377595549,0.0009449392626,0.0005341131901,2.841414555e-05,0.0005625273357,0.001291091746,0.0001185685978,0.001409660344,0.000556152862,-5.535433264e-06,0.0005506174287,0.0006194388229,8.085700259e-05,0.0007002958255,0.0008608761576,-4.18902184e-05,0.0008189859392,0.0006082972039,8.456310569e-05,0.0006928603096,0.001689334214,-6.533828019e-05,0.001623995934,0.001426216656,0.001073347025,0.002499563681,0.002497177595,0.0003314951832,0.002828672778,0.001553390003,0.0004752343389,0.002028624342,0.002367570378,0.0002583872979,0.002625957676
3.2,0.002021363148,-0.0001870293831,0.001834333765,0.001744641552,0.0002959317983,0.00204057335,0.001346874,0.0002114667065,0.001558340706,0.0006540193402,0.0008312249862,0.001485244326,0.001090796255,0.000213149754,0.001303946009,0.0009885786159,0.0002351348319,0.001223713448,0.001475863728,1.387896917e-05,0.001489742697,0.001266769377,-0.0001973154131,0.001069453964,0.001278768324,3.167887396e-07,0.001279085113,0.000827078314,-1.33589666e-05,0.0008137193474,0.0003854311094,0.0003606340179,0.0007460651273,0.001787086234,-0.000117518139,0.001669568095,0.001897850697,-7.077667309e-05,0.001827074024,0.0009164500834,-6.909328883e-06,0.0009095407545,0.001304530013,-6.230774916e-05,0.001242222264,0.0008338205088,-0.0001153411295,0.0007184793793,0.0005617523703,-0.0001598509737,0.0004019013966,0.0007532437591,-9.768931241e-05,0.0006555544466,0.0009982239647,-6.15992999e-05,0.0009366246648,0.0006327825121,9.728443516e-05,0.0007300669473,2.493911881e-05,0.0004537357457,0.0004786748645,-0.0001498608514,0.0003217633289,0.0001719024776,0.0008350317116,0.0002515912068,0.001086622918,0.000462226394,-2.374656717e-05,0.0004384798268,0.0007954138108,0.0001380717458,0.0009334855567,0.0005382683164,3.36864591e-05,0.0005719547755,0.001296244028,0.0001215905756,0.001417834603,0.0005761507039,-1.529321118e-06,0.0005746213828,0.0006591547347,7.732450865e-05,0.0007364792434,0.0008889197559,-4.707923405e-05,0.0008418405218,0.0006460978551,8.385282936e-05,0.0007299506845,0.001731065187,-7.135641123e-05,0.001659708776,0.001477086978,0.001098539842,0.002575626819,0.002568629719,0.0003044537751,0.002873083494,0.001611078659,0.0004447082696,0.002055786929,0.002411365692,0.0002605300652,0.002671895758
3.3,0.002062728839,-0.0001914435122,0.001871285327,0.001754074335,0.0002880760445,0.002042150379,0.001372721425,0.0002112698034,0.001583991228,0.0006587779693,0.000830156213,0.001488934182,0.001113040447,0.000210870785,0.001323911232,0.0009802378972,0.0002275155354,0.001207753433,0.001485222561,9.205259698e-06,0.001494427821,0.001265613426,-0.0002046875108,0.001060925915,0.001289716903,-6.988641819e-06,0.001282728262,0.0008308623233,-1.816136513e-05,0.0008127009582,0.0004069083108,0.0003517329895,0.0007586413003,0.001784317285,-0.0001270626447,0.001657254641,0.001916247513,-8.024983055e-05,0.001835997682,0.000926932096,-8.84803571e-06,0.0009180840603,0.001349624233,-6.780279234e-05,0.00128182144,0.0008652744171,-0.0001175297278,0.0007477446894,0.0006057679559,-0.0001658498667,0.0004399180893,0.0007846723621,-0.0001009056679,0.0006837666942,0.001036301113,-6.643330789e-05,0.0009698678047,0.000628555636,9.455129675e-05,0.0007231069328,3.670466005e-05,0.0004516352317,0.0004883398917,-0.0001559079718,0.000323425955,0.0001675179833,0.0008633941967,0.0002468115724,0.001110205769,0.0004613650539,-2.440997041e-05,0.0004369550835,0.0007804059764,0.0001384086185,0.0009188145949,0.0005413601577,3.905995732e-05,0.000580420115,0.001298400743,0.0001243349611,0.001422735704,0.000595712507,2.353983353e-06,0.0005980664903,0.0006976983314,7.331275288e-05,0.0007710110843,0.0009153292839,-5.24732517e-05,0.0008628560322,0.0006832067443,8.269257381e-05,0.0007658993181,0.001771183389,-7.763711194e-05,0.001693546277,0.001525828996,0.001121832101,0.002647661096,0.002636078596,0.0002765566492,0.002912635245,0.00166577304,0.0004131446103,0.00207891765,0.002448967529,0.0002634274312,0.00271239496
3.4,0.002103142525,-0.0001956780527,0.001907464473,0.00176134559,0.0002799232397,0.00204126883,0.001397500938,0.0002105775913,0.00160807853,0.0006620483522,0.0008278079374,0.00148985629,0.001135145195,0.0002083875781,0.001343532773,0.000970053362,0.0002198492975,0.00118990266,0.001493050694,4.487396411e-06,0.00149753809,0.001263089626,-0.0002120709106,0.001051018715,0.00129942941,-1.451245091e-05,0.001284916959,0.0008337475874,-2.29976958e-05,0.0008107498916,0.0004281257762,0.0003424396614,0.0007705654376,0.001777900172,-0.0001359274169,0.001641972755,0.001930963855,-8.983735957e-05,0.001841126496,0.0009359655042,-1.082136319e-05,0.000925144141,0.001392952988,-7.344836586e-05,0.001319504622,0.0008959324721,-0.0001198496345,0.0007760828376,0.0006494569492,-0.0001722342557,0.0004772226934,0.0008151305948,-0.0001041730595,0.0007109575352,0.001073148917,-7.159885408e-05,0.001001550063,0.0006235030359,9.171457808e-05,0.000715217614,4.843427789e-05,0.0004490172952,0.0004974515731,-0.0001627569748,0.0003247846371,0.0001620276623,0.0008922135286,0.0002416419786,0.001133855507,0.0004603177436,-2.491839395e-05,0.0004353993496,0.000762209702,0.0001387999326,0.0009010096346,0.0005434194162,4.451357491e-05,0.0005879329911,0.001297616467,0.0001267902091,0.001424406676,0.0006148195064,6.102819829e-06,0.0006209223263,0.0007350454133,6.882689775e-05,0.0008038723111,0.0009401097268,-5.808157097e-05,0.0008820281559,0.0007196341351,8.107476031e-05,0.0008007088954,0.001809687682,-8.418485749e-05,0.001725502824,0.001572796999,0.001142949866,0.002715746864,0.002699281387,0.0002480980453,0.002947379433,0.001717352456,0.0003808475263,0.002098199983,0.002480172651,0.0002671269553,0.002747299607
3.5,0.002142613136,-0.0001997198509,0.001942893285,0.001766592877,0.0002715075368,0.002038100414,0.00142119794,0.0002094041869,0.001630602127,0.0006638875838,0.0008242287783,0.001488116362,0.001157113048,0.0002056902817,0.00136280333,0.0009581541184,0.0002121579377,0.001170312056,0.001499403631,-2.710387271e-07,0.001499132592,0.001259277254,-0.0002194553749,0.001039821879,0.001307950157,-2.224439201e-05,0.001285705765,0.0008357679133,-2.786353998e-05,0.0008079043733,0.0004491054309,0.0003327802393,0.0007818856702,0.001767865125,-0.0001440489226,0.001623816202,0.001941998309,-9.952741132e-05,0.001842470898,0.0009435607029,-1.28273877e-05,0.0009307333152,0.001434365758,-7.921131348e-05,0.001355154445,0.0009258464348,-0.0001223008825,0.0008035455523,0.0006928127335,-0.0001789800621,0.0005138326714,0.0008446021719,-0.0001075111143,0.0007370910576,0.00110867535,-7.707677881e-05,0.001031598571,0.0006177030971,8.877825445e-05,0.0007064813516,6.017004873e-05,0.0004458975475,0.0005060675962,-0.0001703231995,0.0003258232868,0.0001555000873,0.0009215292887,0.0002360987944,0.001157628083,0.000459200151,-2.528654656e-05,0.0004339136044,0.0007408931691,0.0001392740085,0.0008801671775,0.0005444780231,5.002603114e-05,0.0005945040542,0.001293959925,0.0001289408053,0.00142290073,0.0006334408877,9.706805815e-06,0.0006431476935,0.0007711633624,6.38755686e-05,0.000835038931,0.0009632594824,-6.391019742e-05,0.000899349285,0.0007553755341,7.899346298e-05,0.0008343689971,0.001846563544,-9.100130277e-05,0.001755562241,0.001618310396,0.001161611287,0.002779921683,0.002758002569,0.0002193577094,0.002977360278,0.001765726903,0.0003480756996,0.002113802603,0.002504792706,0.0002716593752,0.002776452081
3.6,0.002181128776,-0.0002035593428,0.001977569433,0.001769943343,0.0002628637292,0.002032807072,0.001443783154,0.0002077649038,0.001651548058,0.0006643488738,0.0008194706635,0.001483819537,0.001178939198,0.0002027715097,0.001381710708,0.0009446739138,0.0002044612061,0.00114913512,0.001504338778,-5.066534797e-06,0.001499272244,0.001254254431,-0.000226830174,0.001027424257,0.001315323563,-3.017332522e-05,0.001285150237,0.0008369576955,-3.275408778e-05,0.0008042036077,0.000469861819,0.0003227818606,0.0007926436797,0.00175424777,-0.0001513651329,0.001602882638,0.001949354771,-0.0001093074947,0.001840047276,0.000949728815,-1.486377118e-05,0.0009348650438,0.001473704913,-8.505847678e-05,0.001388646436,0.0009550512065,-0.0001248821271,0.0008301690794,0.0007358169898,-0.0001860580426,0.0005497589472,0.0008730560842,-0.0001109371583,0.0007621189259,0.00114278163,-8.284723409e-05,0.001059934396,0.0006112342173,8.574634521e-05,0.0006969805625,7.194245444e-05,0.0004422916501,0.0005142341046,-0.0001785262199,0.0003265290779,0.0001480028579,0.0009513675743,0.0002302002373,0.001181567812,0.0004581174853,-2.552895939e-05,0.0004325885259,0.0007165408279,0.0001398566953,0.0008563975232,0.0005445695944,5.557581238e-05,0.0006001454068,0.001287514512,0.0001307664753,0.001418280988,0.000651535232,1.315717506e-05,0.000664692407,0.0008060139865,5.847082943e-05,0.0008644848159,0.0009847723513,-6.996182039e-05,0.0009148105309,0.0007904139487,7.644425998e-05,0.0008668582086,0.001881787676,-9.808563786e-05,0.001783702039,0.001662636052,0.001177540994,0.002840177045,0.002812020182,0.0001905955294,0.003002615711,0.001810839141,0.00031503656,0.002125875701,0.002522660423,0.0002770373925,0.002799697816
3.7,0.002218660543,-0.0002071904522,0.002011470091,0.001771516793,0.0002540269693,0.002025543763,0.001465215523,0.0002056760681,0.001670891591,0.0006634834355,0.0008135878847,0.00147707132,0.001200614164,0.0001996263211,0.001400240486,0.0009297519317,0.0001967766627,0.001126528594,0.001507917866,-9.895593002e-06,0.001498022273,0.001248099734,-0.0002341842364,0.001013915497,0.001321595714,-3.828716879e-05,0.001283308545,0.0008373530629,-3.766406554e-05,0.0007996889974,0.0004904032614,0.0003124725048,0.0008028757662,0.001737093675,-0.0001578150321,0.001579278643,0.001953042048,-0.0001191627303,0.001833879317,0.0009544833575,-1.692767209e-05,0.0009375556854,0.001510809033,-9.095755696e-05,0.001419851476,0.0009835663607,-0.0001275905838,0.0008559757769,0.0007784421415,-0.0001934337721,0.0005850083694,0.0009004490082,-0.0001144658863,0.0007859831219,0.001175366231,-8.888950842e-05,0.001086476722,0.0006041755614,8.262307026e-05,0.0006867986317,8.377154893e-05,0.000438215077,0.0005219866259,-0.0001872897781,0.0003268926478,0.0001396028697,0.0009817415982,0.0002239661104,0.001205707709,0.0004571646632,-2.566001115e-05,0.000431504652,0.0006892552713,0.0001405701546,0.0008298254259,0.000543730004,6.11411449e-05,0.0006048711489,0.001278378521,0.0001322413357,0.001410619857,0.0006690519788,1.644722267e-05,0.0006854992015,0.0008395556358,5.262797725e-05,0.0008921836131,0.001004639088,-7.623604207e-05,0.0009284030464,0.0008247218889,7.342399556e-05,0.0008981458845,0.001915331553,-0.0001054348921,0.001809896661,0.001705975872,0.001190482476,0.002896458348,0.002861129051,0.0001620488082,0.003023177859,0.00185266282,0.0002818855802,0.0021345484,0.00253363647,0.0002832539298,0.0028168904
3.8,0.002255165339,-0.0002106105896,0.00204455475,0.001771427066,0.0002450321899,0.002016459256,0.001485444127,0.0002031547588,0.001688598885,0.0006613415992,0.0008066363503,0.00146797795,0.001222125128,0.0001962520769,0.001418377205,0.0009135326243,0.000189119616,0.00110265224,0.001510208187,-1.475471204e-05,0.001495453475,0.001240892844,-0.0002415063782,0.0009993864657,0.001326814636,-4.657295379e-05,0.001280241683,0.0008369921109,-4.258764186e-05,0.000794404469,0.000510731932,0.000301880891,0.000812612823,0.001716461843,-0.0001633394351,0.001553122408,0.001953071855,-0.0001290736325,0.001823998223,0.000957840582,-1.901569226e-05,0.0009388248898,0.001545515899,-9.687793671e-05,0.001448637963,0.001011396897,-0.0001304221105,0.0008809747868,0.0008206530721,-0.0002010680406,0.0006195850315,0.0009267274788,-0.0001181093756,0.0008086181031,0.00120632831,-9.51819585e-05,0.001111146351,0.0005966065472,7.941298028e-05,0.0006760195275,9.566722856e-05,0.0004336828944,0.000529350123,-0.0001965422233,0.000326908117,0.0001303658937,0.001012650886,0.0002174173575,0.001230068243,0.000456425142,-2.56940031e-05,0.0004307311389,0.0006591585822,0.0001414316267,0.0008005902089,0.0005419976511,6.669999472e-05,0.0006086976458,0.001266664152,0.0001333335079,0.00139999766,0.0006859324211,1.957259639e-05,0.0007055050175,0.0008717439302,4.636514119e-05,0.0009181090714,0.001022847956,-8.272982195e-05,0.0009401181339,0.0008582622767,6.993055916e-05,0.0009281928359,0.001947162727,-0.0001130442661,0.001834118461,0.001748461287,0.001200207345,0.002948668633,0.002905140008,0.0001339320876,0.003039072095,0.001891197587,0.0002487296641,0.002139927251,0.002537615688,0.000290279797,0.002827895485
3.9,0.002290587004,-0.0002138208106,0.002076766194,0.001769781283,0.000235913377,0.00200569466,0.001504408965,0.0002002185323,0.001704627497,0.0006579728468,0.0007986730743,0.001456645921,0.001243455742,0.0001926482605,0.001436104002,0.0008961644082,0.0001815031551,0.001077667563,0.001511282286,-1.964041475e-05,0.001491641871,0.001232714131,-0.0002487855533,0.0009839285779,0.001331029375,-5.501691981e-05,0.001276012455,0.000835914253,-4.751835048e-05,0.0007883959025,0.0005308429901,0.0002910363346,0.0008218793247,0.001692427057,-0.0001678833035,0.001524543754,0.00194945592,-0.0001390138954,0.001810442024,0.0009598186928,-2.112393063e-05,0.0009386947622,0.001577664977,-0.0001027914111,0.001474873566,0.001038532877,-0.0001333714047,0.0009051614726,0.0008624075258,-0.0002089175817,0.0006534899441,0.0009518292058,-0.0001218773248,0.000829951881,0.001235569677,-0.0001017019361,0.001133867741,0.0005886054033,7.61209534e-05,0.0006647263567,0.0001076287642,0.0004287094128,0.000536338177,-0.0002062172494,0.0003265728336,0.0001203555842,0.001044079686,0.0002105755601,0.001254655246,0.0004559689457,-2.564520994e-05,0.0004303237358,0.0006263925388,0.0001424524224,0.0007688449612,0.0005394132427,7.223015915e-05,0.0006116434019,0.001252494427,0.00013400561,0.001386500037,0.0007021101334,2.253123122e-05,0.0007246413646,0.0009025312645,3.970282361e-05,0.0009422340881,0.001039384325,-8.943797073e-05,0.0009499463546,0.0008909882043,6.59627874e-05,0.0009569509917,0.00197724403,-0.0001209075391,0.001856336491,0.001790152729,0.001206522667,0.002996675395,0.002943876352,0.0001064383394,0.003050314692,0.001926461675,0.0002156342432,0.002142095918,0.002534532328,0.0002980609609,0.002832593289
4.0,0.002324856206,-0.0002168260504,0.002108030156,0.001766677806,0.0002267029095,0.001993380715,0.001522041143,0.0001968851908,0.001718926334,0.0006534251096,0.0007897558317,0.001443180941,0.001264585109,0.0001888163247,0.001453401434,0.0008777976896,0.0001739382292,0.001051735919,0.001511216566,-2.454931514e-05,0.001486667251,0.001223643632,-0.0002560110793,0.000967632553,0.001334288616,-6.360456427e-05,0.001270684052,0.000834159194,-5.244906319e-05,0.0007817101308,0.0005507234177,0.0002799685558,0.0008306919735,0.00166508171,-0.0001713991906,0.001493682519,0.001942203717,-0.0001489487094,0.001793255007,0.0009604367075,-2.324814611e-05,0.0009371885614,0.001607099581,-0.0001086728249,0.001498426756,0.001064948315,-0.0001364322122,0.0009285161032,0.0009036554671,-0.000216935981,0.000686719486,0.0009756835907,-0.0001257773333,0.0008499062574,0.001262995414,-0.0001084256437,0.00115456977,0.0005802475348,7.275211781e-05,0.0006529996526,0.0001196440688,0.0004233077828,0.0005429518516,-0.0002162545549,0.0003258869424,0.0001096323875,0.00107599571,0.0002034625356,0.001279458246,0.0004558508983,-2.552782775e-05,0.0004303230706,0.0005911175494,0.0001436372743,0.0007347548237,0.0005360191656,7.770951849e-05,0.0006137286841,0.001235997715,0.0001342162393,0.001370213954,0.0007175109611,2.532294821e-05,0.0007428339093,0.0009318659411,3.266353942e-05,0.0009645294805,0.001054229953,-9.63535108e-05,0.0009578764426,0.0009228421488,6.152057339e-05,0.0009843627222,0.00200553171,-0.0001290173052,0.001876514404,0.001831040088,0.001209278328,0.003040318416,0.002977170273,7.97397381e-05,0.003056910011,0.001958482825,0.0001826336608,0.002141116486,0.002524364274,0.0003065159763,0.00283088025
4.1,0.002357890325,-0.0002196353213,0.002138255004,0.001762204543,0.0002174311154,0.001979635658,0.00153826348,0.0001931726245,0.001731436105,0.0006477441199,0.0007799428384,0.001427686958,0.001285487031,0.0001847595875,0.001470246619,0.0008585830655,0.0001664337301,0.001025016796,0.001510089845,-2.947820994e-05,0.001480611635,0.001213760314,-0.0002631728065,0.0009505875071,0.001336639901,-7.232054962e-05,0.001264319351,0.0008317662475,-5.737199152e-05,0.000774394256,0.000570351432,0.0002687075038,0.0008390589358,0.001634537931,-0.0001738509269,0.001460687004,0.001931322161,-0.0001588340044,0.001772488157,0.0009597139159,-2.53839033e-05,0.0009343300126,0.001633669051,-0.0001145005338,0.001519168517,0.001090600199,-0.0001395974683,0.0009510027312,0.0009443383913,-0.0002250746064,0.0007192637849,0.0009982121368,-0.0001298151408,0.0008683969959,0.00128851414,-0.0001153279859,0.001173186154,0.0005716045607,6.931183663e-05,0.0006409163973,0.0001316893558,0.0004174897141,0.0005491790698,-0.0002266000382,0.0003248529989,9.825296066e-05,0.001108350419,0.0001961001089,0.001304450527,0.0004561101813,-2.535581269e-05,0.0004307543686,0.0005535106548,0.0001449840715,0.0006984947263,0.000531858733,8.311642353e-05,0.0006149751566,0.001217300625,0.000133922369,0.001351222994,0.0007320529685,2.794889797e-05,0.0007600018664,0.0009596921657,2.527158079e-05,0.0009849637465,0.001067362977,-0.0001034678858,0.000963895091,0.0009537556685,5.660521295e-05,0.001010360881,0.002031974188,-0.0001373647336,0.001894609454,0.001871041781,0.001208374829,0.003079416611,0.003004862121,5.398648688e-05,0.003058848608,0.00198728971,0.0001497432571,0.002137032967,0.00250713646,0.0003155343295,0.00282267079
4.2,0.002389594901,-0.0002222617647,0.002167333136,0.001756439385,0.0002081260886,0.001964565473,0.001552992613,0.0001890987487,0.001742091361,0.0006409737482,0.0007692923281,0.001410266076,0.001306130674,0.0001804831605,0.001486613835,0.0008386704967,0.0001589966079,0.0009976671046,0.001507983071,-3.442414616e-05,0.001473558925,0.001203142469,-0.0002702611941,0.0009328812745,0.001338130214,-8.114847303e-05,0.001256981741,0.00082877457,-6.227867554e-05,0.0007664958945,0.0005896971634,0.0002572832513,0.0008469804147,0.001600930253,-0.0001752165036,0.00142571375,0.001916817846,-0.0001686168248,0.001748201021,0.00095767062,-2.752658872e-05,0.0009301440312,0.001657231244,-0.0001202566537,0.00153697459,0.001115428778,-0.0001428593674,0.0009725694105,0.0009843898713,-0.0002332834535,0.0007511064178,0.001019329738,-0.0001339948675,0.0008853348708,0.001312039265,-0.0001223825476,0.001189656718,0.0005627446414,6.580575813e-05,0.0006285503996,0.0001437298301,0.0004112653593,0.0005549951895,-0.000237205254,0.0003234757119,8.627045793e-05,0.001141081412,0.0001885099946,0.001329591406,0.0004567717563,-2.514269402e-05,0.0004316290623,0.0005137631704,0.0001464840185,0.0006602471889,0.0005269757358,8.843008733e-05,0.0006154058231,0.00119652103,0.000133082377,0.001329603407,0.0007456470168,3.041103592e-05,0.0007760580527,0.0009859517726,1.755281281e-05,0.001003504585,0.001078759433,-0.000110771156,0.0009679882766,0.0009836505109,5.121990434e-05,0.001034870415,0.002056512994,-0.0001459389142,0.001910574079,0.001910003138,0.001203770232,0.00311377337,0.003026803973,2.930352962e-05,0.003056107503,0.002012906593,0.0001169710912,0.002129877685,0.002482923976,0.0003249760551,0.002807900031
4.3,0.002419867612,-0.000224722454,0.002195145158,0.001749453485,0.0001988137021,0.001948267188,0.001566143007,0.0001846815381,0.001750824545,0.0006331578136,0.0007578620184,0.001391019832,0.001326483064,0.0001759938645,0.001502476929,0.0008182096702,0.0001516320752,0.0009698417454,0.001504980739,-3.938441473e-05,0.001465596324,0.001191869446,-0.0002772672822,0.0009146021643,0.001338807937,-9.007065541e-05,0.001248737282,0.0008252243412,-6.71599713e-05,0.0007580643699,0.0006087246252,0.0002457259197,0.0008544505449,0.001564418257,-0.0001754896541,0.001388928603,0.001898701445,-0.0001782367893,0.001720464656,0.0009543300933,-2.967135251e-05,0.0009246587408,0.001677655435,-0.0001259271985,0.001551728236,0.001139359879,-0.0001462094225,0.0009931504561,0.001023738057,-0.0002415118785,0.0007822261782,0.001038947438,-0.0001383193114,0.0009006281268,0.001333492034,-0.0001295618082,0.001203930225,0.0005537339554,6.223980114e-05,0.0006159737566,0.0001557215613,0.0004046432628,0.0005603648241,-0.0002480261976,0.0003217616973,7.373549961e-05,0.001174116178,0.0001807136667,0.001354829845,0.0004578490372,-2.490144489e-05,0.0004329475923,0.0004720784663,0.0001481222667,0.0006202007331,0.0005214146052,9.363086353e-05,0.0006150454688,0.001173763111,0.0001316593716,0.001305422483,0.0007581984834,3.27117835e-05,0.0007909102669,0.001010587369,9.534411586e-06,0.001020121781,0.001088396058,-0.0001182522817,0.0009701437764,0.001012441208,4.537026752e-05,0.001057811476,0.002079086239,-0.00015472626,0.001924359979,0.001947696361,0.001195484678,0.00314318104,0.003042866352,5.786809421e-06,0.003048653162,0.002035352223,8.432835812e-05,0.002119680581,0.002451854721,0.0003346727625,0.002786527484
4.4,0.002448604152,-0.0002270379093,0.002221566243,0.001741316225,0.0001895176716,0.001930833897,0.001577632104,0.0001799391097,0.001757571213,0.0006243428837,0.0007457085741,0.001370051458,0.00134651258,0.0001713000748,0.001517812655,0.0007973509606,0.0001443439001,0.0009416948608,0.001501173352,-4.435647268e-05,0.001456816879,0.001180023947,-0.00028418261,0.0008958413367,0.001338725185,-9.906813349e-05,0.001239657052,0.000821158281,-7.20061026e-05,0.0007491521784,0.0006273942071,0.0002340655272,0.0008614597343,0.001525188133,-0.0001746803428,0.001350507791,0.00187699314,-0.0001876285028,0.001689364637,0.0009497208776,-3.181312307e-05,0.0009179077546,0.001694825286,-0.0001315021794,0.001563323107,0.001162308781,-0.0001496385485,0.001012670232,0.001062309541,-0.0002497092856,0.0008126002556,0.001056976264,-0.0001427903188,0.0009141859456,0.001352805932,-0.0001368375555,0.001215968377,0.0005446383415,5.862001731e-05,0.0006032583588,0.0001676138973,0.0003976303102,0.0005652442075,-0.0002590219351,0.0003197191276,6.069719244e-05,0.001207375567,0.0001727321499,0.001380107716,0.0004593463746,-2.4644413e-05,0.0004347019616,0.0004286700596,0.0001498789374,0.000578548997,0.0005152210718,9.870039096e-05,0.0006139214628,0.001149114995,0.000129624624,0.001278739619,0.0007696099084,3.485400196e-05,0.0008044639103,0.001033545481,1.244552444e-06,0.001034790034,0.001096253202,-0.0001258994776,0.0009703537246,0.001040038136,3.906482481e-05,0.001079102961,0.002099633512,-0.0001637104719,0.00193592304,0.00198382378,0.00118360094,0.00316742472,0.003052945167,-1.649857822e-05,0.003036446588,0.002054641805,5.183800031e-05,0.002106479806,0.002414110639,0.0003444303228,0.002758540962
4.5,0.002475704054,-0.0002292314388,0.002246472615,0.001732099516,0.0001802595154,0.001912359032,0.001587385041,0.0001748897564,0.001762274798,0.0006145808793,0.0007328871999,0.001347468079,0.001366191842,0.0001664114641,0.001532603306,0.0007762459907,0.0001371347349,0.0009133807256,0.001496659469,-4.933784618e-05,0.001447321623,0.001167693679,-0.0002909991696,0.0008766945094,0.001337939309,-0.0001081208976,0.001229818412,0.0008166226566,-7.680681368e-05,0.0007398158429,0.0006456646412,0.0002223317116,0.0008679963528,0.00148345199,-0.0001728144883,0.001310637501,0.001851727593,-0.000196724705,0.001655002888,0.000943878287,-3.394674419e-05,0.0009099315428,0.001708641219,-0.0001369756189,0.0015716656,0.001184184104,-0.0001531371699,0.001031046934,0.001100033004,-0.0002578258664,0.0008422071371,0.001073330894,-0.0001474091636,0.0009259217303,0.001369930985,-0.0001441813026,0.001225749682,0.0005355239379,5.495243643e-05,0.0005904763744,0.0001793513783,0.0003902317707,0.0005695831489,-0.0002701537745,0.0003173573344,4.720355993e-05,0.001240775641,0.0001645857535,0.001405361394,0.0004612601739,-2.438326598e-05,0.0004368769079,0.0003837598417,0.0001517303211,0.0005354901628,0.0005084428277,0.0001036216312,0.0006120644589,0.001122648157,0.0001269608117,0.001249608969,0.0007797836938,3.684128485e-05,0.0008166249787,0.001054778201,-7.287911482e-06,0.001047490289,0.001102316673,-0.0001337005725,0.0009686161004,0.001066349668,3.231543773e-05,0.001098665106,0.002118100277,-0.0001728731928,0.001945227084,0.002018024053,0.001168260316,0.003186284368,0.003056966281,-3.751716272e-05,0.003019449118,0.0020707905,1.95400532e-05,0.002090330553,0.002369926838,0.0003540330153,0.002723959853
4.6,0.002501074575,-0.0002313285196,0.002269746056,0.001721879615,0.0001710583418,0.001892937957,0.001595337764,0.0001695518683,0.001764889632,0.0006039304626,0.0007194514265,0.001323381889,0.001385498821,0.0001613386575,0.001546837479,0.0007550470812,0.0001300064253,0.0008850535065,0.001491546125,-5.432605207e-05,0.001437220073,0.001154971584,-0.0002977094456,0.0008572621387,0.00133651283,-0.0001172082594,0.001219304571,0.0008116672376,-8.155157891e-05,0.0007301156587,0.0006634937854,0.0002105533752,0.0008740471606,0.00143944424,-0.0001699329236,0.001269511316,0.00182295724,-0.0002054594712,0.001617497769,0.0009368444481,-3.606715369e-05,0.0009007772945,0.001719021724,-0.0001423453879,0.001576676336,0.001204890332,-0.0001566953903,0.001048194941,0.001136841171,-0.0002658134414,0.0008710277295,0.001087931909,-0.0001521768369,0.0009357550717,0.001384836352,-0.0001515645197,0.001233271832,0.0005264562335,5.124302e-05,0.0005776992535,0.0001908744445,0.0003824515321,0.0005733259766,-0.0002813854,0.0003146864809,3.330108094e-05,0.001274227599,0.0001562937784,0.001430521377,0.0004635783965,-2.412894244e-05,0.000439449454,0.0003375760726,0.0001536500978,0.0004912261704,0.0005011297163,0.0001083788018,0.0006095085181,0.001094417594,0.0001236644757,0.00121808207,0.0007886240475,3.867839705e-05,0.0008273024446,0.001074242722,-1.603382609e-05,0.001058208896,0.001106577981,-0.0001416433231,0.0009649346582,0.001091282673,2.513763947e-05,0.001116420313,0.002134440168,-0.0001821950498,0.001952245118,0.002049878904,0.001149655255,0.003199534159,0.003054887118,-5.725942564e-05,0.002997627692,0.00208381656,-1.250637626e-05,0.002071310183,0.002319588505,0.0003632485376,0.002682837043
4.7,0.002524631944,-0.0002333563721,0.002291275572,0.001710736045,0.0001619304989,0.001872666544,0.001601438256,0.0001639437663,0.001765382022,0.0005924568871,0.000705453071,0.001297909958,0.001404416005,0.0001560928748,0.00156050888,0.0007339055076,0.0001229602874,0.000856865795,0.001485947315,-5.931852352e-05,0.001426628791,0.001141954551,-0.0003043065099,0.0008376480407,0.00133451188,-0.0001263091958,0.001208202684,0.0008063441887,-8.622980373e-05,0.000720114385,0.0006808382231,0.0001987583314,0.0008795965545,0.001393415514,-0.0001660894621,0.001227326052,0.001790753305,-0.0002137704992,0.001576982806,0.0009286669502,-3.816952963e-05,0.0008904974206,0.001725903557,-0.0001476128223,0.001578290735,0.001224328521,-0.0001603032735,0.001064025248,0.001172670589,-0.0002736263797,0.0008990442089,0.001100706224,-0.0001570942194,0.0009436120045,0.001397510503,-0.0001589586621,0.001238551841,0.0005174977739,4.749771439e-05,0.0005649954883,0.0002021189563,0.0003742924683,0.0005764114246,-0.0002926838726,0.000311717311,1.90334384e-05,0.001307636354,0.0001478742111,0.001455510565,0.0004662790033,-2.389163019e-05,0.0004423873731,0.0002903508244,0.0001556105436,0.0004459613679,0.000493333264,0.0001129572111,0.0006062904751,0.001064462413,0.0001197472681,0.001184209681,0.0007960378951,4.037166732e-05,0.0008364095624,0.001091899168,-2.496426715e-05,0.001066934901,0.0011090331,-0.0001497156244,0.0009593174752,0.001114741521,1.755074773e-05,0.001132292269,0.002148614502,-0.000191656656,0.001956957846,0.002078918318,0.001128021352,0.00320693967,0.003046696505,-7.573727832e-05,0.002970959227,0.002093741451,-4.422133335e-05,0.002049520118,0.002263425362,0.0003718338136,0.002635259176
4.8,0.0025463004,-0.0002353437332,0.002310956666,0.001698748518,0.0001528892324,0.001851637751,0.001605646421,0.0001580835398,0.001763729961,0.0005802306429,0.0006909423237,0.001271172967,0.001422928335,0.0001506856551,0.00157361399,0.0007129690081,0.0001159973758,0.0008289663839,0.001479981036,-6.431251236e-05,0.001415668523,0.001128741157,-0.0003107841058,0.0008179570517,0.001332003881,-0.0001354025769,0.001196601305,0.0008007063533,-9.08310061e-05,0.0007098753472,0.0006976522045,0.0001869729776,0.0008846251821,0.00134562563,-0.0001613482377,0.001184277393,0.001755204769,-0.0002216000646,0.001533604704,0.0009193968112,-4.024942075e-05,0.0008791473904,0.00172924115,-0.0001527821999,0.00157645895,0.001242395574,-0.0001639512412,0.001078444333,0.001207459555,-0.0002812224424,0.0009262371129,0.001111586185,-0.0001621622055,0.0009494239794,0.001407959234,-0.0001663350899,0.001241624144,0.000508705383,4.372249964e-05,0.0005524278826,0.0002130151435,0.000365756751,0.0005787718945,-0.0003040209687,0.0003084608839,4.439915235e-06,0.001340898942,0.0001393434674,0.00148024241,0.0004693283566,-2.368075448e-05,0.0004456476021,0.0002423168681,0.0001575836971,0.0003999005652,0.0004851056531,0.0001173430803,0.0006024487333,0.001032806897,0.0001152361291,0.001148043026,0.0008019348691,4.192928742e-05,0.0008438641566,0.001107707823,-3.405122689e-05,0.001073656597,0.001109680384,-0.0001579055457,0.0009517748386,0.001136626414,9.577656427e-06,0.00114620407,0.002160589673,-0.0002012392998,0.001959350373,0.002104624941,0.001103630125,0.003208255066,0.003032414253,-9.298014251e-05,0.002939434111,0.002100585653,-7.549973323e-05,0.00202508592,0.002201804028,0.0003795417241,0.002581345752
4.9,0.002566010308,-0.0002373207074,0.0023286896,0.001685993554,0.0001439445607,0.001829938114,0.001607933597,0.000151988981,0.001759922578,0.0005673256759,0.0006759678931,0.001243293569,0.001441021146,0.0001451287249,0.001586149871,0.0006923793237,0.0001091187731,0.0008014980968,0.001473766014,-6.930497541e-05,0.001404461038,0.001115429351,-0.0003171366724,0.0007982926787,0.001329055549,-0.000144467267,0.001184588282,0.0007948056652,-9.534500521e-05,0.0006994606599,0.0007138867758,0.000175221993,0.0008891087688,0.001296337687,-0.000155780958,0.001140556729,0.001716416212,-0.0002288950407,0.001487521171,0.0009090868299,-4.230289959e-05,0.0008667839303,0.001729005884,-0.000157860257,0.001571145627,0.001258983115,-0.0001676305789,0.001091352536,0.001241145203,-0.0002885632997,0.0009525819031,0.001120508333,-0.0001673818247,0.0009531265087,0.001416202512,-0.000173664929,0.001242537583,0.0005001279909,3.992339456e-05,0.0005400513855,0.0002234868649,0.0003568460188,0.0005803328836,-0.0003153741901,0.0003049282833,-1.044590681e-05,0.00137390408,0.0001307162966,0.001504620377,0.0004726807341,-2.350492301e-05,0.0004491758111,0.0001937043354,0.0001595424758,0.0003532468113,0.0004764984432,0.0001215234943,0.0005980219374,0.000999462341,0.0001101727211,0.001109635062,0.0008062267643,4.336150424e-05,0.0008495882686,0.001121627156,-4.326831965e-05,0.001078358836,0.001108518684,-0.0001662011045,0.0009423175792,0.001156832246,1.24428091e-06,0.001158076527,0.002170334362,-0.0002109253195,0.001959409043,0.002126441122,0.001076782289,0.003203223411,0.003012091302,-0.0001090323942,0.002903058908,0.002104361708,-0.0001062057358,0.001998155972,0.002135120347,0.0003861279335,0.002521248281
5.0,0.002583697024,-0.0002393185338,0.002344378491,0.001672542701,0.0001351035298,0.001807646231,0.001608282841,0.0001456776432,0.001753960485,0.0005538181755,0.0006605771065,0.001214395282,0.001458679443,0.0001394339856,0.001598113428,0.0006722706371,0.0001023258932,0.0007745965303,0.001467419508,-7.429246859e-05,0.001393127039,0.001102114993,-0.0003233592649,0.0007787557276,0.001325732242,-0.0001534821317,0.00117225011,0.0007886924129,-9.976211215e-05,0.0006889303008,0.0007294899384,0.0001635280919,0.0008930180302,0.00124581512,-0.0001494649009,0.001096350219,0.001674505913,-0.0002356066934,0.00143889922,0.0008977913093,-4.432671468e-05,0.0008534645946,0.001725185845,-0.0001628557984,0.001562330047,0.00127397735,-0.0001713340505,0.001102643299,0.001273661147,-0.0002956146516,0.0009780464955,0.001127412914,-0.000172754289,0.0009546586248,0.001422271537,-0.0001809188857,0.001241352651,0.0004918059338,3.610651178e-05,0.0005279124456,0.0002334519519,0.0003475615122,0.000581013464,-0.0003267269544,0.0003011304215,-2.55965329e-05,0.00140653377,0.0001220058908,0.001528539661,0.0004762797623,-2.337182674e-05,0.0004529079355,0.0001447377236,0.0001614617347,0.0003061994583,0.000467561489,0.0001254865372,0.0005930480262,0.0009644300968,0.000104612124,0.001069042221,0.0008088271972,4.468055685e-05,0.0008535077541,0.001133613779,-5.259133369e-05,0.001081022445,0.001105546629,-0.0001745897593,0.0009309568699,0.00117524912,-7.421200047e-06,0.00116782792,0.002177818712,-0.0002206983557,0.001957120356,0.0021437823,0.001047800666,0.003191582965,0.002985811204,-0.0001239522566,0.002861858947,0.002105067361,-0.0001361686471,0.001968898714,0.002063793688,0.0003913566766,0.002455150365
5.1,0.002599301991,-0.0002413691341,0.002357932857,0.00165846367,0.000126370801,0.001784834471,0.001606690729,0.0001391669683,0.001745857698,0.0005397866685,0.000644815885,0.001184602553,0.001475889289,0.0001336135265,0.001609502816,0.0006527694107,9.562076267e-05,0.0007483901733,0.001461057097,-7.927104045e-05,0.001381786057,0.001088891774,-0.0003294473539,0.0007594444204,0.001322098986,-0.0001624260251,0.001159672961,0.0007824156228,-0.0001040732803,0.0006783423426,0.0007444081905,0.0001519118905,0.000896320081,0.001194322389,-0.0001424821122,0.001051840276,0.00162960542,-0.0002416908575,0.001387914563,0.0008855674017,-4.631837583e-05,0.0008392490259,0.001717786324,-0.0001677792658,0.001550007059,0.001287260988,-0.0001750565841,0.001112204404,0.001304936973,-0.0003023461557,0.001002590818,0.001132244834,-0.0001782808728,0.0009539639612,0.001426207269,-0.0001880671117,0.001238140158,0.0004837718681,3.227824458e-05,0.0005160501127,0.000242823922,0.0003379043342,0.0005807282562,-0.0003380678906,0.0002970780259,-4.098986462e-05,0.00143866671,0.000113224104,0.001551890814,0.0004800616113,-2.32881841e-05,0.0004567734272,9.563385349e-05,0.0001633191537,0.0002589530072,0.0004583424737,0.0001292215159,0.0005875639897,0.0009277061814,9.862060174e-05,0.001026326783,0.0008096522051,4.59002231e-05,0.0008555524282,0.001143624462,-6.199854675e-05,0.001081625915,0.001100763447,-0.0001830577632,0.0009177056835,0.001191764769,-1.638901883e-05,0.001175375751,0.002183016366,-0.0002305436542,0.001952472712,0.002156057806,0.001017022227,0.003173080033,0.002953693476,-0.0001378113835,0.002815882093,0.002102680843,-0.000165181618,0.001937499225,0.001988263052,0.0003950054325,0.002383268484
5.2,0.002612776314,-0.0002435044048,0.00236927191,0.001643823967,0.000117749323,0.00176157329,0.001603170369,0.0001324743864,0.001735644755,0.0005253133062,0.0006287286214,0.001154041928,0.001492640828,0.0001276795662,0.001620320394,0.0006339953413,8.900625656e-05,0.0007230015978,0.00145479416,-8.42360958e-05,0.001370558064,0.001075852137,-0.0003353965469,0.0007404555902,0.001318222404,-0.0001712778614,0.001146944543,0.0007760241056,-0.0001082702026,0.000667753903,0.0007585889899,0.0001403918904,0.0008989808803,0.001142128049,-0.0001349195997,0.001007208449,0.001581861047,-0.000247109018,0.001334752029,0.0008724772627,-4.827614943e-05,0.0008242011133,0.001706830737,-0.0001726421372,0.0015341886,0.00129871711,-0.0001787958884,0.001119921222,0.001334899675,-0.0003087313818,0.001026168294,0.001134956036,-0.0001839626723,0.0009509933633,0.001428060731,-0.0001950792711,0.00123298146,0.000476052597,2.844548086e-05,0.0005044980779,0.000251514663,0.0003278758197,0.0005793904827,-0.0003493896013,0.0002927817002,-5.660790102e-05,0.001470182133,0.0001043816237,0.001574563756,0.000483958739,-2.325981457e-05,0.0004606989245,4.660099279e-05,0.000165095806,0.0002116967988,0.000448887159,0.0001327191333,0.0005816062923,0.0008892872329,9.227249457e-05,0.0009815597274,0.0008086219357,4.703505316e-05,0.0008556569889,0.001151619071,-7.147084637e-05,0.001080148224,0.001094170657,-0.0001915896342,0.0009025810227,0.001206267968,-2.562824816e-05,0.00118063972,0.002185908212,-0.0002404484028,0.001945459809,0.002162697219,0.0009847888378,0.003147486057,0.002915897698,-0.0001506935559,0.002765204142,0.00209715888,-0.0001930030778,0.001904155802,0.001908983462,0.0003968690271,0.002305852489
5.3,0.002624085383,-0.0002457553667,0.002378330016,0.001628695026,0.0001092408252,0.001737935852,0.001597754346,0.0001256173491,0.001723371695,0.0005104853509,0.0006123580925,0.001122843443,0.001508931342,0.0001216442947,0.001630575637,0.0006160625176,8.248626712e-05,0.0006985487847,0.001448747627,-8.918223968e-05,0.001359565388,0.001063088167,-0.0003412023376,0.0007218858293,0.001314172205,-0.0001800168507,0.001134155355,0.0007695672973,-0.0001123454103,0.0006572218871,0.0007719831393,0.0001289845001,0.0009009676394,0.001089507699,-0.0001268699328,0.0009626377662,0.00153143664,-0.0002518306428,0.001279605997,0.0008585896804,-5.019902588e-05,0.0008083906545,0.001692361318,-0.0001774562315,0.001514905086,0.001308233576,-0.0001825527703,0.001125680805,0.001363475737,-0.0003147478004,0.001048727936,0.001135508386,-0.0001898003894,0.0009457079962,0.001427894068,-0.0002019248504,0.001225969217,0.0004686707233,2.461565007e-05,0.0004932863734,0.0002594372082,0.0003174778661,0.0005769150743,-0.0003606874643,0.0002882518956,-7.243556874e-05,0.001500962474,9.548803399e-05,0.001596450508,0.0004879027295,-2.329182174e-05,0.0004646109078,-2.16135511e-06,0.0001667764596,0.0001646151045,0.0004392399974,0.0001359715771,0.0005752115745,0.0008491768792,8.564674223e-05,0.0009348236214,0.000805662913,4.809947469e-05,0.0008537623877,0.001157562817,-8.099172679e-05,0.00107657109,0.001085773538,-0.000200167906,0.0008856056325,0.001218651637,-3.510715198e-05,0.001183544485,0.002186485622,-0.0002504019692,0.001936083653,0.002163179343,0.0009514362674,0.003114615611,0.002872626031,-0.0001626914026,0.002709934628,0.002088437401,-0.0002193617311,0.00186907567,0.001826421763,0.0003967631119,0.002223184875
5.4,0.002633212398,-0.0002481513553,0.002385061043,0.001613154645,0.0001008460382,0.001714000683,0.001590496191,0.0001186133152,0.001709109506,0.0004953957314,0.000595745519,0.00109114125,0.001524766774,0.0001155196638,0.001640286438,0.0005990798825,7.606576144e-05,0.000675145644,0.001443036485,-9.410316141e-05,0.001348933324,0.00105069153,-0.000346859997,0.0007038315332,0.001310021198,-0.0001886228873,0.001121398311,0.0007630952135,-0.0001162924297,0.0006468027838,0.0007845462288,0.0001177040156,0.0009022502444,0.001036744542,-0.0001184317402,0.0009183128017,0.001478516258,-0.0002558365194,0.001222679739,0.0008439802241,-5.208673974e-05,0.0007918934843,0.001674439106,-0.0001822331281,0.001492205978,0.00131570623,-0.0001863310007,0.00112937523,0.001390592125,-0.0003203767159,0.001070215409,0.001133875886,-0.0001957941759,0.0009380817097,0.001425780816,-0.0002085735961,0.001217207219,0.0004616452949,2.079656947e-05,0.0004824418643,0.0002665077428,0.0003067131726,0.0005732209154,-0.0003719589475,0.0002834987831,-8.846016438e-05,0.001530894128,8.655183725e-05,0.001617445965,0.00049182545,-2.338878341e-05,0.0004684366666,-5.046280841e-05,0.0001683498285,0.0001178870201,0.0004294445268,0.0001389726146,0.0005684171414,0.0008073910127,7.882386191e-05,0.0008862148746,0.000800710073,4.910691864e-05,0.0008498169916,0.001161426813,-9.054717842e-05,0.001070879634,0.001075581517,-0.0002087731362,0.0008668083804,0.001228814813,-4.479374061e-05,0.001184021073,0.00218475153,-0.000260395932,0.001924355598,0.002157060601,0.0009172819682,0.003074342569,0.002824122732,-0.0001739017499,0.002650220982,0.002076435199,-0.0002439668756,0.001832468323,0.001741051617,0.0003945267826,0.0021355784
5.5,0.002640159536,-0.0002507193993,0.002389440136,0.001597286658,9.256471703e-05,0.001689851375,0.00158146981,0.000111479702,0.001692949512,0.0004801421582,0.0005789307662,0.001059072924,0.001540161011,0.0001093171908,0.001649478202,0.0005831505981,6.975070746e-05,0.0006529013056,0.001437780266,-9.899160745e-05,0.001338788659,0.001038752132,-0.0003523646734,0.0006863874588,0.001305843605,-0.0001970769855,0.00110876662,0.0007566573497,-0.0001201059869,0.0006365513628,0.0007962388412,0.0001065625623,0.0009028014034,0.0009841266971,-0.000109709835,0.0008744168621,0.00142330535,-0.0002591221,0.00116418325,0.0008287297175,-5.393982609e-05,0.0007747898914,0.001653143181,-0.0001869838577,0.001466159324,0.001321040144,-0.0001901368632,0.001130903281,0.001416175305,-0.00032560317,0.001090572135,0.001130045391,-0.0002019434236,0.0009281019671,0.001421804434,-0.0002149959695,0.001206808464,0.0004549911876,1.699622422e-05,0.0004719874118,0.0002726463721,0.000295585492,0.0005682318642,-0.0003832036237,0.0002785321653,-0.0001046714584,0.001559866503,7.758052071e-05,0.001637447024,0.0004956586911,-2.35548774e-05,0.0004721038137,-9.81230214e-05,0.0001698088647,7.168584329e-05,0.0004195431832,0.0001417177545,0.0005612609377,0.0007639607178,7.188390343e-05,0.0008358446212,0.0007937079173,5.006910023e-05,0.0008437770175,0.001163186876,-0.0001001254762,0.0010630614,0.001063607315,-0.0002173840624,0.0008462232522,0.001236663292,-5.4656564e-05,0.001182006728,0.002180718816,-0.0002704237927,0.001910295024,0.002143999412,0.0008826133934,0.003026612806,0.002770670739,-0.0001844210026,0.002586249736,0.002061060982,-0.0002665246333,0.001794536349,0.001653346983,0.0003900249283,0.002043371911
5.6,0.002644946676,-0.0002534838487,0.002391462828,0.001581178257,8.439560135e-05,0.001665573858,0.001570767244,0.0001042338021,0.001675001046,0.0004648250362,0.0005619525836,0.00102677762,0.001555133375,0.0001030478179,0.001658181193,0.0005683704597,6.354792428e-05,0.000631918384,0.001433095776,-0.0001038394363,0.00132925634,0.001027355834,-0.0003577116706,0.0006696441639,0.001301712221,-0.0002053616146,0.001096350606,0.0007503008389,-0.0001237821874,0.0006265186515,0.0008070257876,9.557007456e-05,0.0009025958622,0.000931941769,-0.0001008148183,0.0008311269507,0.001366030018,-0.0002616997642,0.001104330253,0.0008129215237,-5.575960461e-05,0.0007571619191,0.001628569472,-0.0001917189201,0.001436850552,0.001324149329,-0.0001939787217,0.001130170608,0.00144014861,-0.0003304159408,0.001109732669,0.001124015782,-0.0002082463925,0.0009157693896,0.001416055171,-0.0002211636383,0.001194891532,0.000448717593,1.322256702e-05,0.00046194016,0.0002777767382,0.0002840999574,0.0005618766956,-0.0003944236854,0.0002733615061,-0.0001210621792,0.001587770359,6.858070502e-05,0.001656351064,0.0004993331642,-2.379395786e-05,0.0004755392064,-0.0001449729838,0.0001711509552,2.617797143e-05,0.0004095765916,0.0001442043927,0.0005537809843,0.0007189329348,6.490498509e-05,0.0007838379199,0.0007846106218,5.099554571e-05,0.0008356061675,0.001162821366,-0.00010971693,0.001053104436,0.001049865386,-0.0002259778643,0.0008238875216,0.001242109219,-6.466553584e-05,0.001177443683,0.00217440657,-0.0002804802395,0.001893926331,0.002123773696,0.0008476791006,0.002971452796,0.002712586063,-0.0001943412648,0.002518244798,0.002042223323,-0.0002867582611,0.001755465062,0.001563773463,0.0003831513289,0.001946924792
5.7,0.002647608633,-0.0002564662206,0.002391142413,0.001564916282,7.63364593e-05,0.001641252741,0.001558495703,9.689271995e-05,0.001655388423,0.0004495449042,0.0005448487833,0.0009943936875,0.001569705427,9.672186354e-05,0.00166642729,0.0005548259465,5.746494329e-05,0.0006122908898,0.001429093027,-0.0001086377167,0.001320455311,0.001016581981,-0.0003628967715,0.0006536852096,0.001297695414,-0.0002134608392,0.001084234575,0.0007440685005,-0.0001273186216,0.0006167498789,0.0008168750645,8.473437468e-05,0.0009016094392,0.000880470212,-9.186195779e-05,0.0007886082542,0.001306935362,-0.0002635997004,0.001043335662,0.0007966386373,-5.754802821e-05,0.0007390906091,0.00160082963,-0.0001964486522,0.001404380977,0.00132495596,-0.0001978667938,0.001127089166,0.001462429197,-0.0003348076873,0.00112762151,0.001115796244,-0.0002146996938,0.0009010965499,0.001408626054,-0.0002270500173,0.001181576037,0.0004428264784,9.48328507e-06,0.0004523097634,0.0002818251389,0.0002722633847,0.0005540885237,-0.0004056244073,0.0002679960182,-0.000137628389,0.001614496776,5.95583835e-05,0.00167405516,0.0005027780629,-2.41096167e-05,0.0004786684462,-0.0001908562284,0.0001723778213,-1.84784071e-05,0.0003995826988,0.0001464318084,0.0005460145072,0.0006723700661,5.796154086e-05,0.0007303316069,0.0007733815003,5.189332736e-05,0.0008252748276,0.001160309319,-0.0001193136524,0.001040995667,0.00103437065,-0.0002345305769,0.000799840073,0.001245070479,-7.479262363e-05,0.001170277855,0.002165835819,-0.0002905600588,0.00187527576,0.00209628978,0.000812684345,0.002908974125,0.002650211181,-0.0002037472912,0.00244646389,0.002019841424,-0.0003044286089,0.001715412815,0.001472778173,0.0003738330569,0.00184661123
5.8,0.002648192301,-0.0002596851176,0.002388507184,0.001548584382,6.838439104e-05,0.001616968773,0.001544775081,8.947342775e-05,0.001634248508,0.0004344003823,0.0005276563133,0.0009620566955,0.001583898602,9.034908567e-05,0.001674247687,0.0005425927938,5.150989659e-05,0.0005941026904,0.001425871818,-0.0001133768405,0.001312494977,0.001006501681,-0.0003679164711,0.0006385852099,0.001293855151,-0.0002213602946,0.001072494857,0.000737997578,-0.0001307144141,0.0006072831638,0.0008257574596,7.406133454e-05,0.0008998187941,0.0008299796343,-8.296913469e-05,0.0007470104996,0.001246284372,-0.0002648699051,0.0009814144668,0.0007799617706,-5.930744595e-05,0.0007206543246,0.001570050438,-0.0002011838986,0.001368866539,0.001323390106,-0.000201813018,0.001121577088,0.001482926157,-0.0003387751271,0.001144151029,0.001105404675,-0.0002212976867,0.0008841069886,0.001399609081,-0.0002326307076,0.001166978374,0.0004373120492,5.785488606e-06,0.0004430975378,0.0002847201988,0.0002600844399,0.0005448046387,-0.000416813916,0.0002624447267,-0.0001543691894,0.001639937975,5.051926762e-05,0.001690457243,0.000505922201,-2.450521118e-05,0.0004814169898,-0.0002356294331,0.000173495043,-6.213439008e-05,0.0003895961677,0.0001484009969,0.0005379971646,0.0006243495653,5.112209395e-05,0.0006754716592,0.0007599925307,5.276690333e-05,0.0008127594341,0.001155630183,-0.0001289092876,0.001026720896,0.001017138599,-0.0002430176583,0.0007741209407,0.001245471072,-8.50123604e-05,0.001160458712,0.00215502696,-0.0003006570457,0.001854369914,0.002061583094,0.0007777913014,0.002839374395,0.002583909244,-0.000212714533,0.002371194711,0.001993854381,-0.0003193505006,0.00167450388,0.001380780102,0.0003620359969,0.001742816099
5.9,0.002646755303,-0.0002631560132,0.00238359929,0.001532262658,6.053649372e-05,0.001592799152,0.001529736929,8.199297809e-05,0.001611729908,0.0004194875073,0.0005104111975,0.0009298987049,0.00159773387,8.393883036e-05,0.0016816727,0.0005317358639,4.569138081e-05,0.0005774272447,0.001423520211,-0.00011804664,0.001305473571,0.0009971776233,-0.000372768088,0.0006244095354,0.001290246808,-0.000229047099,0.001061199709,0.0007321197461,-0.0001339702553,0.0005981494909,0.0008336475425,6.355507814e-05,0.0008972026207,0.0007807219766,-7.425402266e-05,0.000706467954,0.001184357899,-0.0002655757833,0.000918782116,0.0007629691953,-6.104037481e-05,0.0007019288205,0.001536373983,-0.0002059367985,0.001330437184,0.001319390849,-0.0002058308274,0.001113560022,0.001501541058,-0.0003423191032,0.001159221955,0.001092867247,-0.0002280318689,0.0008648353782,0.001389092685,-0.0002378836397,0.001151209045,0.0004321618141,2.135411547e-06,0.0004342972256,0.0002863939898,0.0002475737222,0.000533967712,-0.000428001946,0.0002567165425,-0.0001712854035,0.001663990316,4.146921466e-05,0.001705459531,0.0005086969135,-2.498381367e-05,0.0004837130999,-0.0002791620635,0.0001745112805,-0.0001046507829,0.0003796483616,0.0001501144289,0.0005297627905,0.0005749639038,4.444725619e-05,0.00061941116,0.0007444246288,5.361799949e-05,0.0007980426283,0.001148765718,-0.0001384985829,0.001010267135,0.0009981872696,-0.0002514146523,0.0007467726174,0.001243243373,-9.530215423e-05,0.001147941219,0.002142000596,-0.0003107632202,0.001831237376,0.002019813131,0.0007431230875,0.002762936218,0.002514060996,-0.0002213087423,0.002292752254,0.001964228354,-0.0003314027371,0.001632825617,0.001288163446,0.0003477703261,0.001635933772
6.0,0.002643366993,-0.000266890794,0.002376476199,0.00151603016,5.279076813e-05,0.001568820928,0.001513525066,7.446877591e-05,0.001587993842,0.000404900679,0.0004931483393,0.0008980490183,0.001611233566,7.750017389e-05,0.00168873374,0.0005223103944,4.001827704e-05,0.0005623286715,0.001422115237,-0.0001226365088,0.001299478728,0.000988665461,-0.0003774498151,0.0006112156459,0.00128692059,-0.0002365097965,0.001050410794,0.0007264623065,-0.0001370884127,0.0005893738938,0.0008405260041,5.321822258e-05,0.0008937442267,0.0007329340299,-6.583113457e-05,0.0006671028954,0.001121455189,-0.0002657994054,0.0008556557838,0.0007457380952,-6.274933901e-05,0.0006829887562,0.001499958337,-0.0002107214187,0.001289236918,0.001312909091,-0.0002099347589,0.001102974333,0.001518171112,-0.0003454444573,0.001172726654,0.001078219518,-0.0002348903813,0.0008433291367,0.001377161085,-0.0002427889416,0.001134372144,0.0004273589217,-1.461738851e-06,0.0004258971829,0.0002867846596,0.000234743934,0.0005215285935,-0.0004391978504,0.0002508204374,-0.000188377413,0.001686558526,3.241463492e-05,0.001718973161,0.0005110398341,-2.554809121e-05,0.0004854917429,-0.0003213350856,0.0001754373474,-0.0001458977382,0.0003697679851,0.0001515758214,0.0005213438065,0.0005243211962,3.798851682e-05,0.0005623097131,0.0007266689859,5.44455245e-05,0.0007811145104,0.00113970348,-0.0001480767907,0.0009916266894,0.000977540553,-0.0002596978929,0.0007178426601,0.001238332073,-0.0001056424075,0.001132689666,0.002126781807,-0.0003208684954,0.001805913311,0.001971254881,0.0007087716042,0.002680026485,0.002441065151,-0.0002295874285,0.002211477723,0.001930962361,-0.0003405316087,0.001590430753,0.001195275423,0.0003310942609,0.001526369684
6.1,0.002638111244,-0.0002708971555,0.002367214088,0.001499968861,4.514694709e-05,0.001545115808,0.001496296883,6.691877471e-05,0.001563215657,0.0003907344729,0.0004759012506,0.0008666357234,0.001624424201,7.104197717e-05,0.001695466178,0.0005143638661,3.449957651e-05,0.0005488634426,0.001421724837,-0.00012713552,0.001294589317,0.000981015874,-0.0003819607575,0.0005990551165,0.001283923447,-0.0002437383641,0.001040185083,0.0007210498164,-0.0001400726945,0.000580977122,0.0008463824659,4.305218161e-05,0.0008894346475,0.0006868396734,-5.780921923e-05,0.0006290304542,0.001057893741,-0.0002656382001,0.0007922555404,0.0007283462866,-6.443677782e-05,0.0006639095088,0.001460978148,-0.0002155539861,0.001245424161,0.001303911335,-0.0002141398768,0.001089771459,0.001532713709,-0.0003481596581,0.001184554051,0.001061508567,-0.0002418577354,0.000819650832,0.001363895254,-0.0002473288008,0.001116566453,0.0004228847039,-5.001769627e-06,0.0004178829343,0.000285839695,0.0002216101905,0.0005074498855,-0.0004504085394,0.0002447657098,-0.0002056428296,0.001707559515,2.336275145e-05,0.001730922267,0.0005128981654,-2.62001788e-05,0.0004866979866,-0.0003620392309,0.0001762853042,-0.0001857539267,0.0003599820793,0.0001527899692,0.0005127720485,0.0004725466793,3.178763871e-05,0.000504334318,0.000706729106,5.524559258e-05,0.0007619746986,0.001128440368,-0.0001576390325,0.0009708013351,0.0009552315801,-0.0002678452407,0.0006873863394,0.001230698581,-0.0001160165198,0.001114682061,0.002109406009,-0.0003309608736,0.001778445136,0.001916287032,0.0006748093351,0.002591096367,0.002365341248,-0.00023760309,0.002127738158,0.001894093152,-0.0003467493411,0.001547343811,0.001102427954,0.0003121152656,0.00141454322
6.2,0.002631089256,-0.0002751780816,0.002355911174,0.001484166951,3.760696391e-05,0.001521773915,0.001478224009,5.936155152e-05,0.00153758556,0.0003770851308,0.0004587018311,0.0008357869618,0.001637338596,6.457285526e-05,0.001701911451,0.0005079374647,2.914426109e-05,0.0005370817258,0.001422409511,-0.0001315325486,0.001290876962,0.0009742761304,-0.0003863009544,0.000587975176,0.001281300264,-0.0002507242826,0.001030575981,0.0007159053079,-0.0001429283725,0.0005729769354,0.0008512176904,3.305751535e-05,0.0008842752058,0.0006426511894,-5.028883868e-05,0.0005923623508,0.000994007053,-0.0002652026571,0.0007288043959,0.000710873114,-6.610499329e-05,0.0006447681207,0.001419624559,-0.0002204526391,0.00119917192,0.001292383007,-0.0002184609684,0.001073922039,0.001545070573,-0.0003504762015,0.001194594372,0.001042794957,-0.0002489147653,0.0007938801913,0.001349374466,-0.0002514876072,0.001097886859,0.0004187204319,-8.48144042e-06,0.0004102389915,0.0002835187749,0.0002081903361,0.000491709111,-0.0004616369228,0.0002385622162,-0.0002230747066,0.001726924626,1.432166297e-05,0.001741246289,0.0005142304913,-2.694160286e-05,0.0004872888884,-0.0004011734703,0.0001770676869,-0.0002241057834,0.0003503168562,0.0001537626769,0.0005040795331,0.0004197846329,2.58762079e-05,0.0004456608408,0.0006846226666,5.60117914e-05,0.000740634458,0.001114984842,-0.0001671797621,0.0009478050802,0.0009313050059,-0.0002758367925,0.0006554682134,0.001220324432,-0.0001264108211,0.001093913611,0.002089923908,-0.0003410270908,0.001748896817,0.001855377133,0.0006413030151,0.002496680148,0.002287333116,-0.0002454076872,0.002041925429,0.001853699423,-0.0003501303806,0.001503569043,0.001009901029,0.0002909892085,0.001300890238
6.3,0.002622420728,-0.0002797315695,0.002342689158,0.001468719929,3.017500819e-05,0.001498894937,0.001459491453,5.181630275e-05,0.001511307756,0.0003640509129,0.0004415802945,0.0008056312073,0.001650016342,5.810113717e-05,0.001708117479,0.0005030665117,2.396122092e-05,0.0005270277326,0.001424222616,-0.0001358164266,0.001288406189,0.0009684904494,-0.0003904713835,0.0005780190659,0.001279093854,-0.0002574606583,0.001021633195,0.0007110506994,-0.00014566212,0.0005653885794,0.00085504462,2.323425884e-05,0.0008782788789,0.0006005678715,-4.335971681e-05,0.0005572081547,0.0009301392706,-0.0002646125971,0.0006655266735,0.0006933990145,-6.775612702e-05,0.0006256428875,0.001376104248,-0.0002254368512,0.001150667397,0.001278330162,-0.0002229115139,0.001055418648,0.001555150462,-0.0003524079329,0.001202742529,0.001022153569,-0.0002560387296,0.0007661148395,0.001333677432,-0.0002552524456,0.001078424986,0.0004148479356,-1.189844787e-05,0.0004029494878,0.0002797956696,0.0001945051115,0.0004743007811,-0.0004728810773,0.0002322204802,-0.0002406605972,0.001744600151,5.300275464e-06,0.001749900426,0.0005150070513,-2.777325009e-05,0.0004872338012,-0.0004386441255,0.0001777968887,-0.0002608472368,0.0003407980438,0.0001545008178,0.0004952988615,0.0003661998676,2.02750963e-05,0.0003864749639,0.0006603825597,5.673568456e-05,0.0007171182442,0.001099357371,-0.0001766923817,0.0009226649893,0.0009058177436,-0.0002836554333,0.0006221623102,0.001207212942,-0.0001368144318,0.00107039851,0.002068403834,-0.0003510533915,0.001717350443,0.001789066135,0.000608324596,0.002397390731,0.002207511321,-0.000253057347,0.001954453974,0.001809905612,-0.0003508082519,0.00145909736,0.0009179461082,0.0002679179875,0.001185864096
6.4,0.002612242809,-0.0002845506295,0.002327692179,0.001453729347,2.28573218e-05,0.001476586669,0.001440295232,4.430280011e-05,0.001484598032,0.0003517312509,0.000424565231,0.0007762964819,0.001662502616,5.163488339e-05,0.0017141375,0.0004997798864,1.895915076e-05,0.0005187390372,0.001427209215,-0.0001399761541,0.001287233061,0.0009636992398,-0.0003944739804,0.0005692252593,0.00127734401,-0.0002639423442,0.001013401665,0.0007065065314,-0.0001482819781,0.0005582245533,0.0008578883302,1.358218411e-05,0.0008714705143,0.0005607722009,-3.709788604e-05,0.0005236743149,0.0008666371092,-0.0002639922288,0.0006026448804,0.0006760040416,-6.939214976e-05,0.0006066118919,0.001330637688,-0.0002305267448,0.001100110943,0.001261779298,-0.0002275025644,0.001034276733,0.00156287047,-0.0003539705355,0.001208899934,0.0009996731369,-0.0002632035408,0.0007364695961,0.001316882584,-0.00025861374,0.001058268844,0.0004112493591,-1.525142468e-05,0.0003959979345,0.0002746591886,0.000180578159,0.0004552373475,-0.000484134038,0.0002257517452,-0.0002583822928,0.001760546855,-3.691781711e-06,0.001756855074,0.000515209141,-2.869533637e-05,0.0004865138046,-0.0004743646122,0.0001784846002,-0.000295880012,0.0003314507899,0.0001550124805,0.0004864632704,0.0003119780681,1.499385586e-05,0.0003269719239,0.0006340571643,5.740727023e-05,0.0006914644346,0.001081589633,-0.0001861689888,0.0008954206445,0.0008788384958,-0.0002912871044,0.0005875513914,0.001191389284,-0.0001472190403,0.001044170244,0.002044931509,-0.0003610260854,0.001683905424,0.001717956204,0.0005759550767,0.002293911281,0.002126373454,-0.0002606160912,0.001865757362,0.001762884531,-0.0003489730408,0.00141391149,0.0008267894133,0.0002431455616,0.001069934975
6.5,0.002600707341,-0.0002896235143,0.002311083827,0.001439300213,1.566195905e-05,0.001454962172,0.001420839193,3.684131721e-05,0.001457680511,0.0003402252708,0.0004076836925,0.0007479089633,0.001674846232,4.518197423e-05,0.001720028206,0.0004980990153,1.414641064e-05,0.0005122454259,0.001431404266,-0.0001440011498,0.001287403116,0.0009599379177,-0.0003983116924,0.0005616262253,0.001276086442,-0.0002701659579,0.001005920484,0.0007022915408,-0.0001507972983,0.0005514942425,0.0008597854647,4.101040801e-06,0.0008638865055,0.0005234256407,-3.156310859e-05,0.0004918625321,0.0008038409267,-0.000263465091,0.0005403758357,0.0006587661878,-7.10147821e-05,0.0005877514057,0.001283456894,-0.0002357423464,0.001047714548,0.001242775971,-0.0002322417578,0.001010534213,0.001568156778,-0.0003551813715,0.001212975407,0.0009754549829,-0.0002703801884,0.0007050747946,0.001299067684,-0.0002615657859,0.001037501898,0.0004079067429,-1.853983423e-05,0.0003893669087,0.0002681135662,0.0001664359488,0.000434549515,-0.0004953838557,0.0002191680917,-0.000276215764,0.001774739741,-1.264418177e-05,0.00176209556,0.0005148287287,-2.970736587e-05,0.0004851213629,-0.0005082554813,0.0001791411233,-0.000329114358,0.000322299434,0.0001553071022,0.0004776065362,0.0002573247896,1.003026287e-05,0.0002673550524,0.0006057103099,5.801508453e-05,0.0006637253945,0.001061723721,-0.0001956002545,0.0008661234663,0.0008504469648,-0.000298720738,0.0005517262268,0.001172899832,-0.0001576185526,0.001015281279,0.002019608736,-0.0003709318168,0.001648676919,0.001642703785,0.000544280795,0.00218698458,0.002044441894,-0.0002681575912,0.001776284303,0.001712857327,-0.0003448674799,0.001367989847,0.0007366359403,0.0002169523574,0.0009535882977
6.6,0.002587977728,-0.0002949340839,0.002293043644,0.001425538813,8.598690961e-06,0.001434137504,0.00140133214,2.945255078e-05,0.001430784691,0.0003296305918,0.0003909611868,0.0007205917786,0.001687098272,3.875024638e-05,0.001725848519,0.0004980372973,9.530900499e-06,0.0005075681978,0.001436831447,-0.0001478814767,0.00128894997,0.0009572363209,-0.0004019885287,0.0005552477922,0.001275352608,-0.000276129726,0.0009992228822,0.0006984227567,-0.0001532185938,0.0005452041629,0.0008607839367,-5.209141863e-06,0.0008555747949,0.000488666315,-2.679693511e-05,0.0004618693799,0.0007420771933,-0.0002631499286,0.0004789272647,0.0006417605154,-7.262525166e-05,0.0005691352638,0.001234803087,-0.000241102737,0.0009937003501,0.001221383445,-0.0002371326395,0.0009842508058,0.001570946102,-0.0003560597124,0.00121488639,0.0009496119128,-0.0002775373874,0.0006720745254,0.001280309464,-0.0002641070551,0.001016202409,0.000404802334,-2.176371316e-05,0.0003830386209,0.0002601789592,0.0001521076679,0.0004122866271,-0.0005066133803,0.0002124826255,-0.0002941307548,0.00178716916,-2.154587595e-05,0.001765623284,0.0005138693088,-3.080813872e-05,0.00048306117,-0.0005402443337,0.0001797744544,-0.0003604698792,0.0003133674944,0.0001553954976,0.000468762992,0.0002024635025,5.370262285e-06,0.0002078337647,0.0005754213995,5.854589733e-05,0.0006339672968,0.001039812633,-0.0002049754719,0.0008348371613,0.0008207337358,-0.000305947897,0.0005147858388,0.001151811831,-0.0001680085224,0.0009838033089,0.001992553012,-0.0003807577374,0.001611795274,0.001564015983,0.0005133868246,0.002077402808,0.001962259898,-0.0002757645111,0.001686495387,0.001660090388,-0.0003387806017,0.001321309786,0.0006476749341,0.0001896484077,0.0008373233418
6.7,0.00257422704,-0.0003004621278,0.002273764913,0.001412552624,1.679106489e-06,0.001414231731,0.001381986228,2.215757485e-05,0.001404143802,0.0003200431992,0.0003744215713,0.0006944647704,0.001699312438,3.234764334e-05,0.001731660082,0.0004996006757,5.119990821e-06,0.0005047206665,0.001443503825,-0.000151607991,0.001291895834,0.0009556194744,-0.0004055095661,0.0005501099083,0.001275171041,-0.0002818332322,0.0009933378084,0.0006949165853,-0.0001555573245,0.0005393592608,0.0008609434767,-1.43476948e-05,0.0008465957819,0.0004566094893,-2.282137531e-05,0.000433788114,0.0006816536286,-0.0002631574975,0.0004184961311,0.000625059672,-7.422391326e-05,0.0005508357588,0.001184924718,-0.0002466251684,0.0009382995499,0.001197682511,-0.0002421742427,0.0009555082687,0.0015711888,-0.0003566272221,0.001214561578,0.0009222681088,-0.0002846423497,0.0006376257591,0.00126068421,-0.0002662403289,0.0009944438814,0.000401920209,-2.492336848e-05,0.0003769968405,0.0002508926464,0.0001376250394,0.0003885176859,-0.0005177993866,0.0002057096147,-0.0003120897719,0.001797843529,-3.038507968e-05,0.00176745845,0.0005123481994,-3.199586692e-05,0.0004803523325,-0.0005702653011,0.000180389258,-0.0003898760431,0.0003046781236,0.0001552897725,0.0004599678961,0.000147633319,9.884971717e-07,0.0001486218161,0.0005432860687,5.898420342e-05,0.0006022702721,0.001015922584,-0.0002142828026,0.000801639781,0.0007898013213,-0.0003129622536,0.0004768390677,0.00112821407,-0.0001783853403,0.00094982873,0.001963899056,-0.0003904916757,0.00157340738,0.001482646776,0.0004833527886,0.001965999564,0.001880387785,-0.0002835258121,0.001596861972,0.001604891477,-0.0003310403408,0.001273851136,0.0005600868247,0.0001615658087,0.0007216526334
6.8,0.002559638287,-0.0003061834819,0.002253454805,0.001400452579,-5.083199758e-06,0.001395369379,0.001363016785,1.497781252e-05,0.001377994598,0.0003115585027,0.0003580869325,0.0006696454352,0.001711547166,2.598232763e-05,0.001737529494,0.0005027893754,9.204834561e-07,0.0005037098589,0.001451426492,-0.0001551724153,0.001296254076,0.0009551095733,-0.0004088809253,0.000546228648,0.001275569835,-0.0002872772419,0.0009882925932,0.0006917907018,-0.0001578257011,0.0005339650007,0.0008603369333,-2.331300758e-05,0.0008370239257,0.0004273501238,-1.963820124e-05,0.0004077119226,0.0006228565883,-0.0002635874737,0.0003592691146,0.0006087354484,-7.580990192e-05,0.0005329255464,0.001134076119,-0.0002523243156,0.0008817518037,0.001171772739,-0.0002473608075,0.0009244119314,0.001568853588,-0.0003569084783,0.00121194511,0.0008935601759,-0.0002916615077,0.0006018986682,0.001240269688,-0.0002679727475,0.0009722969406,0.0003992488752,-2.801916646e-05,0.0003712297087,0.0002403108674,0.0001230220596,0.000363332927,-0.0005289112239,0.00019886448,-0.0003300467439,0.001806792597,-3.914933362e-05,0.001767643264,0.0005102993307,-3.326838474e-05,0.000477030946,-0.000598258066,0.0001809860247,-0.0004172720413,0.0002962550653,0.0001550031509,0.0004512582163,9.30865679e-05,-3.150396958e-06,8.993617094e-05,0.0005094174235,5.931180888e-05,0.0005687292324,0.0009901362666,-0.0002235096985,0.0007666265681,0.0007577658913,-0.0003197590847,0.0004380068066,0.001102218191,-0.0001887452812,0.0009134729102,0.001933801454,-0.0004001221677,0.001533679286,0.001399390567,0.0004542524177,0.001853642985,0.001799400036,-0.0002915327567,0.001507867279,0.001547608464,-0.0003220073798,0.001225601084,0.0004740508696,0.0001330510761,0.0006071019457
