Time,S1D1HbO,S1D1HbR,S1D1HbT,S2D2HbO,S2D2HbR,S2D2HbT,S3D3HbO,S3D3HbR,S3D3HbT,S4D4HbO,S4D4HbR,S4D4HbT,S5D5HbO,S5D5HbR,S5D5HbT,S6D6HbO,S6D6HbR,S6D6HbT,S7D7HbO,S7D7HbR,S7D7HbT,S8D8HbO,S8D8HbR,S8D8HbT,S9D9HbO,S9D9HbR,S9D9HbT,S10D10HbO,S10D10HbR,S10D10HbT,S11D11HbO,S11D11HbR,S11D11HbT,S12D12HbO,S12D12HbR,S12D12HbT,S13D13HbO,S13D13HbR,S13D13HbT,S14D14HbO,S14D14HbR,S14D14HbT,S15D15HbO,S15D15HbR,S15D15HbT,S16D16HbO,S16D16HbR,S16D16HbT,S17D17HbO,S17D17HbR,S17D17HbT,S18D18HbO,S18D18HbR,S18D18HbT,S19D19HbO,S19D19HbR,S19D19HbT,S20D20HbO,S20D20HbR,S20D20HbT,S21D21HbO,S21D21HbR,S21D21HbT,S22D22HbO,S22D22HbR,S22D22HbT,S23D23HbO,S23D23HbR,S23D23HbT,S24D24HbO,S24D24HbR,S24D24HbT,S25D25HbO,S25D25HbR,S25D25HbT,S26D26HbO,S26D26HbR,S26D26HbT,S27D27HbO,S27D27HbR,S27D27HbT,S28D28HbO,S28D28HbR,S28D28HbT,S29D29HbO,S29D29HbR,S29D29HbT,S30D30HbO,S30D30HbR,S30D30HbT,S31D31HbO,S31D31HbR,S31D31HbT,S32D32HbO,S32D32HbR,S32D32HbT,S33D33HbO,S33D33HbR,S33D33HbT,S34D34HbO,S34D34HbR,S34D34HbT,S35D35HbO,S35D35HbR,S35D35HbT,S36D36HbO,S36D36HbR,S36D36HbT,
-10,1.106529008e-03,-3.533500549e-04,7.531789527e-04,6.550637761e-04,-2.188626582e-04,4.362011179e-04,2.277010182e-03,-4.654417717e-04,1.811568410e-03,2.109469152e-03,-2.660576805e-04,1.843411471e-03,2.641563487e-03,-7.337222437e-04,1.907841244e-03,2.682598229e-03,-6.290903354e-04,2.053507894e-03,1.986253413e-03,-4.897355277e-04,1.496517885e-03,1.874043562e-03,-4.191494317e-04,1.454894130e-03,1.878389738e-03,-3.940927295e-04,1.484297009e-03,1.897049307e-03,-7.499100579e-04,1.147139249e-03,2.308281788e-03,-1.084739732e-03,1.223542056e-03,9.656906555e-04,-2.718227186e-04,6.938679368e-04,1.461997236e-03,-1.402333698e-05,1.447973899e-03,3.504710626e-04,-2.392998904e-04,1.111711722e-04,7.438829947e-04,-2.775440958e-04,4.663388989e-04,1.010495317e-03,-4.608776148e-04,5.496177021e-04,1.219346217e-03,-2.095043695e-04,1.009841848e-03,1.631560695e-03,-4.500416287e-04,1.181519066e-03,1.729360292e-03,-2.065200150e-04,1.522840277e-03,2.203153056e-03,-5.342860210e-04,1.668867035e-03,1.693586312e-03,-7.094426167e-04,9.841436949e-04,4.052967377e-04,-1.805733474e-04,2.247233903e-04,2.716171126e-03,-4.562962080e-04,2.259874918e-03,-1.590909109e-04,-2.222846272e-04,-3.813755381e-04,1.006190733e-03,-5.004322874e-04,5.057584460e-04,1.264524171e-03,-1.823704978e-04,1.082153673e-03,-2.060858499e-04,1.632723054e-04,-4.281354445e-05,-4.720333603e-04,-1.167945456e-04,-5.888279059e-04,9.990806019e-04,-4.616121734e-04,5.374684285e-04,2.005179413e-03,-1.063493980e-03,9.416854332e-04,9.703615775e-04,-1.205353611e-04,8.498262164e-04,9.497323854e-04,-1.226192127e-04,8.271131727e-04,2.672977844e-03,1.614142405e-04,2.834392084e-03,2.089688954e-03,-4.542995372e-05,2.044259000e-03,2.010123020e-03,-4.431228294e-04,1.567000191e-03,1.435530935e-03,-1.759831651e-04,1.259547770e-03
-9.9,1.107821332e-03,-3.537821547e-04,7.540391777e-04,7.132973187e-04,-2.143654172e-04,4.989319015e-04,2.309826075e-03,-4.696937438e-04,1.840132331e-03,2.175556272e-03,-2.663108243e-04,1.909245448e-03,2.733927061e-03,-7.358185500e-04,1.998108511e-03,2.739192191e-03,-6.278079071e-04,2.111384284e-03,2.045225231e-03,-4.874297742e-04,1.557795457e-03,1.947459730e-03,-4.317393939e-04,1.515720336e-03,1.926446644e-03,-3.970759474e-04,1.529370697e-03,1.917889580e-03,-7.599243472e-04,1.157965233e-03,2.283811598e-03,-1.094627107e-03,1.189184490e-03,1.095013322e-03,-2.876958144e-04,8.073175078e-04,1.649466370e-03,-3.848963707e-05,1.610976733e-03,4.494601357e-04,-2.487177930e-04,2.007423427e-04,8.697337287e-04,-2.712778105e-04,5.984559182e-04,1.157841618e-03,-4.495254441e-04,7.083161742e-04,1.370510152e-03,-1.936906428e-04,1.176819509e-03,1.727311628e-03,-4.298217471e-04,1.297489881e-03,1.849073631e-03,-2.132883876e-04,1.635785244e-03,2.219991403e-03,-5.379106324e-04,1.682080770e-03,1.706840869e-03,-7.032585949e-04,1.003582274e-03,4.442106509e-04,-1.815920755e-04,2.626185754e-04,2.734531341e-03,-4.540036711e-04,2.280527670e-03,-1.624804804e-04,-2.262404715e-04,-3.887209519e-04,1.096477934e-03,-5.220188367e-04,5.744590975e-04,1.396298635e-03,-1.902205558e-04,1.206078079e-03,-5.739372467e-05,1.676426605e-04,1.102489358e-04,-2.946547125e-04,-1.115899096e-04,-4.062446221e-04,1.108078997e-03,-4.370308870e-04,6.710481104e-04,2.097149987e-03,-1.052657934e-03,1.044492053e-03,1.075038116e-03,-1.161062757e-04,9.589318403e-04,1.060825138e-03,-1.044521447e-04,9.563729930e-04,2.764105257e-03,1.892047574e-04,2.953310014e-03,2.201068084e-03,-7.967751015e-05,2.121390574e-03,2.134285614e-03,-4.372785954e-04,1.697007019e-03,1.532113775e-03,-1.678306140e-04,1.364283161e-03
-9.8,1.105847575e-03,-3.533737586e-04,7.524738164e-04,7.673543736e-04,-2.094204303e-04,5.579339432e-04,2.336225368e-03,-4.734101124e-04,1.862815256e-03,2.233589659e-03,-2.663428946e-04,1.967246764e-03,2.819086300e-03,-7.371296350e-04,2.081956665e-03,2.787963218e-03,-6.254600147e-04,2.162503203e-03,2.098502824e-03,-4.844342620e-04,1.614068562e-03,2.013668202e-03,-4.439789077e-04,1.569689294e-03,1.968589115e-03,-3.999411862e-04,1.568647929e-03,1.931649067e-03,-7.691424380e-04,1.162506629e-03,2.253757958e-03,-1.103476977e-03,1.150280981e-03,1.222161084e-03,-3.035294258e-04,9.186316585e-04,1.830205260e-03,-6.321412353e-05,1.766991136e-03,5.461665567e-04,-2.572259674e-04,2.889405893e-04,9.885093916e-04,-2.621533590e-04,7.263560327e-04,1.302256679e-03,-4.369202447e-04,8.653364345e-04,1.516630316e-03,-1.774705459e-04,1.339159770e-03,1.818157710e-03,-4.097948236e-04,1.408362887e-03,1.962475631e-03,-2.206640609e-04,1.741811570e-03,2.228831225e-03,-5.409637959e-04,1.687867429e-03,1.714279281e-03,-6.964263820e-04,1.017852899e-03,4.794217780e-04,-1.824445174e-04,2.969772607e-04,2.748741231e-03,-4.511494925e-04,2.297591739e-03,-1.653009804e-04,-2.298679035e-04,-3.951688839e-04,1.180873242e-03,-5.427881316e-04,6.380851100e-04,1.522905265e-03,-1.984754252e-04,1.324429840e-03,8.613704492e-05,1.710262154e-04,2.571632603e-04,-1.180803498e-04,-1.067311810e-04,-2.248115308e-04,1.212952558e-03,-4.117999826e-04,8.011525755e-04,2.178751754e-03,-1.038117565e-03,1.140634189e-03,1.177273306e-03,-1.132136984e-04,1.064059608e-03,1.168325413e-03,-8.869992882e-05,1.079625484e-03,2.846564146e-03,2.145869437e-04,3.061151090e-03,2.304786815e-03,-1.146606696e-04,2.190126146e-03,2.249195257e-03,-4.307424476e-04,1.818452809e-03,1.625444064e-03,-1.635015917e-04,1.461942472e-03
-9.7,1.100826539e-03,-3.521472959e-04,7.486792435e-04,8.170915604e-04,-2.040608022e-04,6.130307582e-04,2.356339420e-03,-4.765655789e-04,1.879773841e-03,2.283403548e-03,-2.661404248e-04,2.017263123e-03,2.896792447e-03,-7.376297346e-04,2.159162712e-03,2.828657523e-03,-6.220567308e-04,2.206600793e-03,2.145866895e-03,-4.807607676e-04,1.665106127e-03,2.072300416e-03,-4.557955641e-04,1.616504852e-03,2.004727628e-03,-4.026540897e-04,1.602073539e-03,1.938308533e-03,-7.775016498e-04,1.160806883e-03,2.218575124e-03,-1.111236881e-03,1.107338243e-03,1.346662721e-03,-3.192486403e-04,1.027414080e-03,2.003123778e-03,-8.769173580e-05,1.915432042e-03,6.402707439e-04,-2.647767478e-04,3.754939961e-04,1.100019555e-03,-2.504236218e-04,8.495959329e-04,1.443275522e-03,-4.231296713e-04,1.020145850e-03,1.656966628e-03,-1.609273376e-04,1.496039291e-03,1.903757426e-03,-3.900513155e-04,1.513706110e-03,2.068877348e-03,-2.284965236e-04,1.840380824e-03,2.229645903e-03,-5.433890302e-04,1.686256873e-03,1.716243732e-03,-6.889386051e-04,1.027305127e-03,5.109542590e-04,-1.831102215e-04,3.278440375e-04,2.759067511e-03,-4.477113994e-04,2.311356111e-03,-1.673923327e-04,-2.331313269e-04,-4.005236596e-04,1.258952290e-03,-5.625968534e-04,6.963554361e-04,1.643726762e-03,-2.070331512e-04,1.436693610e-03,2.239025881e-04,1.734483134e-04,3.973509015e-04,5.607231127e-05,-1.015222557e-04,-4.544994446e-05,1.313327175e-03,-3.861284830e-04,9.271986915e-04,2.249632703e-03,-1.019933403e-03,1.229699299e-03,1.276639034e-03,-1.118707134e-04,1.164768321e-03,1.271802351e-03,-7.553190819e-05,1.196270443e-03,2.919797339e-03,2.375361319e-04,3.157333471e-03,2.399849171e-03,-1.498898735e-04,2.249959298e-03,2.354156737e-03,-4.234170679e-04,1.930739669e-03,1.715299768e-03,-1.634717987e-04,1.551827969e-03
-9.6,1.092990173e-03,-3.501303859e-04,7.428597872e-04,8.623869707e-04,-1.983239665e-04,6.640630042e-04,2.370319632e-03,-4.791365545e-04,1.891183078e-03,2.324868890e-03,-2.656890559e-04,2.059179834e-03,2.966823916e-03,-7.372997419e-04,2.229524174e-03,2.861054828e-03,-6.176174727e-04,2.243437355e-03,2.187119086e-03,-4.764289900e-04,1.710690096e-03,2.123018895e-03,-4.671198701e-04,1.655899025e-03,2.034801431e-03,-4.051846429e-04,1.629616788e-03,1.937888250e-03,-7.849435978e-04,1.152944652e-03,2.178750185e-03,-1.117859139e-03,1.060891047e-03,1.468021810e-03,-3.347715902e-04,1.133250219e-03,2.167150571e-03,-1.114258597e-04,2.055724712e-03,7.314443535e-04,-2.713267326e-04,4.601176209e-04,1.204116499e-03,-2.363987403e-04,9.677177585e-04,1.580406870e-03,-4.082305986e-04,1.172176272e-03,1.790798667e-03,-1.441494465e-04,1.646649220e-03,1.983773751e-03,-3.706870804e-04,1.613086671e-03,2.167592142e-03,-2.366123564e-04,1.930979785e-03,2.222454584e-03,-5.451321176e-04,1.677322467e-03,1.713107423e-03,-6.807908736e-04,1.032316550e-03,5.388540093e-04,-1.835705853e-04,3.552834240e-04,2.765780835e-03,-4.436701713e-04,2.322110664e-03,-1.685969600e-04,-2.359967007e-04,-4.045936608e-04,1.330319769e-03,-5.813067938e-04,7.490129751e-04,1.758150155e-03,-2.157833507e-04,1.542366804e-03,3.552858784e-04,1.749606508e-04,5.302465292e-04,2.261588813e-04,-9.528360002e-05,1.308752812e-04,1.408847512e-03,-3.602466386e-04,1.048600873e-03,2.309513661e-03,-9.982079510e-04,1.311305710e-03,1.372684064e-03,-1.120646893e-04,1.260619374e-03,1.370805851e-03,-6.509302943e-05,1.305712822e-03,2.983250762e-03,2.580363324e-04,3.241287095e-03,2.485297674e-03,-1.848587446e-04,2.300438930e-03,2.448541823e-03,-4.152603229e-04,2.033281500e-03,1.801439534e-03,-1.681361214e-04,1.633303413e-03
-9.5,1.082581414e-03,-3.473554089e-04,7.352260053e-04,9.031411019e-04,-1.922511624e-04,7.108899395e-04,2.378336111e-03,-4.811013195e-04,1.897234791e-03,2.357893733e-03,-2.649736850e-04,2.092920048e-03,3.028985742e-03,-7.361270090e-04,2.292858733e-03,2.884970010e-03,-6.121703459e-04,2.272799664e-03,2.222082566e-03,-4.714658023e-04,1.750616764e-03,2.165520933e-03,-4.778850655e-04,1.687635868e-03,2.058777892e-03,-4.075071707e-04,1.651270722e-03,1.930448110e-03,-7.914140232e-04,1.139034087e-03,2.134798883e-03,-1.123300344e-03,1.011498539e-03,1.585718263e-03,-3.500079677e-04,1.235710295e-03,2.321247515e-03,-1.339426563e-04,2.187304858e-03,8.193533683e-04,-2.768369878e-04,5.425163805e-04,1.300691517e-03,-2.204380027e-04,1.080253514e-03,1.713134603e-03,-3.923077230e-04,1.320826880e-03,1.917421501e-03,-1.272196413e-04,1.790201860e-03,2.057875400e-03,-3.518017544e-04,1.706073646e-03,2.257943854e-03,-2.448174960e-04,2.013126358e-03,2.207322500e-03,-5.461413873e-04,1.661181113e-03,1.705271430e-03,-6.719817178e-04,1.033289712e-03,5.631886918e-04,-1.838087873e-04,3.793799045e-04,2.769153911e-03,-4.390099185e-04,2.330143992e-03,-1.687609577e-04,-2.384317986e-04,-4.071927563e-04,1.394613069e-03,-5.987853720e-04,7.958276970e-04,1.865570403e-03,-2.246082226e-04,1.640962180e-03,4.796622363e-04,1.756410605e-04,6.553032968e-04,3.905547715e-04,-8.738315504e-05,3.031716165e-04,1.499176159e-03,-3.344011938e-04,1.164774965e-03,2.358184447e-03,-9.730781215e-04,1.385106326e-03,1.464937955e-03,-1.137594508e-04,1.351178504e-03,1.464875511e-03,-5.750356824e-05,1.407371943e-03,3.036382007e-03,2.760766404e-04,3.312458648e-03,2.560227794e-03,-2.190500504e-04,2.341177743e-03,2.531810777e-03,-4.062930039e-04,2.125517773e-03,1.883593414e-03,-1.777870030e-04,1.705806411e-03
-9.4,1.069852803e-03,-3.438590273e-04,7.259937761e-04,9.392782627e-04,-1.858868074e-04,7.533914554e-04,2.380577536e-03,-4.824402219e-04,1.898137314e-03,2.382424577e-03,-2.639787096e-04,2.118445867e-03,3.083109886e-03,-7.341051025e-04,2.349004783e-03,2.900255505e-03,-6.057514188e-04,2.294504086e-03,2.250603346e-03,-4.659044031e-04,1.784698943e-03,2.199542999e-03,-4.880268607e-04,1.711516138e-03,2.076652330e-03,-4.096002979e-04,1.667052033e-03,1.916088038e-03,-7.968627459e-04,1.119225292e-03,2.087261679e-03,-1.127520973e-03,9.597407057e-04,1.699211598e-03,-3.648575589e-04,1.334354039e-03,2.464425658e-03,-1.548037672e-04,2.309621891e-03,9.036621665e-04,-2.812733236e-04,6.223888430e-04,1.389672759e-03,-2.029417550e-04,1.186731004e-03,1.840922622e-03,-3.754529020e-04,1.465469720e-03,2.036143844e-03,-1.102054087e-04,1.925938435e-03,2.125738024e-03,-3.334949026e-04,1.792243121e-03,2.339278257e-03,-2.529011005e-04,2.086377156e-03,2.184361399e-03,-5.463680112e-04,1.637993387e-03,1.693161588e-03,-6.625125375e-04,1.030649051e-03,5.840478446e-04,-1.838097523e-04,4.002380923e-04,2.769459465e-03,-4.337183703e-04,2.335741095e-03,-1.677351198e-04,-2.404065011e-04,-4.081416209e-04,1.451506821e-03,-6.149060661e-04,8.366007545e-04,1.965395889e-03,-2.333841293e-04,1.732011760e-03,5.964086613e-04,1.755918324e-04,7.720004937e-04,5.476970574e-04,-7.725929140e-05,4.704377660e-04,1.583991741e-03,-3.088487897e-04,1.275142952e-03,2.395499304e-03,-9.447074434e-04,1.450791861e-03,1.552916226e-03,-1.168973578e-04,1.436018868e-03,1.553548450e-03,-5.285624924e-05,1.500692201e-03,3.078673320e-03,2.916473250e-04,3.370320645e-03,2.623804955e-03,-2.519448582e-04,2.371860097e-03,2.603531475e-03,-3.966000108e-04,2.206931464e-03,1.961456500e-03,-1.925948453e-04,1.768861655e-03
-9.3,1.055064921e-03,-3.396817107e-04,7.153832101e-04,9.707477463e-04,-1.792777902e-04,7.914699561e-04,2.377250838e-03,-4.831359605e-04,1.894114878e-03,2.398447710e-03,-2.626883623e-04,2.135759348e-03,3.129055478e-03,-7.312335353e-04,2.397821942e-03,2.906803520e-03,-5.984039995e-04,2.308399521e-03,2.272551652e-03,-4.597834817e-04,1.812768171e-03,2.224865079e-03,-4.974833451e-04,1.727381734e-03,2.088447591e-03,-4.114468104e-04,1.677000781e-03,1.894947856e-03,-8.012436780e-04,1.093704178e-03,2.036698977e-03,-1.130485062e-03,9.062139150e-04,1.807944427e-03,-3.792088402e-04,1.428735587e-03,2.595759717e-03,-1.736161033e-04,2.422143614e-03,9.840370793e-04,-2.846066717e-04,6.994304077e-04,1.471022211e-03,-1.843430101e-04,1.286679201e-03,1.963221227e-03,-3.577649730e-04,1.605456254e-03,2.146287309e-03,-9.315061072e-05,2.053136698e-03,2.187044998e-03,-3.158610395e-04,1.871183959e-03,2.410976063e-03,-2.606412325e-04,2.150334831e-03,2.153729272e-03,-5.457662793e-04,1.607962993e-03,1.677224068e-03,-6.523874537e-04,1.024836614e-03,6.015421637e-04,-1.835600970e-04,4.179820667e-04,2.766966691e-03,-4.277871824e-04,2.339179508e-03,-1.653765653e-04,-2.418930919e-04,-4.072696572e-04,1.500717423e-03,-6.295489397e-04,8.711684837e-04,2.057054889e-03,-2.419836233e-04,1.815071266e-03,7.049154661e-04,1.749364556e-04,8.798519218e-04,6.961196640e-04,-6.443748537e-05,6.316821786e-04,1.662985972e-03,-2.838485559e-04,1.379137417e-03,2.421372786e-03,-9.132794503e-04,1.508093336e-03,1.636125549e-03,-1.214010744e-04,1.514724475e-03,1.636365373e-03,-5.121173385e-05,1.585153640e-03,3.109648972e-03,3.047344992e-04,3.414383471e-03,2.675284012e-03,-2.830355026e-04,2.392248509e-03,2.663389974e-03,-3.863226737e-04,2.277067301e-03,2.034684925e-03,-2.125920412e-04,1.822092884e-03
-9.2,1.038483918e-03,-3.348673416e-04,7.036165768e-04,9.975241448e-04,-1.724727585e-04,8.250513863e-04,2.368579634e-03,-4.831739574e-04,1.885405677e-03,2.405989705e-03,-2.610871252e-04,2.144902580e-03,3.166708262e-03,-7.275174824e-04,2.439190779e-03,2.904547228e-03,-5.901779147e-04,2.314369313e-03,2.287822680e-03,-4.531463972e-04,1.834676283e-03,2.241314148e-03,-5.061950985e-04,1.735119049e-03,2.094212863e-03,-4.130333511e-04,1.681179512e-03,1.867206078e-03,-8.045147712e-04,1.062691307e-03,1.983684983e-03,-1.132159870e-03,8.515251130e-04,1.911345158e-03,-3.929381008e-04,1.518407057e-03,2.714398186e-03,-1.900369558e-04,2.524361231e-03,1.060148719e-03,-2.868135093e-04,7.733352100e-04,1.544731232e-03,-1.650985544e-04,1.379632678e-03,2.079473365e-03,-3.393498166e-04,1.740123549e-03,2.247187906e-03,-7.607080201e-05,2.171117104e-03,2.241487552e-03,-2.989846933e-04,1.942502859e-03,2.472464878e-03,-2.678114673e-04,2.204653411e-03,2.115629051e-03,-5.442939119e-04,1.571335139e-03,1.657919266e-03,-6.416130928e-04,1.016306173e-03,6.158015987e-04,-1.830480378e-04,4.327535609e-04,2.761936105e-03,-4.212122624e-04,2.340723843e-03,-1.615511208e-04,-2.428665614e-04,-4.044176822e-04,1.542006610e-03,-6.426013528e-04,8.994052571e-04,2.140002029e-03,-2.502778046e-04,1.889724224e-03,8.045983434e-04,1.738151721e-04,9.784135155e-04,8.344819405e-04,-4.854321236e-05,7.859387281e-04,1.735860031e-03,-2.596548375e-04,1.476205193e-03,2.435776230e-03,-8.789929903e-04,1.556783240e-03,1.714067906e-03,-1.271748181e-04,1.586893088e-03,1.712874969e-03,-5.259439880e-05,1.660280570e-03,3.128893524e-03,3.153145784e-04,3.444208103e-03,2.714030271e-03,-3.118429550e-04,2.402187316e-03,2.711192171e-03,-3.756442324e-04,2.335547939e-03,2.102894241e-03,-2.376635156e-04,1.865230725e-03
-9.1,1.020378110e-03,-3.294629090e-04,6.909152014e-04,1.019606687e-03,-1.655214620e-04,8.540852252e-04,2.354801381e-03,-4.825427145e-04,1.872258666e-03,2.405116869e-03,-2.591601692e-04,2.145956700e-03,3.195979189e-03,-7.229674386e-04,2.473011751e-03,2.893460766e-03,-5.811287472e-04,2.312332019e-03,2.296336584e-03,-4.460403076e-04,1.850296276e-03,2.248766394e-03,-5.141053715e-04,1.734661022e-03,2.094021727e-03,-4.143499656e-04,1.679671761e-03,1.833077709e-03,-8.066378612e-04,1.026439848e-03,1.928800504e-03,-1.132515494e-03,7.962850098e-04,2.008830246e-03,-4.059097705e-04,1.602920476e-03,2.819568851e-03,-2.037737330e-04,2.615795118e-03,1.131673417e-03,-2.878762504e-04,8.437971666e-04,1.610816055e-03,-1.456798269e-04,1.465136228e-03,2.189120174e-03,-3.203202694e-04,1.868799904e-03,2.338200963e-03,-5.895368897e-05,2.279247274e-03,2.288764430e-03,-2.829362831e-04,2.005828146e-03,2.523228454e-03,-2.741871533e-04,2.249041301e-03,2.070306535e-03,-5.419125424e-04,1.528393992e-03,1.635714717e-03,-6.301984543e-04,1.005516263e-03,6.269726687e-04,-1.822633228e-04,4.447093459e-04,2.754613822e-03,-4.139940676e-04,2.340619754e-03,-1.561360523e-04,-2.433049338e-04,-3.994409861e-04,1.575183707e-03,-6.539587767e-04,9.212249306e-04,2.213724432e-03,-2.581389851e-04,1.955585447e-03,8.949097144e-04,1.723798756e-04,1.067289590e-03,9.615896345e-04,-2.931020882e-05,9.322794257e-04,1.802320854e-03,-2.365103077e-04,1.565810547e-03,2.438734235e-03,-8.420591015e-04,1.596675133e-03,1.786243505e-03,-1.341051219e-04,1.652138383e-03,1.782637046e-03,-5.698965414e-05,1.725647392e-03,3.136066481e-03,3.233506449e-04,3.459417126e-03,2.739540517e-03,-3.379379011e-04,2.401602615e-03,2.746859741e-03,-3.647726251e-04,2.382087116e-03,2.165659666e-03,-2.675450185e-04,1.898114648e-03
-9,1.001014170e-03,-3.235182097e-04,6.774959599e-04,1.037017970e-03,-1.584741338e-04,8.785438361e-04,2.336164081e-03,-4.812340391e-04,1.854930042e-03,2.395934124e-03,-2.568937752e-04,2.139040349e-03,3.216802752e-03,-7.175987826e-04,2.499203970e-03,2.873558584e-03,-5.713169643e-04,2.302241620e-03,2.298038110e-03,-4.385152225e-04,1.859522888e-03,2.247148575e-03,-5.211602550e-04,1.725988320e-03,2.087969991e-03,-4.153895895e-04,1.672580401e-03,1.792811698e-03,-8.075784949e-04,9.852332026e-04,1.872625673e-03,-1.131524513e-03,7.411011608e-04,2.099807215e-03,-4.179781357e-04,1.681829079e-03,2.910582896e-03,-2.145803787e-04,2.696002517e-03,1.198294901e-03,-2.877835580e-04,9.105113433e-04,1.669315173e-03,-1.265642286e-04,1.542750945e-03,2.291606348e-03,-3.007954438e-04,1.990810904e-03,2.418709111e-03,-4.176385627e-05,2.376945255e-03,2.328581761e-03,-2.677690432e-04,2.060812717e-03,2.562813559e-03,-2.795508218e-04,2.283262737e-03,2.018048243e-03,-5.385884167e-04,1.479459826e-03,1.611078277e-03,-6.181549512e-04,9.929233259e-04,6.352158522e-04,-1.811972289e-04,4.540186233e-04,2.745226725e-03,-4.061377904e-04,2.339088934e-03,-1.490224434e-04,-2.431895879e-04,-3.922120313e-04,1.600106905e-03,-6.635255010e-04,9.365814044e-04,2.277747590e-03,-2.654434092e-04,2.012304181e-03,9.753493461e-04,1.707884951e-04,1.146137841e-03,1.076407431e-03,-6.582010231e-06,1.069825421e-03,1.862078394e-03,-2.146395921e-04,1.647438802e-03,2.430321114e-03,-8.026985469e-04,1.627622567e-03,1.852153545e-03,-1.420615918e-04,1.710091953e-03,1.845225068e-03,-6.434263184e-05,1.780882436e-03,3.130910796e-03,3.287921469e-04,3.459702943e-03,2.751461457e-03,-3.609617134e-04,2.390499744e-03,2.770422604e-03,-3.539233431e-04,2.416499261e-03,2.222517919e-03,-3.018283497e-04,1.920689569e-03
-8.9,9.806537681e-04,-3.170854574e-04,6.635683107e-04,1.049802770e-03,-1.513808629e-04,8.984219073e-04,2.312923832e-03,-4.792431313e-04,1.833680700e-03,2.378584218e-03,-2.542757891e-04,2.124308429e-03,3.229135973e-03,-7.114312863e-04,2.517704686e-03,2.844895022e-03,-5.608068688e-04,2.284088153e-03,2.292896638e-03,-4.306230171e-04,1.862273621e-03,2.236439421e-03,-5.273089180e-04,1.709130504e-03,2.076174088e-03,-4.161475590e-04,1.660026529e-03,1.746688845e-03,-8.073058347e-04,9.393830105e-04,1.815733720e-03,-1.129161731e-03,6.865719890e-04,2.183679784e-03,-4.289900687e-04,1.754689715e-03,2.986841646e-03,-2.222543119e-04,2.764587334e-03,1.259707647e-03,-2.865305793e-04,9.731770678e-04,1.720290114e-03,-1.082273783e-04,1.612062735e-03,2.386386471e-03,-2.808994830e-04,2.105486988e-03,2.488133351e-03,-2.445051044e-05,2.463682841e-03,2.360654350e-03,-2.535170573e-04,2.107137293e-03,2.590836223e-03,-2.836968191e-04,2.307139403e-03,1.959179873e-03,-5.342931713e-04,1.424886702e-03,1.584472877e-03,-6.054965190e-04,9.789763576e-04,6.407039703e-04,-1.798425655e-04,4.608614048e-04,2.733980048e-03,-3.976533674e-04,2.336326680e-03,-1.401164768e-04,-2.425055398e-04,-3.826220167e-04,1.616684311e-03,-6.712150945e-04,9.454692170e-04,2.331641336e-03,-2.720737352e-04,2.059567600e-03,1.045475118e-03,1.691986060e-04,1.214673724e-03,1.178064379e-03,1.969316302e-05,1.197757542e-03,1.914845155e-03,-1.942437440e-04,1.720601411e-03,2.410658212e-03,-7.611392168e-04,1.649518995e-03,1.911304682e-03,-1.508982256e-04,1.760406456e-03,1.900229222e-03,-7.455762164e-05,1.825671600e-03,3.113256324e-03,3.315778237e-04,3.444834148e-03,2.749602743e-03,-3.806424608e-04,2.368960282e-03,2.782008339e-03,-3.433029228e-04,2.438705417e-03,2.272972494e-03,-3.399731644e-04,1.932999330e-03
-8.8,9.595514876e-04,-3.102187924e-04,6.493326952e-04,1.058027691e-03,-1.442909746e-04,9.137367165e-04,2.285344297e-03,-4.765686216e-04,1.808775675e-03,2.353248120e-03,-2.512962010e-04,2.101951919e-03,3.232958866e-03,-7.044886692e-04,2.528470197e-03,2.807564920e-03,-5.496653961e-04,2.257899524e-03,2.280907287e-03,-4.224164737e-04,1.858490813e-03,2.216671914e-03,-5.325040694e-04,1.684167845e-03,2.058770623e-03,-4.166211569e-04,1.642149466e-03,1.695020673e-03,-8.057926487e-04,8.892280246e-04,1.758686412e-03,-1.125404049e-03,6.332823630e-04,2.259855990e-03,-4.387883358e-04,1.821067654e-03,3.047847735e-03,-2.266367715e-04,2.821210963e-03,1.315622663e-03,-2.841191303e-04,1.031503532e-03,1.763829396e-03,-9.113568803e-05,1.672693708e-03,2.472933397e-03,-2.607602113e-04,2.212173186e-03,2.545948058e-03,-6.957471047e-06,2.538990587e-03,2.384709909e-03,-2.401946598e-04,2.144515249e-03,2.606989121e-03,-2.864351882e-04,2.320553933e-03,1.894065750e-03,-5.290045036e-04,1.365061246e-03,1.556353390e-03,-5.922396026e-04,9.641137873e-04,6.436220085e-04,-1.781936113e-04,4.654283971e-04,2.721057810e-03,-3.885553395e-04,2.332502471e-03,-1.293392869e-04,-2.412417133e-04,-3.705810002e-04,1.624875740e-03,-6.769507349e-04,9.479250049e-04,2.375026765e-03,-2.779213670e-04,2.097105398e-03,1.104914718e-03,1.677602449e-04,1.272674963e-03,1.265855936e-03,4.947159599e-05,1.315327532e-03,1.960338897e-03,-1.754958880e-04,1.784843009e-03,2.379913129e-03,-7.176131378e-04,1.662299991e-03,1.963216478e-03,-1.604553500e-04,1.802761128e-03,1.947261005e-03,-8.749797482e-05,1.859763030e-03,3.083021611e-03,3.316403725e-04,3.414661984e-03,2.733943417e-03,-3.968041337e-04,2.337139283e-03,2.781829606e-03,-3.330937973e-04,2.448735808e-03,2.316505043e-03,-3.813257445e-04,1.935179298e-03
-8.7,9.379542223e-04,-3.029737620e-04,6.349804603e-04,1.061781943e-03,-1.372524983e-04,9.245294449e-04,2.253698082e-03,-4.732126517e-04,1.780485430e-03,2.320146698e-03,-2.479478266e-04,2.072198871e-03,3.228276438e-03,-6.967982498e-04,2.531478188e-03,2.761705372e-03,-5.379608903e-04,2.223744482e-03,2.262093181e-03,-4.139483890e-04,1.848144792e-03,2.187936452e-03,-5.367027214e-04,1.651233730e-03,2.035916986e-03,-4.168091768e-04,1.619107809e-03,1.638149035e-03,-8.030153608e-04,8.351336744e-04,1.702030743e-03,-1.120230417e-03,5.818003264e-04,2.327758940e-03,-4.472150153e-04,1.880543924e-03,3.093219371e-03,-2.276169615e-04,2.865602410e-03,1.365774927e-03,-2.805578503e-04,1.085217076e-03,1.800052718e-03,-7.573731009e-05,1.724315408e-03,2.550748552e-03,-2.405079296e-04,2.310240622e-03,2.591699636e-03,1.076570415e-05,2.602465340e-03,2.400497041e-03,-2.277975261e-04,2.172699515e-03,2.611050652e-03,-2.875950477e-04,2.323455604e-03,1.823108906e-03,-5.227066977e-04,1.300402208e-03,1.527164896e-03,-5.784029644e-04,9.487619314e-04,6.441678657e-04,-1.762460295e-04,4.679218362e-04,2.706624798e-03,-3.788626730e-04,2.327762125e-03,-1.166258554e-04,-2.393912685e-04,-3.560171239e-04,1.624695637e-03,-6.806656529e-04,9.440299840e-04,2.407584575e-03,-2.828889275e-04,2.124695647e-03,1.153377652e-03,1.666085433e-04,1.319986195e-03,1.339246588e-03,8.262449630e-05,1.421871084e-03,1.998288240e-03,-1.585382559e-04,1.839749984e-03,2.338301111e-03,-6.723534794e-04,1.665947631e-03,2.007431272e-03,-1.705617428e-04,1.836869529e-03,1.985959056e-03,-1.029863571e-04,1.882972699e-03,3.040217055e-03,3.289107012e-04,3.369127756e-03,2.704632413e-03,-4.093703354e-04,2.295262077e-03,2.770172574e-03,-3.234427571e-04,2.446729817e-03,2.352593319e-03,-4.251441767e-04,1.927449143e-03
-8.6,9.161013320e-04,-2.954068184e-04,6.206945137e-04,1.061178731e-03,-1.303117484e-04,9.308669823e-04,2.218268608e-03,-4.691810172e-04,1.749087591e-03,2.279542733e-03,-2.442269445e-04,2.035315788e-03,3.215121284e-03,-6.883906408e-04,2.526730643e-03,2.707497816e-03,-5.257619961e-04,2.181735820e-03,2.236508161e-03,-4.052707712e-04,1.831237390e-03,2.150383997e-03,-5.398671664e-04,1.610516831e-03,2.007792285e-03,-4.167115230e-04,1.591080762e-03,1.576445678e-03,-7.989541734e-04,7.774915046e-04,1.646295626e-03,-1.113621891e-03,5.326737353e-04,2.386838374e-03,-4.541143357e-04,1.932724038e-03,3.122703930e-03,-2.251381615e-04,2.897565768e-03,1.409930491e-03,-2.758623564e-04,1.134068134e-03,1.829111068e-03,-6.244966682e-05,1.766661401e-03,2.619372310e-03,-2.202741232e-04,2.399098186e-03,2.625026594e-03,2.875269656e-05,2.653779290e-03,2.407796306e-03,-2.163055459e-04,2.191490760e-03,2.602894579e-03,-2.870281054e-04,2.315866474e-03,1.746750832e-03,-5.153911048e-04,1.231359727e-03,1.497340696e-03,-5.640074398e-04,9.333332564e-04,6.425528217e-04,-1.739968970e-04,4.685559247e-04,2.690827784e-03,-3.685986391e-04,2.322229145e-03,-1.019239953e-04,-2.369520243e-04,-3.388760196e-04,1.616216399e-03,-6.823037971e-04,9.339126015e-04,2.429063927e-03,-2.868928181e-04,2.142171109e-03,1.190665822e-03,1.658568689e-04,1.356522691e-03,1.397873870e-03,1.189485087e-04,1.516822378e-03,2.028439806e-03,-1.434805613e-04,1.884959245e-03,2.286087591e-03,-6.255922160e-04,1.660495375e-03,2.043524462e-03,-1.810366357e-04,1.862487827e-03,2.015994846e-03,-1.208054176e-04,1.895189429e-03,2.984950702e-03,3.233201289e-04,3.308270830e-03,2.661983730e-03,-4.183633908e-04,2.243620340e-03,2.747388959e-03,-3.144547831e-04,2.432934176e-03,2.380732907e-03,-4.706274043e-04,1.910105503e-03
-8.5,8.942243091e-04,-2.875747966e-04,6.066495124e-04,1.056356181e-03,-1.235129392e-04,9.328432421e-04,2.179350707e-03,-4.644833303e-04,1.714867376e-03,2.231741935e-03,-2.401337523e-04,1.991608183e-03,3.193555540e-03,-6.792993878e-04,2.514256152e-03,2.645169292e-03,-5.131367256e-04,2.132032566e-03,2.204238956e-03,-3.964341543e-04,1.807804802e-03,2.104227950e-03,-5.419659503e-04,1.562262000e-03,1.974597703e-03,-4.163288855e-04,1.558268817e-03,1.510310904e-03,-7.935933036e-04,7.167176007e-04,1.591987465e-03,-1.105561790e-03,4.864256750e-04,2.436580998e-03,-4.593345790e-04,1.977246419e-03,3.136186499e-03,-2.192031687e-04,2.916983330e-03,1.447891451e-03,-2.700554085e-04,1.177836043e-03,1.851180478e-03,-5.164373207e-05,1.799536746e-03,2.678392091e-03,-2.001898217e-04,2.478202270e-03,2.645677545e-03,4.701034313e-05,2.692687888e-03,2.406432023e-03,-2.056868672e-04,2.200745156e-03,2.582498227e-03,-2.846127434e-04,2.297885483e-03,1.665469922e-03,-5.070566155e-04,1.158413307e-03,1.467298742e-03,-5.490757779e-04,9.182229644e-04,6.390006579e-04,-1.714448779e-04,4.675557801e-04,2.673794486e-03,-3.577907441e-04,2.316003742e-03,-8.519430136e-05,-2.339269051e-04,-3.191212065e-04,1.599570619e-03,-6.818206058e-04,9.177500134e-04,2.439290181e-03,-2.898654335e-04,2.149424747e-03,1.216681458e-03,1.655906985e-04,1.382272156e-03,1.441551921e-03,1.581758811e-04,1.599727803e-03,2.050565035e-03,-1.303991091e-04,1.920165926e-03,2.223590250e-03,-5.775588991e-04,1.646031350e-03,2.071113372e-03,-1.916917689e-04,1.879421604e-03,2.037077237e-03,-1.406992682e-04,1.896377969e-03,2.917435375e-03,3.148009874e-04,3.232236362e-03,2.606466260e-03,-4.238983687e-04,2.182567891e-03,2.713890799e-03,-3.061913661e-04,2.407699433e-03,2.400457618e-03,-5.169435447e-04,1.883514073e-03
-8.4,8.725451688e-04,-2.795343263e-04,5.930108425e-04,1.047477020e-03,-1.168977402e-04,9.305792797e-04,2.137248998e-03,-4.591331644e-04,1.678115833e-03,2.177092125e-03,-2.356726199e-04,1.941419505e-03,3.163671420e-03,-6.695605027e-04,2.494110917e-03,2.574992167e-03,-5.001516973e-04,2.074840469e-03,2.165406161e-03,-3.874870510e-04,1.777919110e-03,2.049743928e-03,-5.429746330e-04,1.506769295e-03,1.936555737e-03,-4.156624788e-04,1.520893259e-03,1.440170929e-03,-7.869212975e-04,6.532496316e-04,1.539584269e-03,-1.096035911e-03,4.435483577e-04,2.476518793e-03,-4.627296355e-04,2.013789158e-03,3.133691245e-03,-2.098776106e-04,2.923813634e-03,1.479498180e-03,-2.631670311e-04,1.216331149e-03,1.866450809e-03,-4.362756212e-05,1.822823247e-03,2.727447175e-03,-1.803837369e-04,2.547063438e-03,2.653523573e-03,6.551052974e-05,2.719034102e-03,2.396281677e-03,-1.959016304e-04,2.200380046e-03,2.549947537e-03,-2.802584114e-04,2.269689125e-03,1.579778173e-03,-4.977099847e-04,1.082068188e-03,1.437436186e-03,-5.336325814e-04,9.038036045e-04,6.337450910e-04,-1.685904115e-04,4.651546795e-04,2.655630271e-03,-3.464706348e-04,2.309159636e-03,-6.641129697e-05,-2.303243033e-04,-2.967356002e-04,1.574951190e-03,-6.791837093e-04,8.957674808e-04,2.438170340e-03,-2.917566591e-04,2.146413680e-03,1.231432194e-03,1.658625713e-04,1.397294765e-03,1.470274147e-03,1.999818815e-04,1.670256028e-03,2.064465416e-03,-1.193360016e-04,1.945129414e-03,2.151179465e-03,-5.284804609e-04,1.622699004e-03,2.089864166e-03,-2.023335868e-04,1.887530579e-03,2.048955874e-03,-1.623759886e-04,1.886579885e-03,2.837993844e-03,3.032880782e-04,3.141281922e-03,2.538688511e-03,-4.261720816e-04,2.112516430e-03,2.670144755e-03,-2.986710811e-04,2.371473674e-03,2.411354663e-03,-5.632530482e-04,1.848101615e-03
-8.3,8.512736174e-04,-2.713411940e-04,5.799324235e-04,1.034726889e-03,-1.105047638e-04,9.242221251e-04,2.092274271e-03,-4.531481613e-04,1.639126110e-03,2.115980514e-03,-2.308521930e-04,1.885128321e-03,3.125590370e-03,-6.592119014e-04,2.466378469e-03,2.497282368e-03,-4.868715295e-04,2.010410838e-03,2.120163928e-03,-3.784755004e-04,1.741688428e-03,1.987267410e-03,-5.428762754e-04,1.444391134e-03,1.893908297e-03,-4.147137621e-04,1.479194535e-03,1.366474069e-03,-7.789313196e-04,5.875427492e-04,1.489528735e-03,-1.085032713e-03,4.044960216e-04,2.506235982e-03,-4.641612423e-04,2.042074740e-03,3.115377070e-03,-1.972915908e-04,2.918085479e-03,1.504629340e-03,-2.552344743e-04,1.249394866e-03,1.875113396e-03,-3.863256575e-05,1.836480830e-03,2.766230877e-03,-1.609805940e-04,2.605250283e-03,2.648562832e-03,8.418552143e-05,2.732748354e-03,2.377280907e-03,-1.869041940e-04,2.190376712e-03,2.505438261e-03,-2.739094017e-04,2.231528860e-03,1.490216322e-03,-4.873658330e-04,1.002850489e-03,1.408122760e-03,-5.177043014e-04,8.904184585e-04,6.270259273e-04,-1.654357909e-04,4.615901364e-04,2.636413752e-03,-3.346739214e-04,2.301739831e-03,-4.556538830e-05,-2.261582942e-04,-2.717236825e-04,1.542609177e-03,-6.743735090e-04,8.682356680e-04,2.425695967e-03,-2.925345389e-04,2.133161428e-03,1.235033157e-03,1.666888638e-04,1.401722021e-03,1.484217741e-03,2.439852570e-04,1.728202998e-03,2.069976231e-03,-1.102986238e-04,1.959677607e-03,2.069276801e-03,-4.785809519e-04,1.590695849e-03,2.099497230e-03,-2.127653381e-04,1.886731891e-03,2.051423926e-03,-1.855108291e-04,1.865913097e-03,2.747058811e-03,2.887232841e-04,3.035782095e-03,2.459379542e-03,-4.254489327e-04,2.033930609e-03,2.616664120e-03,-2.918719681e-04,2.324792152e-03,2.413074834e-03,-6.087257746e-04,1.804349060e-03
-8.2,8.306036241e-04,-2.630496885e-04,5.675539356e-04,1.018311793e-03,-1.043690572e-04,9.139427355e-04,2.044738877e-03,-4.465500502e-04,1.598188826e-03,2.048829684e-03,-2.256853829e-04,1.823144301e-03,3.079461413e-03,-6.482927702e-04,2.431168643e-03,2.412396696e-03,-4.733583399e-04,1.939038356e-03,2.068698744e-03,-3.694426027e-04,1.699256142e-03,1.917189961e-03,-5.416617473e-04,1.375528214e-03,1.846914102e-03,-4.134840923e-04,1.433430010e-03,1.289686345e-03,-7.696213675e-04,5.200649778e-04,1.442221224e-03,-1.072543401e-03,3.696778229e-04,2.525375762e-03,-4.635024173e-04,2.061873344e-03,3.081530872e-03,-1.816407218e-04,2.899890150e-03,1.523201008e-03,-2.463019747e-04,1.276899033e-03,1.877351061e-03,-3.680494261e-05,1.840546119e-03,2.794491575e-03,-1.420999989e-04,2.652391576e-03,2.630917226e-03,1.029278088e-04,2.733845035e-03,2.349424648e-03,-1.786441421e-04,2.170780506e-03,2.449273473e-03,-2.655470779e-04,2.183726395e-03,1.397348211e-03,-4.760463411e-04,9.213018700e-04,1.379694305e-03,-5.013193207e-04,8.783749841e-04,6.190848945e-04,-1.619851419e-04,4.570997526e-04,2.616192965e-03,-3.224399059e-04,2.293753059e-03,-2.266487413e-05,-2.214487004e-04,-2.441135745e-04,1.502850260e-03,-6.673837056e-04,8.354665548e-04,2.401943944e-03,-2.921851473e-04,2.109758796e-03,1.227705986e-03,1.680486043e-04,1.395754591e-03,1.483753206e-03,2.897393018e-04,1.773492508e-03,2.066969940e-03,-1.032601177e-04,1.963709822e-03,1.978351816e-03,-4.280793925e-04,1.550272424e-03,2.099792185e-03,-2.227893724e-04,1.877002813e-03,2.044320762e-03,-2.097496242e-04,1.834571138e-03,2.645166241e-03,2.710642371e-04,2.916230478e-03,2.369367875e-03,-4.220456606e-04,1.947322214e-03,2.554000125e-03,-2.857380338e-04,2.268262092e-03,2.405340525e-03,-6.525540882e-04,1.752786437e-03
-8.1,8.107102563e-04,-2.547119057e-04,5.559983506e-04,9.984553859e-04,-9.852163440e-05,8.999337515e-04,1.994952438e-03,-4.393645064e-04,1.555587931e-03,1.976093176e-03,-2.201892283e-04,1.755903948e-03,3.025459551e-03,-6.368428921e-04,2.388616659e-03,2.320730038e-03,-4.596712701e-04,1.861058768e-03,2.011227918e-03,-3.604279545e-04,1.650799964e-03,1.839955079e-03,-5.393299425e-04,1.300625137e-03,1.795846198e-03,-4.119743781e-04,1.383871820e-03,1.210287317e-03,-7.589944640e-04,4.512928527e-04,1.398013847e-03,-1.058561995e-03,3.394518518e-04,2.533647746e-03,-4.606417832e-04,2.073005963e-03,3.032561373e-03,-1.631867024e-04,2.869374671e-03,1.535166609e-03,-2.364204474e-04,1.298746162e-03,1.873332017e-03,-3.820245714e-05,1.835129560e-03,2.812033805e-03,-1.238557518e-04,2.688178053e-03,2.600822779e-03,1.215946888e-04,2.722417467e-03,2.312766774e-03,-1.710671328e-04,2.141699641e-03,2.381858688e-03,-2.551904709e-04,2.126668217e-03,1.301755312e-03,-4.637807976e-04,8.379745144e-04,1.352447885e-03,-4.845081577e-04,8.679397274e-04,6.101622578e-04,-1.582443753e-04,4.519178825e-04,2.594983694e-03,-3.098112049e-04,2.285172489e-03,2.262788315e-06,-2.162210027e-04,-2.139582144e-04,1.456030814e-03,-6.582217866e-04,7.978090275e-04,2.367075850e-03,-2.907117298e-04,2.076364120e-03,1.209775398e-03,1.698839938e-04,1.379659392e-03,1.469458391e-03,3.367165502e-04,1.806174941e-03,2.055360410e-03,-9.816110114e-05,1.957199309e-03,1.878918267e-03,-3.771850208e-04,1.501733247e-03,2.090593931e-03,-2.322106240e-04,1.858383307e-03,2.027535076e-03,-2.347122913e-04,1.792822785e-03,2.532942783e-03,2.502967528e-04,2.783239535e-03,2.269559503e-03,-4.163150681e-04,1.853244435e-03,2.482736084e-03,-2.801921880e-04,2.202543896e-03,2.387953459e-03,-6.939639769e-04,1.693989482e-03
-8,7.917475774e-04,-2.463769800e-04,5.453705974e-04,9.753967554e-04,-9.298903609e-05,8.824077193e-04,1.943219081e-03,-4.316208456e-04,1.511598235e-03,1.898251650e-03,-2.143846383e-04,1.683867011e-03,2.963785096e-03,-6.249019899e-04,2.338883106e-03,2.222713272e-03,-4.458659979e-04,1.776847275e-03,1.947998500e-03,-3.514670085e-04,1.596531491e-03,1.756054531e-03,-5.358878908e-04,1.220166640e-03,1.740990305e-03,-4.101848389e-04,1.330805466e-03,1.128766802e-03,-7.470589037e-04,3.817078982e-04,1.357206580e-03,-1.043085480e-03,3.141211001e-04,2.530836752e-03,-4.554881566e-04,2.075348595e-03,2.968995547e-03,-1.422567632e-04,2.826738783e-03,1.540518911e-03,-2.256472833e-04,1.314871628e-03,1.863207925e-03,-4.279512718e-05,1.820412798e-03,2.818720049e-03,-1.063550430e-04,2.712365006e-03,2.558617325e-03,1.400164367e-04,2.698633762e-03,2.267420288e-03,-1.641159031e-04,2.103304385e-03,2.303696501e-03,-2.428959138e-04,2.060800587e-03,1.204031977e-03,-4.506050757e-04,7.534269018e-04,1.326639340e-03,-4.673036470e-04,8.593356925e-04,6.004948689e-04,-1.542211207e-04,4.462737482e-04,2.572770500e-03,-2.968332518e-04,2.275937248e-03,2.917089127e-05,-2.105060912e-04,-1.813352000e-04,1.402554486e-03,-6.469093598e-04,7.556451259e-04,2.321336868e-03,-2.881331737e-04,2.033203695e-03,1.181664263e-03,1.721026942e-04,1.353766957e-03,1.442131567e-03,3.842947042e-04,1.826426271e-03,2.035108501e-03,-9.491235078e-05,1.940196151e-03,1.771531369e-03,-3.260913905e-04,1.445439978e-03,2.071820160e-03,-2.408417861e-04,1.830978374e-03,2.001009022e-03,-2.599970244e-04,1.741011998e-03,2.411090128e-03,2.264492917e-04,2.637539420e-03,2.160915160e-03,-4.086277356e-04,1.752287424e-03,2.403486435e-03,-2.751540986e-04,2.128332336e-03,2.360802106e-03,-7.322250232e-04,1.628577083e-03
-7.9,7.738478872e-04,-2.380902888e-04,5.357575984e-04,9.493889105e-04,-8.779293189e-05,8.615959786e-04,1.889836429e-03,-4.233516573e-04,1.466484772e-03,1.815809959e-03,-2.082960731e-04,1.607513886e-03,2.894664199e-03,-6.125091622e-04,2.282155037e-03,2.118812149e-03,-4.319942564e-04,1.686817892e-03,1.879286960e-03,-3.425904673e-04,1.536696493e-03,1.666025392e-03,-5.313507235e-04,1.134674669e-03,1.682644103e-03,-4.081148674e-04,1.274529236e-03,1.045622527e-03,-7.338285552e-04,3.117939719e-04,1.320045384e-03,-1.026114070e-03,2.939313137e-04,2.516812614e-03,-4.479749631e-04,2.068837651e-03,2.891477703e-03,-1.192412159e-04,2.772236487e-03,1.539293796e-03,-2.140462766e-04,1.325247519e-03,1.847115742e-03,-5.046835933e-05,1.796647383e-03,2.814473326e-03,-8.969705253e-05,2.724776274e-03,2.504730447e-03,1.580050343e-04,2.662735481e-03,2.213558495e-03,-1.577308988e-04,2.055827596e-03,2.215381799e-03,-2.287562210e-04,1.986625578e-03,1.104781232e-03,-4.365609918e-04,6.682202399e-04,1.302482843e-03,-4.497408746e-04,8.527419683e-04,5.903153173e-04,-1.499246035e-04,4.403907138e-04,2.549509369e-03,-2.835537096e-04,2.265955659e-03,5.799424831e-05,-2.043398704e-04,-1.463456221e-04,1.342869591e-03,-6.334823033e-04,7.093872877e-04,2.265054543e-03,-2.844818502e-04,1.980572693e-03,1.143887985e-03,1.745820283e-04,1.318470013e-03,1.402796823e-03,4.317498883e-04,1.834546711e-03,2.006228512e-03,-9.339818412e-05,1.912830328e-03,1.656787384e-03,-2.749718841e-04,1.381815500e-03,2.043469108e-03,-2.485095621e-04,1.794959545e-03,1.964743680e-03,-2.851863418e-04,1.679557338e-03,2.280369525e-03,1.996065879e-04,2.479976113e-03,2.044427751e-03,-3.993525835e-04,1.645075168e-03,2.316899432e-03,-2.705578148e-04,2.046341617e-03,2.323867735e-03,-7.666588811e-04,1.557208854e-03
-7.8,7.571217541e-04,-2.298927592e-04,5.272289948e-04,9.206975708e-04,-8.294985452e-05,8.377477163e-04,1.835095249e-03,-4.145924812e-04,1.420502768e-03,1.729294567e-03,-2.019512008e-04,1.527343366e-03,2.818349897e-03,-5.997024414e-04,2.218647455e-03,2.009526405e-03,-4.181033375e-04,1.591423068e-03,1.805399188e-03,-3.338237983e-04,1.471575390e-03,1.570447184e-03,-5.257414841e-04,1.044705700e-03,1.621116760e-03,-4.057629059e-04,1.215353854e-03,9.613579397e-04,-7.193231334e-04,2.420348062e-04,1.286721175e-03,-1.007651550e-03,2.790696245e-04,2.491539354e-03,-4.380643515e-04,2.053475002e-03,2.800768767e-03,-9.458857303e-05,2.706180194e-03,1.531573853e-03,-2.016875630e-04,1.329886290e-03,1.825182152e-03,-6.102797926e-05,1.764154173e-03,2.799280317e-03,-7.397106514e-05,2.725309252e-03,2.439678204e-03,1.753604398e-04,2.615038644e-03,2.151416203e-03,-1.518502138e-04,1.999565989e-03,2.117596950e-03,-2.128993230e-04,1.904697627e-03,1.004610374e-03,-4.216955663e-04,5.829148079e-04,1.280150944e-03,-4.318568549e-04,8.482940894e-04,5.798510349e-04,-1.453655005e-04,4.344855345e-04,2.525129922e-03,-2.700218997e-04,2.255108023e-03,8.864990319e-05,-1.977627751e-04,-1.091128719e-04,1.277466801e-03,-6.179908290e-04,6.594759719e-04,2.198636795e-03,-2.798009087e-04,1.918835886e-03,1.097048495e-03,1.771743347e-04,1.274222830e-03,1.352698153e-03,4.782582520e-04,1.830956405e-03,1.968794040e-03,-9.348043928e-05,1.875313601e-03,1.535325584e-03,-2.239787587e-04,1.311346825e-03,2.005625376e-03,-2.550609005e-04,1.750564475e-03,1.918805489e-03,-3.098557061e-04,1.608949783e-03,2.141587843e-03,1.699201084e-04,2.311507952e-03,1.921101917e-03,-3.888389905e-04,1.532262926e-03,2.223659420e-03,-2.663643804e-04,1.957295039e-03,2.277227784e-03,-7.966450997e-04,1.480582685e-03
-7.7,7.416577892e-04,-2.218203821e-04,5.198374070e-04,8.895994401e-04,-7.847113906e-05,8.111283010e-04,1.779278059e-03,-4.053815215e-04,1.373896538e-03,1.639250113e-03,-1.953804702e-04,1.443869643e-03,2.735122453e-03,-5.865184324e-04,2.148604021e-03,1.895387833e-03,-4.042354818e-04,1.491152351e-03,1.726669870e-03,-3.251868742e-04,1.401482996e-03,1.469938038e-03,-5.190907097e-04,9.508473281e-04,1.556727752e-03,-4.031262706e-04,1.153601481e-03,8.764791863e-04,-7.035683511e-04,1.729108352e-04,1.257368186e-03,-9.877055881e-04,2.696625979e-04,2.455081494e-03,-4.257510230e-04,2.029330471e-03,2.697742500e-03,-6.879775745e-05,2.628944742e-03,1.517489587e-03,-1.886474659e-04,1.328842121e-03,1.797528922e-03,-7.420760244e-05,1.723321319e-03,2.773194168e-03,-5.925464684e-05,2.713939521e-03,2.364060115e-03,1.918742267e-04,2.555934342e-03,2.081289629e-03,-1.464093165e-04,1.934880312e-03,2.011105193e-03,-1.954859941e-04,1.815619199e-03,9.041256948e-04,-4.060603417e-04,4.980653531e-04,1.259773547e-03,-4.136901907e-04,8.460833562e-04,5.693222139e-04,-1.405558791e-04,4.287663348e-04,2.499535589e-03,-2.562883408e-04,2.243247248e-03,1.210368653e-04,-1.908192427e-04,-6.978237741e-05,1.206875921e-03,-6.004994683e-04,6.063764529e-04,2.122568388e-03,-2.741412926e-04,1.848427096e-03,1.041827627e-03,1.797122116e-04,1.221539838e-03,1.293280758e-03,5.229047934e-04,1.816185551e-03,1.922941702e-03,-9.500290147e-05,1.827938801e-03,1.407831018e-03,-1.732463255e-04,1.234584693e-03,1.958462047e-03,-2.603682706e-04,1.698093777e-03,1.863332595e-03,-3.335842009e-04,1.529748394e-03,1.995585218e-03,1.376139660e-04,2.133199184e-03,1.791936617e-03,-3.774019652e-04,1.414534652e-03,2.124483770e-03,-2.625672692e-04,1.861916501e-03,2.221055357e-03,-8.216245144e-04,1.399430843e-03
-7.6,7.275213229e-04,-2.139039147e-04,5.136174082e-04,8.563792788e-04,-7.436303565e-05,7.820162432e-04,1.722655577e-03,-3.957592946e-04,1.326896283e-03,1.546234302e-03,-1.886165091e-04,1.357617793e-03,2.645288183e-03,-5.729919487e-04,2.072296234e-03,1.776956371e-03,-3.904271135e-04,1.386529258e-03,1.643460485e-03,-3.166937037e-04,1.326766781e-03,1.365149019e-03,-5.114356362e-04,8.537133831e-04,1.489804391e-03,-4.002009435e-04,1.089603448e-03,7.914906992e-04,-6.865959191e-04,1.048947801e-04,1.232061006e-03,-9.662880112e-04,2.657729947e-04,2.407606069e-03,-4.110656433e-04,1.996540426e-03,2.583376770e-03,-4.240702460e-05,2.540969745e-03,1.497217272e-03,-1.750082454e-04,1.322209027e-03,1.764277468e-03,-8.967883645e-05,1.674598631e-03,2.736335642e-03,-4.561235298e-05,2.690723289e-03,2.278553682e-03,2.073326132e-04,2.485886296e-03,2.003534264e-03,-1.413413640e-04,1.862192901e-03,1.896740841e-03,-1.767065031e-04,1.720034338e-03,8.039260127e-04,-3.897108866e-04,4.142151260e-04,1.241435147e-03,-3.952808965e-04,8.461542507e-04,5.589380765e-04,-1.355092823e-04,4.234287942e-04,2.472601351e-03,-2.424043867e-04,2.230196965e-03,1.550344976e-04,-1.835571217e-04,-2.852262414e-05,1.131660665e-03,-5.810868301e-04,5.505738350e-04,2.037405522e-03,-2.675589210e-04,1.769846601e-03,9.789792396e-04,1.820130108e-04,1.160992250e-03,1.226159173e-03,5.646985426e-04,1.790857716e-03,1.868871854e-03,-9.779580330e-05,1.771076051e-03,1.275035365e-03,-1.228969551e-04,1.152138409e-03,1.902238439e-03,-2.643332755e-04,1.637905164e-03,1.798539913e-03,-3.559658098e-04,1.442574103e-03,1.843224871e-03,1.029851766e-04,1.946210047e-03,1.657909808e-03,-3.653099215e-04,1.292599887e-03,2.020111365e-03,-2.591903680e-04,1.760920997e-03,2.155613928e-03,-8.411026178e-04,1.314511310e-03
-7.5,7.147517589e-04,-2.061686545e-04,5.085831044e-04,8.213255691e-04,-7.062688960e-05,7.506986795e-04,1.665480994e-03,-3.857681414e-04,1.279712852e-03,1.450810953e-03,-1.816933398e-04,1.269117613e-03,2.549176600e-03,-5.591555994e-04,1.990021001e-03,1.654814159e-03,-3.767080054e-04,1.278106153e-03,1.556155748e-03,-3.083522402e-04,1.247803508e-03,1.256756484e-03,-5.028190211e-04,7.539374627e-04,1.420678023e-03,-3.969813793e-04,1.023696644e-03,7.068894722e-04,-6.684434121e-04,3.844606010e-05,1.210810461e-03,-9.434150393e-04,2.673954220e-04,2.349380156e-03,-3.940775456e-04,1.955302610e-03,2.458739298e-03,-1.597973552e-05,2.442759563e-03,1.470973850e-03,-1.608577343e-04,1.310116116e-03,1.725550811e-03,-1.070637025e-04,1.618487109e-03,2.688891517e-03,-3.309505463e-05,2.655796462e-03,2.183903905e-03,2.215204408e-04,2.405424346e-03,1.918560449e-03,-1.365784105e-04,1.781982038e-03,1.775396360e-03,-1.567764755e-04,1.618619884e-03,7.045951184e-04,-3.727063759e-04,3.318887425e-04,1.225170508e-03,-3.766702781e-04,8.485002296e-04,5.488917162e-04,-1.302408777e-04,4.186508385e-04,2.444169799e-03,-2.284218804e-04,2.215747918e-03,1.904997780e-04,-1.760269491e-04,1.447282886e-05,1.052411192e-03,-5.598450429e-04,4.925661495e-04,1.943768517e-03,-2.601123742e-04,1.683656143e-03,9.093193144e-04,1.838829450e-04,1.093202259e-03,1.153074379e-03,6.025933195e-04,1.755667699e-03,1.806846387e-03,-1.016799198e-04,1.705166467e-03,1.137713596e-03,-7.304761676e-05,1.064665979e-03,1.837294092e-03,-2.668882654e-04,1.570405827e-03,1.724721838e-03,-3.766196416e-04,1.348102196e-03,1.685385551e-03,6.639845212e-05,1.751784003e-03,1.519964859e-03,-3.527753352e-04,1.167189523e-03,1.911283620e-03,-2.562796370e-04,1.655003983e-03,2.081247800e-03,-8.546552549e-04,1.226592545e-03
-7.4,7.033590066e-04,-1.986341935e-04,5.047248131e-04,7.847250973e-04,-6.725932414e-05,7.174657732e-04,1.607982907e-03,-3.754516313e-04,1.232531276e-03,1.353541714e-03,-1.746455224e-04,1.178896191e-03,2.447136374e-03,-5.450393454e-04,1.902097028e-03,1.529558133e-03,-3.631005119e-04,1.166457621e-03,1.465158854e-03,-3.001642666e-04,1.164994587e-03,1.145453032e-03,-4.932877560e-04,6.521652763e-04,1.349679274e-03,-3.934603387e-04,9.562189352e-04,6.231585274e-04,-6.491539931e-04,-2.599546571e-05,1.193559112e-03,-9.191074559e-04,2.744516560e-04,2.280764904e-03,-3.748965045e-04,1.905868399e-03,2.324967675e-03,9.912647113e-06,2.334880322e-03,1.439010028e-03,-1.462887534e-04,1.292721274e-03,1.681471874e-03,-1.259477044e-04,1.555524170e-03,2.631110200e-03,-2.173966702e-05,2.609370533e-03,2.080908027e-03,2.342260301e-04,2.315134057e-03,1.826826649e-03,-1.320530910e-04,1.694773558e-03,1.648007441e-03,-1.359324712e-04,1.512074970e-03,6.066935437e-04,-3.551090012e-04,2.515845425e-04,1.210959597e-03,-3.579006449e-04,8.530589519e-04,5.393541865e-04,-1.247675186e-04,4.145866679e-04,2.414046870e-03,-2.143927552e-04,2.199654114e-03,2.272641143e-04,-1.682810584e-04,5.898305587e-05,9.697351721e-04,-5.368790188e-04,4.328561533e-04,1.842332775e-03,-2.518612447e-04,1.590471530e-03,8.337134252e-04,1.851216692e-04,1.018835094e-03,1.075843563e-03,6.355140360e-04,1.711357599e-03,1.737184484e-03,-1.064700882e-04,1.630714396e-03,9.966764270e-04,-2.381533478e-05,9.728610923e-04,1.764040475e-03,-2.679961785e-04,1.496044296e-03,1.642251942e-03,-3.951978977e-04,1.247054044e-03,1.522954708e-03,2.827806133e-05,1.551232769e-03,1.379000152e-03,-3.399501372e-04,1.039050014e-03,1.798722813e-03,-2.538909059e-04,1.544831907e-03,1.998371834e-03,-8.619378236e-04,1.136434011e-03
-7.3,6.933198461e-04,-1.913141628e-04,5.020056834e-04,7.468572030e-04,-6.425245873e-05,6.826047443e-04,1.550358261e-03,-3.648538992e-04,1.185504361e-03,1.254977385e-03,-1.675073733e-04,1.087470012e-03,2.339530844e-03,-5.306700702e-04,1.808860774e-03,1.401792122e-03,-3.496189370e-04,1.052173185e-03,1.370886196e-03,-2.921253368e-04,1.078760860e-03,1.031938001e-03,-4.828914392e-04,5.490465621e-04,1.277133032e-03,-3.896287387e-04,8.875042932e-04,5.407602850e-04,-6.287759664e-04,-8.801568143e-05,1.180177443e-03,-8.933906760e-04,2.867867673e-04,2.202207653e-03,-3.536733450e-04,1.848534308e-03,2.183243928e-03,3.471026798e-05,2.217954196e-03,1.401603193e-03,-1.313981996e-04,1.270204993e-03,1.632159235e-03,-1.458920732e-04,1.486267161e-03,2.563295831e-03,-1.156910943e-05,2.551726722e-03,1.970397614e-03,2.452456435e-04,2.215643257e-03,1.728831064e-03,-1.277002157e-04,1.601130849e-03,1.515537342e-03,-1.144273625e-04,1.401109979e-03,5.107505503e-04,-3.369831646e-04,1.737673857e-04,1.198723187e-03,-3.390147956e-04,8.597083910e-04,5.304688732e-04,-1.191076355e-04,4.113612377e-04,2.381999054e-03,-2.003685613e-04,2.181630492e-03,2.651307037e-04,-1.603725635e-04,1.047581402e-04,8.842486237e-04,-5.123057444e-04,3.719428793e-04,1.733818668e-03,-2.428653001e-04,1.490953368e-03,7.530620009e-04,1.855277475e-04,9.385897484e-04,9.963059173e-04,6.623887331e-04,1.658694650e-03,1.660257623e-03,-1.119784286e-04,1.548279194e-03,8.527605756e-04,2.467879412e-05,8.774393698e-04,1.682952226e-03,-2.676492769e-04,1.415302949e-03,1.551579969e-03,-4.113912629e-04,1.140188707e-03,1.356819610e-03,-1.090057804e-05,1.345919032e-03,1.235862577e-03,-3.269263588e-04,9.089362178e-04,1.683113538e-03,-2.520765584e-04,1.431036980e-03,1.907464737e-03,-8.626980971e-04,1.044766640e-03
-7.2,6.845752804e-04,-1.842160172e-04,5.003592632e-04,7.079886190e-04,-6.159422151e-05,6.463943975e-04,1.492766780e-03,-3.540188908e-04,1.138747889e-03,1.155650001e-03,-1.603123448e-04,9.953376558e-04,2.226734067e-03,-5.160711920e-04,1.710662875e-03,1.272119468e-03,-3.362690431e-04,9.358504251e-04,1.273762394e-03,-2.842247641e-04,9.895376297e-04,9.169085523e-04,-4.716810289e-04,4.452275233e-04,1.203354012e-03,-3.854755465e-04,8.178784650e-04,4.601306708e-04,-6.073621984e-04,-1.472315276e-04,1.170462022e-03,-8.662947305e-04,3.041672920e-04,2.114233615e-03,-3.305988638e-04,1.783634752e-03,2.034765935e-03,5.788660524e-05,2.092652540e-03,1.359051968e-03,-1.162858675e-04,1.242766101e-03,1.577723796e-03,-1.664445860e-04,1.411279210e-03,2.485802743e-03,-2.592514861e-06,2.483210228e-03,1.853221233e-03,2.543861812e-04,2.107607414e-03,1.625103135e-03,-1.234580235e-04,1.501645111e-03,1.378961699e-03,-9.252509880e-05,1.286436600e-03,4.172574879e-04,-3.183946771e-04,9.886281072e-05,1.188320770e-03,-3.200554433e-04,8.682653267e-04,5.223473567e-04,-1.132809994e-04,4.090663573e-04,2.347753778e-03,-1.863998917e-04,2.161353887e-03,3.038734807e-04,-1.523543049e-04,1.515191757e-04,7.965677101e-04,-4.862535911e-04,3.103141190e-04,1.618981651e-03,-2.331845021e-04,1.385797149e-03,6.682851099e-04,1.849044664e-04,8.531895763e-04,9.162680636e-04,6.821848539e-04,1.598452917e-03,1.576485041e-03,-1.180175718e-04,1.458467469e-03,7.068191823e-04,7.230698804e-05,7.791261703e-04,1.594559453e-03,-2.658674801e-04,1.328691973e-03,1.453227369e-03,-4.249321932e-04,1.028295176e-03,1.187856777e-03,-5.061942993e-05,1.137237347e-03,1.091343550e-03,-3.137397605e-04,7.776037896e-04,1.565091667e-03,-2.508733703e-04,1.314218297e-03,1.809066266e-03,-8.567901615e-04,9.522761045e-04
-7.1,6.770298072e-04,-1.773408868e-04,4.996889204e-04,6.683696978e-04,-5.926874783e-05,6.091009500e-04,1.435328135e-03,-3.429894733e-04,1.092338662e-03,1.056066714e-03,-1.530925669e-04,9.029741475e-04,2.109128187e-03,-5.012623349e-04,1.607865852e-03,1.141137073e-03,-3.230477699e-04,8.180893031e-04,1.174216373e-03,-2.764457059e-04,8.977706672e-04,8.010522572e-04,-4.597076972e-04,3.413445601e-04,1.128643632e-03,-3.809878017e-04,7.476558301e-04,3.816746426e-04,-5.849695228e-04,-2.032948802e-04,1.164136587e-03,-8.378542661e-04,3.262823211e-04,2.017438146e-03,-3.059005698e-04,1.711537576e-03,1.880720046e-03,7.896972620e-05,1.959689772e-03,1.311673699e-03,-1.010532019e-04,1.210620497e-03,1.518269998e-03,-1.871491937e-04,1.331120804e-03,2.399031658e-03,5.194349413e-06,2.404226008e-03,1.730230532e-03,2.614657551e-04,1.991696287e-03,1.516196795e-03,-1.192688402e-04,1.396927955e-03,1.239255233e-03,-7.049462082e-05,1.168760612e-03,3.266632794e-04,-2.994101531e-04,2.725312624e-05,1.179551922e-03,-3.010647379e-04,8.784871840e-04,5.150675670e-04,-1.073084260e-04,4.077591410e-04,2.311003829e-03,-1.725356631e-04,2.138468166e-03,3.432382239e-04,-1.442777988e-04,1.989604251e-04,7.073022646e-04,-4.588614365e-04,2.484408281e-04,1.498603703e-03,-2.228796092e-04,1.275724093e-03,5.803089023e-04,1.830651753e-04,7.633740776e-04,8.374525642e-04,6.939471005e-04,1.531399665e-03,1.486330376e-03,-1.244038976e-04,1.361926478e-03,5.597134541e-04,1.189338290e-04,6.786472831e-04,1.499441543e-03,-2.626965031e-04,1.236745040e-03,1.347782151e-03,-4.355967636e-04,9.121853869e-04,1.016923096e-03,-9.032806110e-05,9.265950354e-04,9.461760012e-04,-3.003737439e-04,6.458022573e-04,1.445242236e-03,-2.502933083e-04,1.194948927e-03,1.703774731e-03,-8.441841035e-04,8.595906273e-04
-7,6.705529620e-04,-1.706835068e-04,4.998694552e-04,6.282323249e-04,-5.725680867e-05,5.709755162e-04,1.378122095e-03,-3.318064482e-04,1.046315647e-03,9.567058390e-04,-1.458785158e-04,8.108273233e-04,1.987102326e-03,-4.862590906e-04,1.500843235e-03,1.009431211e-03,-3.099433154e-04,6.994878959e-04,1.072678767e-03,-2.687654407e-04,8.039133258e-04,6.850413739e-04,-4.470219543e-04,2.380194196e-04,1.053288345e-03,-3.761508156e-04,6.771375290e-04,3.057632095e-04,-5.616582179e-04,-2.558950084e-04,1.160856017e-03,-8.081086340e-04,3.527473828e-04,1.912479839e-03,-2.798373761e-04,1.632642463e-03,1.722258809e-03,9.755987622e-05,1.819818685e-03,1.259804427e-03,-8.580210730e-05,1.174002320e-03,1.453901973e-03,-2.075546175e-04,1.246347355e-03,2.303427940e-03,1.180867001e-05,2.315236610e-03,1.602270277e-03,2.663133692e-04,1.868583646e-03,1.402686091e-03,-1.150786805e-04,1.287607410e-03,1.097381348e-03,-4.860330965e-05,1.048778038e-03,2.393718216e-04,-2.800965311e-04,-4.072470947e-05,1.172160781e-03,-2.820838496e-04,8.900769313e-04,5.086739551e-04,-1.012114332e-04,4.074625219e-04,2.271414882e-03,-1.588222693e-04,2.112592613e-03,3.829454473e-04,-1.361921879e-04,2.467532594e-04,6.170512072e-04,-4.302774777e-04,1.867737295e-04,1.373486521e-03,-2.120129705e-04,1.161473550e-03,4.900546921e-04,1.798379668e-04,6.698926589e-04,7.614517103e-04,6.968344262e-04,1.458286137e-03,1.390299164e-03,-1.309606556e-04,1.259338509e-03,4.123048830e-04,1.644171180e-04,5.767220011e-04,1.398221779e-03,-2.582055545e-04,1.140016224e-03,1.235892915e-03,-4.432055333e-04,7.926873816e-04,8.448508692e-04,-1.294566513e-04,7.153942179e-04,8.010320417e-04,-2.867626801e-04,5.142693615e-04,1.324103772e-03,-2.503180946e-04,1.073785677e-03,1.592241378e-03,-8.249666337e-04,7.672747447e-04
-6.9,6.649825706e-04,-1.642322960e-04,5.007502746e-04,5.877891173e-04,-5.553624675e-05,5.322528706e-04,1.321190614e-03,-3.205075798e-04,1.000683034e-03,8.580144388e-04,-1.386987838e-04,7.193156550e-04,1.861052294e-03,-4.710729026e-04,1.389979392e-03,8.775746215e-04,-2.969356673e-04,5.806389542e-04,9.695801634e-04,-2.611559001e-04,7.084242633e-04,5.695281341e-04,-4.336729843e-04,1.358551498e-04,9.775587805e-04,-3.709484900e-04,6.066102904e-04,2.327312871e-04,-5.374915250e-04,-3.047602379e-04,1.160211990e-03,-7.771020173e-04,3.831099723e-04,1.800073626e-03,-2.526929220e-04,1.547380704e-03,1.560484848e-03,1.133415778e-04,1.673826426e-03,1.203799246e-03,-7.063375716e-05,1.133165489e-03,1.384731330e-03,-2.272213099e-04,1.157510020e-03,2.199481038e-03,1.728042158e-05,2.216761460e-03,1.470171569e-03,2.687691961e-04,1.738940765e-03,1.285162051e-03,-1.108357289e-04,1.174326322e-03,9.542841848e-04,-2.711065942e-05,9.271735254e-04,1.557402776e-04,-2.605205096e-04,-1.047802319e-04,1.165841948e-03,-2.631524763e-04,9.026894721e-04,5.031784568e-04,-9.501184563e-05,4.081666112e-04,2.228633885e-03,-1.453027239e-04,2.083331161e-03,4.226939584e-04,-1.281432237e-04,2.945507347e-04,5.263991923e-04,-4.006578235e-04,1.257413688e-04,1.244445904e-03,-2.006492680e-04,1.043796636e-03,3.984300252e-04,1.750699447e-04,5.734999699e-04,6.896883153e-04,6.901532038e-04,1.379841519e-03,1.288936077e-03,-1.375209373e-04,1.151415139e-03,2.654467058e-04,2.086101334e-04,4.740568392e-04,1.291562106e-03,-2.524846636e-04,1.039077442e-03,1.118261978e-03,-4.476239072e-04,6.706380705e-04,6.724460847e-04,-1.674319380e-04,5.050141467e-04,6.565214943e-04,-2.727955327e-04,3.837259616e-04,1.202174299e-03,-2.508969243e-04,9.512773744e-04,1.475161205e-03,-7.993318962e-04,6.758293083e-04
-6.8,6.601285306e-04,-1.579696682e-04,5.021588623e-04,5.472330622e-04,-5.408244550e-05,4.931506168e-04,1.264540109e-03,-3.091267444e-04,9.554133646e-04,7.604063520e-04,-1.315799200e-04,6.288264320e-04,1.731380021e-03,-4.557110734e-04,1.275668948e-03,7.461238877e-04,-2.839975098e-04,4.621263780e-04,8.653493254e-04,-2.535844019e-04,6.117649234e-04,4.551400731e-04,-4.197080348e-04,3.543203828e-05,9.017087855e-04,-3.653636357e-04,5.363451498e-04,1.628755270e-04,-5.125351172e-04,-3.496595902e-04,1.161738863e-03,-7.448834814e-04,4.168553818e-04,1.680982623e-03,-2.247682520e-04,1.456214371e-03,1.396439758e-03,1.260899545e-04,1.522529712e-03,1.144030825e-03,-5.564724925e-05,1.088383576e-03,1.310883032e-03,-2.457262278e-04,1.065156805e-03,2.087723502e-03,2.165246930e-05,2.109375971e-03,1.334748190e-03,2.686849421e-04,1.603433132e-03,1.164229271e-03,-1.064886066e-04,1.057740664e-03,8.108814719e-04,-6.262767661e-06,8.046187042e-04,7.607725480e-05,-2.407477962e-04,-1.646705414e-04,1.160246000e-03,-2.443082651e-04,9.159377352e-04,4.985610647e-04,-8.873139210e-05,4.098296726e-04,2.182296307e-03,-1.320159361e-04,2.050280371e-03,4.621640606e-04,-1.201723521e-04,3.419917085e-04,4.359133827e-04,-3.701650363e-04,6.574834637e-05,1.112306059e-03,-1.888560520e-04,9.234500073e-04,3.063203937e-04,1.686309961e-04,4.749513898e-04,6.233858628e-04,6.733824329e-04,1.296768296e-03,1.182820839e-03,-1.439306260e-04,1.038890213e-03,1.199738940e-04,2.513645950e-04,3.713384890e-04,1.180157921e-03,-2.456420172e-04,9.345159037e-04,9.956381065e-04,-4.487623223e-04,5.468757842e-04,5.004884333e-04,-2.036956935e-04,2.967927398e-04,5.131912219e-04,-2.583212366e-04,2.548699853e-04,1.079915689e-03,-2.519468520e-04,8.279688369e-04,1.353262249e-03,-7.675661449e-04,5.856961038e-04
-6.7,6.557761057e-04,-1.518725670e-04,5.039035387e-04,5.067368754e-04,-5.286883482e-05,4.538680406e-04,1.208142722e-03,-2.976931986e-04,9.104495233e-04,6.642597380e-04,-1.245462641e-04,5.397134739e-04,1.598491933e-03,-4.401768252e-04,1.158315108e-03,6.156163091e-04,-2.710953592e-04,3.445209499e-04,7.604106555e-04,-2.460144603e-04,5.143961952e-04,3.424748164e-04,-4.051717536e-04,-6.269693727e-05,8.259737681e-04,-3.593782340e-04,4.665955341e-04,9.645167070e-05,-4.868564971e-04,-3.904048264e-04,1.164918950e-03,-7.115068712e-04,4.534120791e-04,1.556007965e-03,-1.963743546e-04,1.359633610e-03,1.231096338e-03,1.356714854e-04,1.366767823e-03,1.080885236e-03,-4.093806833e-05,1.039947167e-03,1.232498372e-03,-2.626661506e-04,9.698322215e-04,1.968728188e-03,2.498050330e-05,1.993708691e-03,1.196795974e-03,2.659228418e-04,1.462718816e-03,1.040501849e-03,-1.019859108e-04,9.385159383e-04,6.680567203e-04,1.371200063e-05,6.817687209e-04,6.405005511e-07,-2.208422529e-04,-2.202017523e-04,1.154983779e-03,-2.255862761e-04,9.293975033e-04,4.947695656e-04,-8.239138556e-05,4.123781800e-04,2.132031580e-03,-1.189961726e-04,2.013035407e-03,5.010200008e-04,-1.123159469e-04,3.887040539e-04,3.461395629e-04,-3.389667326e-04,7.172830288e-06,9.778925361e-04,-1.767037980e-04,8.011887381e-04,2.145805226e-04,1.604167428e-04,3.749972653e-04,5.635501902e-04,6.461871526e-04,1.209737343e-03,1.072562700e-03,-1.500514178e-04,9.225112824e-04,-2.330798228e-05,2.925337449e-04,2.692257626e-04,1.064732273e-03,-2.378011633e-04,8.269311094e-04,8.688087192e-04,-4.465757963e-04,4.222329230e-04,3.297330535e-04,-2.377250366e-04,9.200801689e-05,3.715258411e-04,-2.431571235e-04,1.283687176e-04,9.577562016e-04,-2.533568947e-04,7.043993068e-04,1.227295651e-03,-7.300317617e-04,4.972638893e-04
-6.6,6.516883748e-04,-1.459130962e-04,5.057752786e-04,4.664518398e-04,-5.186737486e-05,4.145844649e-04,1.151936347e-03,-2.862308989e-04,8.657054483e-04,5.699138938e-04,-1.176197083e-04,4.522941854e-04,1.462796159e-03,-4.244693209e-04,1.038326838e-03,4.865659999e-04,-2.581908257e-04,2.283751742e-04,6.551807374e-04,-2.384065785e-04,4.167741589e-04,2.320943468e-04,-3.901055451e-04,-1.580111982e-04,7.505683381e-04,-3.529736827e-04,3.975946554e-04,3.367153778e-05,-4.605243763e-04,-4.268528385e-04,1.169187201e-03,-6.770305693e-04,4.921566321e-04,1.425976775e-03,-1.678248574e-04,1.258151918e-03,1.065352767e-03,1.420398513e-04,1.207392618e-03,1.014755570e-03,-2.659649904e-05,9.881590707e-04,1.149735848e-03,-2.776612848e-04,8.720745629e-04,1.843103429e-03,2.733202881e-05,1.870435458e-03,1.057093624e-03,2.603537487e-04,1.317447373e-03,9.145991236e-04,-9.727780488e-05,8.173213187e-04,5.266503746e-04,3.260620974e-05,5.592565844e-04,-7.036569141e-05,-2.008650573e-04,-2.712307488e-04,1.149629625e-03,-2.070185630e-04,9.426110620e-04,4.917186394e-04,-7.601251131e-05,4.157061281e-04,2.077467116e-03,-1.062726514e-04,1.971194465e-03,5.389118479e-04,-1.046046852e-04,4.343071627e-04,2.575974536e-04,-3.072341954e-04,-4.963674176e-05,8.420230734e-04,-1.642651744e-04,6.777578990e-04,1.240245206e-04,1.503508940e-04,2.743754145e-04,5.109636428e-04,6.084191131e-04,1.119382756e-03,9.587937612e-04,-1.557636254e-04,8.030301358e-04,-1.636340479e-04,3.319750979e-04,1.683410500e-04,9.460283068e-04,-2.290975864e-04,7.169307204e-04,7.385908093e-04,-4.410624125e-04,2.975283968e-04,1.609148793e-04,-2.690536487e-04,-1.081387694e-04,2.319514876e-04,-2.271010170e-04,4.850470606e-06,8.360920216e-04,-2.549963149e-04,5.810957066e-04,1.098027227e-03,-6.871548311e-04,4.108723961e-04
-6.5,6.476081083e-04,-1.400591112e-04,5.075489970e-04,4.265063580e-04,-5.104895078e-05,3.754574072e-04,1.095824111e-03,-2.747578581e-04,8.210662533e-04,4.776657226e-04,-1.108194068e-04,3.668463158e-04,1.324699020e-03,-4.085836180e-04,9.161154017e-04,3.594594908e-04,-2.452419293e-04,1.142175615e-04,5.500642665e-04,-2.307190124e-04,3.193452541e-04,1.245192366e-04,-3.745471267e-04,-2.500278900e-04,6.756836569e-04,-3.461310726e-04,3.295525843e-04,-2.529988630e-05,-4.336080714e-04,-4.589079577e-04,1.173935877e-03,-6.415171436e-04,5.324187332e-04,1.291729179e-03,-1.394290820e-04,1.152300097e-03,9.000277001e-04,1.452284921e-04,1.045256192e-03,9.460346796e-04,-1.270618319e-05,9.333284964e-04,1.062771224e-03,-2.903606443e-04,7.724105801e-04,1.711486983e-03,2.878390323e-05,1.740270886e-03,9.164038350e-04,2.518562197e-04,1.168260055e-03,7.871410935e-04,-9.231894940e-05,6.948221441e-04,3.874504767e-04,5.023589017e-05,4.376863669e-04,-1.367928937e-04,-1.808739334e-04,-3.176668271e-04,1.143724297e-03,-1.886337823e-04,9.550905150e-04,4.892888745e-04,-6.961461042e-05,4.196742641e-04,2.018231992e-03,-9.386918579e-05,1.924362807e-03,5.754773687e-04,-9.706303844e-05,4.784143302e-04,1.707755715e-04,-2.751408654e-04,-1.043652940e-04,7.054967975e-04,-1.516135785e-04,5.538832190e-04,3.541460246e-05,1.383878860e-04,1.738024885e-04,4.661913151e-04,5.601076673e-04,1.026298982e-03,8.421615384e-04,-1.609681835e-04,6.811933548e-04,-3.002905303e-04,3.695524477e-04,6.926191745e-05,8.247997435e-04,-2.196747514e-04,6.051249921e-04,6.058213038e-04,-4.322618659e-04,1.735594379e-04,-5.244955160e-06,-2.972921760e-04,-3.025371311e-04,9.484353863e-05,-2.099460564e-04,-1.151025178e-04,7.152878821e-04,-2.567250422e-04,4.585628399e-04,9.662302966e-04,-6.394175553e-04,3.268127413e-04
-6.4,6.432597584e-04,-1.342747325e-04,5.089850259e-04,3.870047870e-04,-5.038368103e-05,3.366211060e-04,1.039674484e-03,-2.632855958e-04,7.763888887e-04,3.877666982e-04,-1.041615335e-04,2.836051647e-04,1.184601620e-03,-3.925106296e-04,7.920909901e-04,2.347514512e-04,-2.322043784e-04,2.547072822e-06,4.454499971e-04,-2.229085105e-04,2.225414865e-04,2.022357485e-05,-3.585303696e-04,-3.383067947e-04,6.014851663e-04,-3.388314920e-04,2.626536743e-04,-8.034664942e-05,-4.061768853e-04,-4.865235347e-04,1.178520118e-03,-6.050328833e-04,5.734872352e-04,1.154105883e-03,-1.114856205e-04,1.042620262e-03,7.358561077e-04,1.453419361e-04,8.811980438e-04,8.751087051e-04,6.570839788e-07,8.757657891e-04,9.717986455e-04,-3.004496070e-04,6.713490385e-04,1.574540242e-03,2.941862395e-05,1.603958866e-03,7.754750192e-04,2.403177839e-04,1.015792803e-03,6.587432598e-04,-8.707133841e-05,5.716719214e-04,2.511838353e-04,6.644301566e-05,3.176268510e-04,-1.985501400e-04,-1.609224824e-04,-3.594726224e-04,1.136778728e-03,-1.704567117e-04,9.663220162e-04,4.873265264e-04,-6.321632050e-05,4.241102059e-04,1.953961648e-03,-8.180385062e-05,1.872157798e-03,6.103446518e-04,-8.970888627e-05,5.206357655e-04,8.612634739e-05,-2.428606893e-04,-1.567343419e-04,5.690833585e-04,-1.388215055e-04,4.302618530e-04,-5.055085773e-05,1.245164056e-04,7.396554786e-05,4.295968505e-04,5.014462180e-04,9.310430685e-04,7.233213365e-04,-1.655874492e-04,5.577338874e-04,-4.326232885e-04,4.051367246e-04,-2.748656389e-05,7.018007683e-04,-2.096802802e-04,4.921204881e-04,4.713489462e-04,-4.202557857e-04,5.109316045e-05,-1.680331350e-04,-3.221450657e-04,-4.901782007e-04,-3.946312793e-05,-1.914958297e-04,-2.309589576e-04,5.956777164e-04,-2.584043466e-04,3.372733698e-04,8.326792303e-04,-5.873533657e-04,2.453258646e-04
-6.3,6.383523940e-04,-1.285208369e-04,5.098315570e-04,3.480271992e-04,-4.984119357e-05,2.981860056e-04,9.833232209e-04,-2.518187229e-04,7.315044979e-04,3.004212850e-04,-9.765917946e-05,2.027621055e-04,1.042897416e-03,-3.762371759e-04,6.666602404e-04,1.128612497e-04,-2.190327130e-04,-1.061714633e-04,3.417073626e-04,-2.149309950e-04,1.267763676e-04,-8.036873746e-05,-3.420853149e-04,-4.224540523e-04,5.281113662e-04,-3.310563429e-04,1.970550233e-04,-1.314027372e-04,-3.782994573e-04,-5.097021944e-04,1.182265318e-03,-5.676472390e-04,6.146180787e-04,1.013937791e-03,-8.427635805e-05,9.296614327e-04,5.734867921e-04,1.425471680e-04,7.160339601e-04,8.023528139e-04,1.342630055e-05,8.157791145e-04,8.770344137e-04,-3.076585494e-04,5.693758643e-04,1.432943876e-03,2.932019806e-05,1.462264074e-03,6.350437168e-04,2.256384061e-04,8.606821228e-04,5.300114580e-04,-8.150616296e-05,4.485052950e-04,1.185087217e-04,8.109819125e-05,1.996069130e-04,-2.556040564e-04,-1.410597245e-04,-3.966637809e-04,1.128279721e-03,-1.525076900e-04,9.757720307e-04,4.856448598e-04,-5.683459860e-05,4.288102612e-04,1.884304553e-03,-7.008870018e-05,1.814215853e-03,6.431360311e-04,-8.255328929e-05,5.605827418e-04,4.062417752e-06,-2.105664778e-04,-2.065040600e-04,4.335137835e-04,-1.259592635e-04,3.075545200e-04,-1.332479511e-04,1.087632613e-04,-2.448468979e-05,4.013622311e-04,4.327796930e-04,8.341419241e-04,6.029290861e-04,-1.695647004e-04,4.333643857e-04,-5.600436211e-04,4.386054643e-04,-1.214381568e-04,5.777770468e-04,-1.992628352e-04,3.785142115e-04,3.360284456e-04,-4.051697703e-04,-6.914132470e-05,-3.267410359e-04,-3.434212494e-04,-6.701622853e-04,-1.706639214e-04,-1.715774889e-04,-3.422414104e-04,4.775678251e-04,-2.599078559e-04,2.176599692e-04,6.981429806e-04,-5.315409214e-04,1.666020592e-04
-6.2,6.325840304e-04,-1.227555842e-04,5.098284462e-04,3.096303687e-04,-4.939089927e-05,2.602394694e-04,9.265775879e-04,-2.403546437e-04,6.862229442e-04,2.157872890e-04,-9.132237603e-05,1.244649129e-04,8.999711777e-04,-3.597461504e-04,5.402250274e-04,-5.829310601e-06,-2.056812610e-04,-2.115105716e-04,2.391841224e-04,-2.067421571e-04,3.244196521e-05,-1.768861006e-04,-3.252382382e-04,-5.021243388e-04,4.556739151e-04,-3.227876855e-04,1.328862296e-04,-1.784514577e-04,-3.500431290e-04,-5.284945867e-04,1.184476529e-03,-5.294322326e-04,6.550442962e-04,8.720379814e-04,-5.806060440e-05,8.139773770e-04,4.134828764e-04,1.370652946e-04,5.505481710e-04,7.281294405e-04,2.554391995e-05,7.536733604e-04,7.787227599e-04,-3.117704095e-04,4.669523504e-04,1.287394681e-03,2.857075453e-05,1.315965436e-03,4.958363065e-04,2.077357551e-04,7.035720616e-04,4.015375337e-04,-7.560459466e-05,3.259329390e-04,-9.990251104e-06,9.410332098e-05,8.411306988e-05,-3.079773033e-04,-1.213299585e-04,-4.293072619e-04,1.117697914e-03,-1.348021007e-04,9.828958128e-04,4.840272993e-04,-5.048430713e-05,4.335429921e-04,1.808930393e-03,-5.872957583e-05,1.750200818e-03,6.734731683e-04,-7.560044079e-05,5.978727275e-04,-7.504538720e-05,-1.784283901e-04,-2.534737773e-04,2.994737961e-04,-1.130939994e-04,1.863797967e-04,-2.121343955e-04,9.119608121e-05,-1.209383143e-04,3.815053368e-04,3.545965845e-04,7.361019213e-04,4.816347138e-04,-1.728623433e-04,3.087723705e-04,-6.820315501e-04,4.698413214e-04,-2.121902287e-04,4.534583202e-04,-1.885698151e-04,2.648885051e-04,2.007150347e-04,-3.871751760e-04,-1.864601413e-04,-4.806654415e-04,-3.610376154e-04,-8.417030568e-04,-2.984765426e-04,-1.500515683e-04,-4.485281109e-04,3.612431503e-04,-2.611320012e-04,1.001111490e-04,5.633781559e-04,-4.725950575e-04,9.078309833e-05
-6.1,6.256469785e-04,-1.169349854e-04,5.087119931e-04,2.718496550e-04,-4.900224919e-05,2.228474058e-04,8.692220946e-04,-2.288833799e-04,6.403387147e-04,1.339776771e-04,-8.515815277e-05,4.881952434e-05,7.561988880e-04,-3.430167733e-04,4.131821147e-04,-1.209774438e-04,-1.921049400e-04,-3.130823838e-04,1.382048184e-04,-1.982980061e-04,-6.009318778e-05,-2.690101597e-04,-3.080117771e-04,-5.770219367e-04,3.842586595e-04,-3.140086278e-04,7.025003162e-05,-2.215237027e-04,-3.214733835e-04,-5.429970862e-04,1.184449084e-03,-4.904619062e-04,6.939871779e-04,7.291949447e-04,-3.306926590e-05,6.961256789e-04,2.563250338e-04,1.291635130e-04,3.854885468e-04,6.527877036e-04,3.696222219e-05,6.897499258e-04,6.771408586e-04,-3.126258063e-04,3.645150524e-04,1.138601954e-03,2.724896235e-05,1.165850916e-03,3.585666755e-04,1.865528833e-04,5.451195588e-04,2.738959267e-04,-6.935777944e-05,2.045381472e-04,-1.338051356e-04,1.053936365e-04,-2.841149908e-05,-3.557458287e-04,-1.017729131e-04,-4.575187418e-04,1.104496966e-03,-1.173500021e-04,9.871469637e-04,4.822316374e-04,-4.417798350e-05,4.380536539e-04,1.727538132e-03,-4.772602620e-05,1.679812106e-03,7.009824415e-04,-6.884777583e-05,6.321346657e-04,-1.508687839e-04,-1.466124368e-04,-2.974812207e-04,1.675990734e-04,-1.002887399e-04,6.731033349e-05,-2.867523044e-04,7.192318758e-05,-2.148291168e-04,3.698912141e-04,2.675257530e-04,6.374169671e-04,3.600752406e-04,-1.754587794e-04,1.846164612e-04,-7.981380465e-04,4.987307937e-04,-2.994072528e-04,3.295516378e-04,-1.777455112e-04,1.518061266e-04,6.625677343e-05,-3.664888210e-04,-3.002320475e-04,-6.291137683e-04,-3.750155025e-04,-1.004129271e-03,-4.226364112e-04,-1.268185248e-04,-5.494549360e-04,2.469732245e-04,-2.620030781e-04,-1.502985355e-05,4.291212006e-04,-4.111553156e-04,1.796588501e-05
-6,6.172332132e-04,-1.110135215e-04,5.062196917e-04,2.347010520e-04,-4.864496131e-05,1.860560907e-04,8.110241929e-04,-2.173875785e-04,5.936366145e-04,5.506280913e-05,-7.917055294e-05,-2.410774380e-05,6.119476289e-04,-3.260249156e-04,2.859227133e-04,-2.322807598e-04,-1.782600079e-04,-4.105407677e-04,3.906944486e-05,-1.895554479e-04,-1.504860030e-04,-3.564763561e-04,-2.904252107e-04,-6.469015668e-04,3.139267662e-04,-3.047036943e-04,9.223071920e-06,-2.606958818e-04,-2.926533366e-04,-5.533492184e-04,1.181478930e-03,-4.508117885e-04,7.306671416e-04,5.861657837e-04,-9.499681126e-06,5.766661026e-04,1.024158824e-04,1.191472065e-04,2.215630889e-04,5.766620180e-04,4.764348726e-05,6.243055052e-04,5.726011269e-04,-3.101262262e-04,2.624749007e-04,9.872815566e-04,2.543047865e-05,1.012712035e-03,2.239257850e-04,1.620699043e-04,3.859956893e-04,1.476404767e-04,-6.276654245e-05,8.487393427e-05,-2.525062452e-04,1.149384167e-04,-1.375678285e-04,-3.990358254e-04,-8.242400992e-05,-4.814598353e-04,1.088142265e-03,-1.001559055e-04,9.879863592e-04,4.799941194e-04,-3.792573235e-05,4.420683870e-04,1.639862267e-03,-3.707135815e-05,1.602790908e-03,7.252996711e-04,-6.228619893e-05,6.630134722e-04,-2.231225669e-04,-1.152788124e-04,-3.384013793e-04,3.847129727e-05,-8.760135064e-05,-4.913005337e-05,-3.567272731e-04,5.109002210e-05,-3.056372510e-04,3.662350017e-04,1.723359519e-04,5.385709536e-04,2.388666333e-04,-1.773439719e-04,6.152266146e-05,-9.079873932e-04,5.251640698e-04,-3.828233234e-04,2.067342069e-04,-1.669293293e-04,3.980487761e-05,-6.651660182e-05,-3.433701061e-04,-4.098867079e-04,-7.714148687e-04,-3.854707150e-04,-1.156885584e-03,-5.428954963e-04,-1.018231563e-04,-6.447186527e-04,1.350145798e-04,-2.624802285e-04,-1.274656487e-04,2.960782265e-04,-3.478727192e-04,-5.179449272e-05
-5.9,6.070389128e-04,-1.049448547e-04,5.020940581e-04,1.981827842e-04,-4.828921413e-05,1.498935701e-04,7.517387912e-04,-2.058427511e-04,5.458960401e-04,-2.092776749e-05,-7.336059204e-05,-9.428835952e-05,4.675746638e-04,-3.087434818e-04,1.588311820e-04,-3.394790913e-04,-1.641048354e-04,-5.035839267e-04,-5.794816275e-05,-1.804729322e-04,-2.384210949e-04,-4.390746907e-04,-2.724949180e-04,-7.115696087e-04,2.447153179e-04,-2.948590514e-04,-5.014373349e-05,-2.960881514e-04,-2.636432018e-04,-5.597313531e-04,1.174871588e-03,-4.105582886e-04,7.643132995e-04,4.436690915e-04,1.248797735e-05,4.561570688e-04,-4.791508256e-05,1.073514016e-04,5.943631908e-05,5.000687909e-04,5.756010638e-05,5.576288973e-04,4.654508880e-04,-3.042364167e-04,1.612144713e-04,8.341473215e-04,2.318945065e-05,8.573367721e-04,9.256253764e-05,1.343192962e-04,2.268818338e-04,2.330057892e-05,-5.584107097e-05,-3.254049205e-05,-3.657430907e-04,1.227401508e-04,-2.430029399e-04,-4.380210237e-04,-6.331455649e-05,-5.013355802e-04,1.068108022e-03,-8.321866691e-05,9.848893548e-04,4.770326862e-04,-3.173513450e-05,4.452975517e-04,1.545676623e-03,-2.675283035e-05,1.518923792e-03,7.460737082e-04,-5.590041321e-05,6.901732950e-04,-2.915657212e-04,-8.458006896e-05,-3.761457902e-04,-8.738591038e-05,-7.508350862e-05,-1.624694190e-04,-4.217656270e-04,2.887317997e-05,-3.928924471e-04,3.700970333e-04,6.993568374e-05,4.400327171e-04,1.185943321e-04,-1.785141807e-04,-5.991984859e-05,-1.011279678e-03,5.490360961e-04,-4.622435815e-04,8.564576119e-05,-1.562539628e-04,-7.060820159e-05,-1.968076345e-04,-3.181157749e-04,-5.149234094e-04,-9.069349425e-04,-3.925981707e-04,-1.299533113e-03,-6.590237654e-04,-7.505769201e-05,-7.340814574e-04,2.561059184e-05,-2.625568427e-04,-2.369462508e-04,1.649113905e-04,-2.833948945e-04,-1.184835040e-04
-5.8,5.947679268e-04,-9.868265918e-05,4.960852676e-04,1.622762533e-04,-4.790579607e-05,1.143704572e-04,6.911113611e-04,-1.942177139e-04,4.968936472e-04,-9.400420347e-05,-6.772616117e-05,-1.617303646e-04,3.234255500e-04,-2.911428200e-04,3.228273000e-05,-4.423567990e-04,-1.496006805e-04,-5.919574795e-04,-1.526023185e-04,-1.710111275e-04,-3.236134460e-04,-5.166508555e-04,-2.542349460e-04,-7.708858015e-04,1.766372850e-04,-2.844625307e-04,-1.078252457e-04,-3.278630169e-04,-2.344996909e-04,-5.623627078e-04,1.163949545e-03,-3.697779668e-04,7.941715782e-04,3.023779839e-04,3.277228196e-05,3.351502659e-04,-1.944050561e-04,9.413073599e-05,-1.002743201e-04,4.233015302e-04,6.669466611e-05,4.899961963e-04,3.560701917e-04,-2.949861579e-04,6.108403375e-05,6.799007626e-04,2.059976386e-05,7.005005265e-04,-3.493935540e-05,1.034010536e-04,6.846169825e-05,-9.862405120e-05,-4.860017189e-05,-1.472242231e-04,-4.732449791e-04,1.288324272e-04,-3.444125519e-04,-4.729203558e-04,-4.447182099e-05,-5.173921768e-04,1.043882756e-03,-6.653152301e-05,9.773512334e-04,4.730494822e-04,-2.561118864e-05,4.474382936e-04,1.444796117e-03,-1.675197846e-05,1.428044138e-03,7.629690468e-04,-4.966935739e-05,7.132996894e-04,-3.560032348e-04,-5.465931104e-05,-4.106625458e-04,-2.095114110e-04,-6.277974741e-05,-2.722911584e-04,-4.816515155e-04,5.473729829e-06,-4.761777857e-04,3.808749052e-04,-3.862905728e-05,3.422458479e-04,-1.966416862e-07,-1.789665994e-04,-1.791632411e-04,-1.107792848e-03,5.702487514e-04,-5.375440962e-04,-3.311905427e-05,-1.458434393e-04,-1.789624935e-04,-3.238664391e-04,-2.910523733e-04,-6.149188124e-04,-1.035095179e-03,-3.966539184e-04,-1.431749098e-03,-7.708121723e-04,-4.656333325e-05,-8.173755056e-04,-8.100935443e-05,-2.622616745e-04,-3.432710289e-04,3.622361839e-05,-2.183509715e-04,-1.821273531e-04
-5.7,5.801344377e-04,-9.218148463e-05,4.879529530e-04,1.269465454e-04,-4.746618312e-05,7.948036231e-05,6.288802337e-04,-1.824751464e-04,4.464050873e-04,-1.642155934e-04,-6.226187090e-05,-2.264774643e-04,1.798316773e-04,-2.731911183e-04,-9.335944099e-05,-5.407450753e-04,-1.347124628e-04,-6.754575381e-04,-2.446775800e-04,-1.611335492e-04,-4.058111291e-04,-5.891074182e-04,-2.356575903e-04,-8.247650085e-04,1.096813081e-04,-2.735035100e-04,-1.638222019e-04,-3.562238771e-04,-2.052754271e-04,-5.614993042e-04,1.148058665e-03,-3.285467373e-04,8.195119281e-04,1.629138555e-04,5.127034198e-05,2.141841975e-04,-3.368490207e-04,7.984789782e-05,-2.570011228e-04,3.466256810e-04,7.503990554e-05,4.216655866e-04,2.448684733e-04,-2.824709093e-04,-3.760243602e-05,5.252202789e-04,1.773560075e-05,5.429558797e-04,-1.580823677e-04,6.949343547e-05,-8.858893219e-05,-2.176701195e-04,-4.106959434e-05,-2.587397138e-04,-5.748210796e-04,1.332768894e-04,-4.415441903e-04,-5.039955282e-04,-2.591904872e-05,-5.299145769e-04,1.014974028e-03,-5.008235950e-05,9.648916681e-04,4.677333154e-04,-1.955636607e-05,4.481769493e-04,1.337077716e-03,-7.045031975e-06,1.330032684e-03,7.756680792e-04,-4.356674813e-05,7.321013310e-04,-4.162882921e-04,-2.564845912e-05,-4.419367512e-04,-3.275109595e-04,-5.072656477e-05,-3.782375243e-04,-5.362439975e-04,-1.888962582e-05,-5.551336233e-04,3.977989452e-04,-1.521805211e-04,2.456184241e-04,-1.170107572e-04,-1.786944626e-04,-2.957052197e-04,-1.197383570e-03,5.887141498e-04,-6.086694200e-04,-1.490176834e-04,-1.358108843e-04,-2.848285677e-04,-4.470057263e-04,-2.625265092e-04,-7.095322356e-04,-1.155386801e-03,-3.979380431e-04,-1.553324845e-03,-8.780752364e-04,-1.643063325e-05,-8.945058696e-04,-1.846322364e-04,-2.616576237e-04,-4.462898601e-04,-8.945415840e-05,-1.533393544e-04,-2.427935128e-04
-5.6,5.628654219e-04,-8.539750585e-05,4.774679160e-04,9.214301663e-05,-4.694252978e-05,4.520048684e-05,5.647792439e-04,-1.705722396e-04,3.942070043e-04,-2.316487873e-04,-5.695887754e-05,-2.886076649e-04,3.710803719e-05,-2.548547977e-04,-2.177467605e-04,-6.345233455e-04,-1.194096131e-04,-7.539329586e-04,-3.339903702e-04,-1.508071088e-04,-4.847974790e-04,-6.564043134e-04,-2.167739308e-04,-8.731782442e-04,4.381204624e-05,-2.619727805e-04,-2.181607342e-04,-3.814127665e-04,-1.760184982e-04,-5.574312647e-04,1.126574716e-03,-2.869391182e-04,8.396355979e-04,2.584145497e-05,6.793647623e-05,9.377793120e-05,-4.750887127e-04,6.486161085e-05,-4.102271019e-04,2.702749472e-04,8.259843434e-05,3.528733815e-04,1.322810058e-04,-2.668509138e-04,-1.345699080e-04,3.707510019e-04,1.467176693e-05,3.854227689e-04,-2.764699567e-04,3.285702293e-05,-2.436129337e-04,-3.334179145e-04,-3.327971316e-05,-3.666976277e-04,-6.703593366e-04,1.361594876e-04,-5.341998490e-04,-5.315477920e-04,-7.675437494e-06,-5.392232295e-04,9.809136906e-04,-3.385421113e-05,9.470594795e-04,4.607630209e-04,-1.357075476e-05,4.471922662e-04,1.222422272e-03,2.396622894e-06,1.224818895e-03,7.838738957e-04,-3.756170294e-05,7.463121927e-04,-4.723241947e-04,2.333551796e-06,-4.699906429e-04,-4.410608189e-04,-3.895158151e-05,-4.800124004e-04,-5.854728693e-04,-4.398791621e-05,-6.294607855e-04,4.199334707e-04,-2.694166111e-04,1.505168596e-04,-2.314087053e-04,-1.776832769e-04,-4.090919822e-04,-1.279985936e-03,6.043588254e-04,-6.756271104e-04,-2.615653808e-04,-1.262560594e-04,-3.878214402e-04,-5.656137456e-04,-2.328937859e-04,-7.985075315e-04,-1.267380760e-03,-3.967810678e-04,-1.664161828e-03,-9.806506965e-04,1.519988837e-05,-9.654508082e-04,-2.850664044e-04,-2.608357835e-04,-5.459021879e-04,-2.116699870e-04,-8.892097509e-05,-3.005909621e-04
-5.5,5.427038040e-04,-7.828909300e-05,4.644147110e-04,5.780065581e-05,-4.630760896e-05,1.149304686e-05,4.985421812e-04,-1.584614732e-04,3.400807080e-04,-2.964256624e-04,-5.180481293e-05,-3.482304754e-04,-1.044477952e-04,-2.360989614e-04,-3.405467565e-04,-7.236187790e-04,-1.036670204e-04,-8.272857994e-04,-4.203893862e-04,-1.400025999e-04,-5.603919861e-04,-7.185576460e-04,-1.975943422e-04,-9.161519882e-04,-2.102808746e-05,-2.498624823e-04,-2.708905698e-04,-4.037065200e-04,-1.467722212e-04,-5.504787412e-04,1.098911218e-03,-2.450276003e-04,8.538836182e-04,-1.083338512e-04,8.276039743e-05,-2.557345382e-05,-6.090007699e-04,4.951577061e-05,-5.594849993e-04,1.944507429e-04,8.938220804e-05,2.838329510e-04,1.876637623e-05,-2.483479625e-04,-2.295815862e-04,2.170968357e-04,1.148422199e-05,2.285810576e-04,-3.898133461e-04,-6.168254165e-06,-3.959816003e-04,-4.454968439e-04,-2.526352345e-05,-4.707603673e-04,-7.598233139e-04,1.375865497e-04,-6.222367643e-04,-5.559131675e-04,1.024398023e-05,-5.456691873e-04,9.412649747e-04,-1.782586746e-05,9.234391073e-04,4.518126491e-04,-7.652160150e-06,4.441604890e-04,1.100778785e-03,1.160594413e-05,1.112384729e-03,7.873145082e-04,-3.161943166e-05,7.556950765e-04,-5.240649512e-04,2.918264193e-05,-4.948823092e-04,-5.499094406e-04,-2.747284278e-05,-5.773822834e-04,-6.293321498e-04,-6.958953784e-05,-6.989216876e-04,4.461807372e-04,-3.889162179e-04,5.726451927e-05,-3.430100258e-04,-1.759091402e-04,-5.189191660e-04,-1.355607298e-03,6.171279025e-04,-7.384793953e-04,-3.703391435e-04,-1.172627530e-04,-4.876018965e-04,-6.791632136e-04,-2.025079331e-04,-8.816711467e-04,-1.370731582e-03,-3.935347670e-04,-1.764266349e-03,-1.078394890e-03,4.813641844e-05,-1.030258472e-03,-3.821476017e-04,-2.599048161e-04,-6.420524178e-04,-3.300516792e-04,-2.561796446e-05,-3.556696436e-04
-5.4,5.194131625e-04,-7.081728440e-05,4.485958781e-04,2.384285132e-05,-4.553478547e-05,-2.169193415e-05,4.299101565e-04,-1.460915666e-04,2.838185900e-04,-3.586979479e-04,-4.678393937e-05,-4.054818872e-04,-2.445547152e-04,-2.168879593e-04,-4.614426746e-04,-8.080033268e-04,-8.746595449e-05,-8.954692813e-04,-5.037542141e-04,-1.286951254e-04,-6.324493395e-04,-7.756360789e-04,-1.781290131e-04,-9.537650920e-04,-8.491528248e-05,-2.371661144e-04,-3.220813968e-04,-4.234109085e-04,-1.175750919e-04,-5.409860005e-04,1.064529377e-03,-2.028821380e-04,8.616472387e-04,-2.391657426e-04,9.576511182e-05,-1.434006308e-04,-7.384850791e-04,3.413070430e-05,-7.043543749e-04,1.193254968e-04,9.541186010e-05,2.147373569e-04,-9.519434849e-05,-2.272386434e-04,-3.224329918e-04,6.481620435e-05,8.250691335e-06,7.306689569e-05,-4.979305005e-04,-4.717134667e-05,-5.451018471e-04,-5.535875917e-04,-1.705552867e-05,-5.706431203e-04,-8.432461514e-04,1.376814246e-04,-7.055647268e-04,-5.774556673e-04,2.782852601e-05,-5.496271413e-04,8.956320592e-04,-1.972472741e-06,8.936595864e-04,4.405588989e-04,-1.796110912e-06,4.387627880e-04,9.721514404e-04,2.061965811e-05,9.927710985e-04,7.857487939e-04,-2.570202566e-05,7.600467683e-04,-5.715134398e-04,5.481123831e-05,-5.167022015e-04,-6.538760755e-04,-1.629850690e-05,-6.701745824e-04,-6.678714860e-04,-9.546698713e-05,-7.633384731e-04,4.752841549e-04,-5.091415215e-04,-3.385736663e-05,-4.514907997e-04,-1.733397419e-04,-6.248305416e-04,-1.424321027e-03,6.269877939e-04,-7.973332328e-04,-4.749797803e-04,-1.088958764e-04,-5.838756566e-04,-7.872152485e-04,-1.717112139e-04,-9.589264625e-04,-1.465176577e-03,-3.885661879e-04,-1.853742765e-03,-1.171174403e-03,8.213495544e-05,-1.089039447e-03,-4.757430381e-04,-2.589778366e-04,-7.347208747e-04,-4.443029016e-04,3.608522805e-05,-4.082176735e-04
-5.3,4.927840829e-04,-6.294628405e-05,4.298377988e-04,-9.814342427e-06,-4.459810224e-05,-5.441244467e-05,3.586416276e-04,-1.334085652e-04,2.252330624e-04,-4.186396631e-04,-4.187752377e-05,-4.605171868e-04,-3.829452634e-04,-1.971860596e-04,-5.801313230e-04,-8.876885097e-04,-7.079482668e-05,-9.584833364e-04,-5.839921898e-04,-1.168644516e-04,-7.008566414e-04,-8.277549529e-04,-1.583884355e-04,-9.861433884e-04,-1.479389548e-04,-2.238785913e-04,-3.718175461e-04,-4.408529947e-04,-8.846087518e-05,-5.293138699e-04,1.022949651e-03,-1.605697448e-04,8.623799063e-04,-3.662636026e-04,1.070044335e-04,-2.592591692e-04,-8.634534593e-04,1.899631883e-05,-8.444571405e-04,4.504877468e-05,1.007159849e-04,1.457647596e-04,-2.090975814e-04,-2.038440025e-04,-4.129415839e-04,-8.557806344e-05,5.050853811e-06,-8.052720963e-05,-6.007387697e-04,-8.968066457e-05,-6.904194343e-04,-6.574206732e-04,-8.691213245e-06,-6.661118865e-04,-9.207217485e-04,1.365820904e-04,-7.841396581e-04,-5.965587267e-04,4.507193826e-05,-5.514867884e-04,8.436714778e-04,1.373384690e-05,8.574053247e-04,4.266902168e-04,4.004091904e-06,4.306943087e-04,8.366079625e-04,2.947755635e-05,8.660855188e-04,7.789734581e-04,-1.976938233e-05,7.592040758e-04,-6.147169203e-04,7.914938294e-05,-5.355675374e-04,-7.528460249e-04,-5.427183773e-06,-7.582732087e-04,-7.011868831e-04,-1.214016085e-04,-8.225884916e-04,5.058337723e-04,-6.284425928e-04,-1.226088205e-04,-5.565774697e-04,-1.699376425e-04,-7.265151122e-04,-1.486256675e-03,6.339263084e-04,-8.523303670e-04,-5.751923925e-04,-1.011983640e-04,-6.763907565e-04,-8.894191170e-04,-1.408262556e-04,-1.030245373e-03,-1.550532153e-03,-3.822525227e-04,-1.932784675e-03,-1.258856085e-03,1.169004352e-04,-1.141955650e-03,-5.657525653e-04,-2.581587555e-04,-8.239113209e-04,-5.541964252e-04,9.574182983e-05,-4.584545954e-04
-5.2,4.626411286e-04,-5.464402964e-05,4.079970989e-04,-4.325711025e-05,-4.347249022e-05,-8.672960048e-05,2.845232007e-04,-1.203569679e-04,1.641662328e-04,-4.764384334e-04,-3.706428889e-05,-5.135027222e-04,-5.193619978e-04,-1.769581671e-04,-6.963201649e-04,-9.627189651e-04,-5.364977553e-05,-1.016368741e-03,-6.610342697e-04,-1.044952987e-04,-7.655295683e-04,-8.750692309e-04,-1.383837554e-04,-1.013452986e-03,-2.101955422e-04,-2.099963357e-04,-4.201918780e-04,-4.563726783e-04,-5.945882826e-05,-5.158315065e-04,9.737633750e-04,-1.181541954e-04,8.556091796e-04,-4.892875967e-04,1.165600714e-04,-3.727275252e-04,-9.838187888e-04,4.366321769e-06,-9.794524671e-04,-2.824619735e-05,1.053303581e-04,7.708416079e-05,-3.224182534e-04,-1.785172872e-04,-5.009355405e-04,-2.336157784e-04,1.965729520e-06,-2.316500489e-04,-6.982429759e-04,-1.331751908e-04,-8.314181667e-04,-7.567726952e-04,-2.066128809e-07,-7.569793081e-04,-9.923946628e-04,1.344396370e-04,-8.579550257e-04,-6.136157404e-04,6.197207014e-05,-5.516436703e-04,7.851033991e-04,2.932320522e-05,8.144266043e-04,4.099161185e-04,9.757103700e-06,4.196732222e-04,6.942868838e-04,3.822165067e-05,7.325085345e-04,7.668296728e-04,-1.378025545e-05,7.530494173e-04,-6.537609771e-04,1.021452529e-04,-5.516157242e-04,-8.467635034e-04,5.151071377e-06,-8.416124320e-04,-7.294123651e-04,-1.471860614e-04,-8.765984265e-04,5.362839776e-04,-7.450737171e-04,-2.087897395e-04,-6.580389682e-04,-1.656647757e-04,-8.237037439e-04,-1.541588893e-03,6.379504832e-04,-9.036384093e-04,-6.707458271e-04,-9.418836893e-05,-7.649341960e-04,-9.855093535e-04,-1.101493346e-04,-1.095658688e-03,-1.626688496e-03,-3.749755812e-04,-2.001664077e-03,-1.341298913e-03,1.520914103e-04,-1.189207502e-03,-6.521090407e-04,-2.575282595e-04,-9.096373002e-04,-6.595662372e-04,1.529453659e-04,-5.066208713e-04
-5.1,4.288489090e-04,-4.588280378e-05,3.829661052e-04,-7.656901042e-05,-4.213403383e-05,-1.187030442e-04,2.073789286e-04,-1.068808343e-04,1.004980944e-04,-5.322873366e-04,-3.232080361e-05,-5.646081402e-04,-6.535544287e-04,-1.561705274e-04,-8.097249561e-04,-1.033165967e-03,-3.603514410e-05,-1.069201111e-03,-7.348309475e-04,-9.157761158e-05,-8.264085591e-04,-9.177665942e-04,-1.181268527e-04,-1.035893447e-03,-2.717825937e-04,-1.955173971e-04,-4.672999908e-04,-4.703146135e-04,-3.059404292e-05,-5.009086564e-04,9.166425886e-04,-7.569582688e-05,8.409467617e-04,-6.079439242e-04,1.245383123e-04,-4.834056119e-04,-1.099485686e-03,-9.546788429e-06,-1.109032474e-03,-1.004377981e-04,1.092970205e-04,8.859222486e-06,-4.346133063e-04,-1.516320033e-04,-5.862453097e-04,-3.788653207e-04,-9.235585784e-07,-3.797888793e-04,-7.905219262e-04,-1.770952704e-04,-9.676171965e-04,-8.514619554e-04,8.361719366e-06,-8.431002360e-04,-1.058450611e-03,1.314172248e-04,-9.270333861e-04,-6.290208603e-04,7.853020019e-05,-5.504906601e-04,7.197207098e-04,4.482700777e-05,7.645477175e-04,3.899752779e-04,1.547303169e-05,4.054483096e-04,5.454019425e-04,4.689520956e-05,5.922971520e-04,7.492082477e-04,-7.693367739e-06,7.415148800e-04,-6.887635385e-04,1.237652959e-04,-5.649982426e-04,-9.356235959e-04,1.545335333e-05,-9.201702425e-04,-7.527139508e-04,-1.726246919e-04,-9.253386428e-04,5.649914517e-04,-8.572273434e-04,-2.922358916e-04,-7.556790355e-04,-1.604871506e-04,-9.161661861e-04,-1.590526505e-03,6.390835388e-04,-9.514429662e-04,-7.614717433e-04,-8.785719590e-05,-8.493289392e-04,-1.075300937e-03,-7.994565735e-05,-1.155246595e-03,-1.693603729e-03,-3.671158494e-04,-2.060719579e-03,-1.418351020e-03,1.873293292e-04,-1.231021691e-03,-7.347800611e-04,-2.571292787e-04,-9.919093398e-04,-7.602999727e-04,2.073339035e-04,-5.529660692e-04
-5,3.913162019e-04,-3.663984951e-05,3.546763524e-04,-1.098271263e-04,-4.056020914e-05,-1.503873354e-04,1.270768460e-04,-9.292488775e-05,3.415195823e-05,-5.863783377e-04,-2.762178169e-05,-6.140001194e-04,-7.852772921e-04,-1.347913903e-04,-9.200686825e-04,-1.099121767e-03,-1.796384114e-05,-1.117085608e-03,-8.053489396e-04,-7.810682683e-05,-8.834557664e-04,-9.560615044e-04,-9.763008839e-05,-1.053691593e-03,-3.327939230e-04,-1.804415460e-04,-5.132354691e-04,-4.830213011e-04,-1.887822609e-06,-4.849091237e-04,8.513470186e-04,-3.325136136e-05,8.180956573e-04,-7.219813352e-04,1.310663016e-04,-5.909150337e-04,-1.210344336e-03,-2.257520822e-05,-1.232919544e-03,-1.714138708e-04,1.126632413e-04,-5.875062946e-05,-5.451276510e-04,-1.235718210e-04,-6.686994721e-04,-5.209302049e-04,-3.537167764e-06,-5.244673726e-04,-8.777170926e-04,-2.208524831e-04,-1.098569576e-03,-9.413444137e-04,1.697566635e-05,-9.243687474e-04,-1.119108501e-03,1.276887999e-04,-9.914197006e-04,-6.431609403e-04,9.475019282e-05,-5.484107475e-04,6.473948390e-04,6.027696370e-05,7.076718027e-04,3.666416448e-04,2.116283630e-05,3.878044811e-04,3.902431876e-04,5.554170040e-05,4.457848880e-04,7.260528689e-04,-1.468511892e-06,7.245843570e-04,-7.198700600e-04,1.439941499e-04,-5.758759102e-04,-1.019464339e-03,2.550227487e-05,-9.939620640e-04,-7.712868439e-04,-1.975320046e-04,-9.688188485e-04,5.902697406e-04,-9.630821604e-04,-3.728124198e-04,-8.493299279e-04,-1.543790172e-04,-1.003708945e-03,-1.633302286e-03,6.373619593e-04,-9.959403271e-04,-8.472632132e-04,-8.216849189e-05,-9.294317051e-04,-1.158682485e-03,-5.044718952e-05,-1.209129674e-03,-1.751299076e-03,-3.590457655e-04,-2.110344842e-03,-1.489852315e-03,2.222114325e-04,-1.267640882e-03,-8.137704137e-04,-2.569537154e-04,-1.070724129e-03,-8.563325278e-04,2.585940284e-04,-5.977384994e-04
-4.9,3.499979139e-04,-2.689796135e-05,3.230999526e-04,-1.430994479e-04,-3.873007383e-05,-1.818295217e-04,4.353275390e-05,-7.843564763e-05,-3.490289373e-05,-6.388975296e-04,-2.294031980e-05,-6.618378494e-04,-9.142901718e-04,-1.127916260e-04,-1.027081798e-03,-1.160695143e-03,5.425453522e-07,-1.160152598e-03,-8.725688424e-04,-6.408408168e-05,-9.366529241e-04,-9.901903531e-04,-7.690581054e-05,-1.067096164e-03,-3.933160366e-04,-1.647702644e-04,-5.580863010e-04,-4.948275453e-04,2.664200352e-05,-4.681855418e-04,7.777281261e-04,9.126339698e-06,7.868544658e-04,-8.311892863e-04,1.362880517e-04,-6.949012347e-04,-1.316268473e-03,-3.459651999e-05,-1.350864993e-03,-2.410717203e-04,1.154804716e-04,-1.255912486e-04,-6.534021523e-04,-9.472271953e-05,-7.481248719e-04,-6.594470068e-04,-5.797880246e-06,-6.652448870e-04,-9.600242773e-04,-2.638395104e-04,-1.223863788e-03,-1.026310542e-03,2.559353517e-05,-1.000717007e-03,-1.174613870e-03,1.234368161e-04,-1.051177054e-03,-6.564089497e-04,1.106377383e-04,-5.457712114e-04,5.680785063e-04,7.570414414e-05,6.437826505e-04,3.397286834e-04,2.683774329e-05,3.665664267e-04,2.291754747e-04,6.420365392e-05,2.933791286e-04,6.973615877e-04,4.932401457e-06,7.022939892e-04,-7.472500670e-04,1.628343806e-04,-5.844156864e-04,-1.098359453e-03,3.532424951e-05,-1.063035203e-03,-7.853554942e-04,-2.217296615e-04,-1.007085156e-03,6.104473840e-04,-1.060855569e-03,-4.504081854e-04,-9.388482911e-04,-1.473258520e-04,-1.086174143e-03,-1.670163314e-03,6.328327813e-04,-1.037330533e-03,-9.280718634e-04,-7.705936822e-05,-1.005131232e-03,-1.235607935e-03,-2.185269636e-05,-1.257460632e-03,-1.799856465e-03,-3.511211653e-04,-2.150977631e-03,-1.555640195e-03,2.563242999e-04,-1.299315895e-03,-8.891229471e-04,-2.569336732e-04,-1.146056620e-03,-9.476407163e-04,3.064633237e-04,-6.411773926e-04
-4.8,3.048953246e-04,-1.664602707e-05,2.882492975e-04,-1.764432240e-04,-3.662443703e-05,-2.130676610e-04,-4.328793029e-05,-6.336257366e-05,-1.066505039e-04,-6.900217937e-04,-1.824809579e-05,-7.082698895e-04,-1.040357978e-03,-9.014527897e-05,-1.130503257e-03,-1.218008112e-03,1.945404714e-05,-1.198554065e-03,-9.364835282e-04,-4.951628577e-05,-9.859998140e-04,-1.020407340e-03,-5.596584143e-05,-1.076373181e-03,-4.534255509e-04,-1.485066006e-04,-6.019321514e-04,-5.060559709e-04,5.498085656e-05,-4.510751143e-04,6.957309147e-04,5.138858155e-05,7.471194962e-04,-9.353973342e-04,1.403604096e-04,-7.950369246e-04,-1.417117830e-03,-4.553090536e-05,-1.462648735e-03,-3.093190148e-04,1.178033227e-04,-1.915156922e-04,-7.588832117e-04,-6.546665935e-05,-8.243498711e-04,-7.940844159e-04,-7.632457169e-06,-8.017168731e-04,-1.037684857e-03,-3.054421454e-04,-1.343127003e-03,-1.106283234e-03,3.416810544e-05,-1.072115128e-03,-1.225233297e-03,1.188486378e-04,-1.106384659e-03,-6.691185909e-04,1.261997176e-04,-5.429188733e-04,4.818064318e-04,9.113803571e-05,5.729444675e-04,3.090924127e-04,3.250865579e-05,3.416010685e-04,6.263564585e-05,7.292149173e-05,1.355571376e-04,6.631871856e-04,1.154436896e-05,6.747315545e-04,-7.710946203e-04,1.803060514e-04,-5.907885689e-04,-1.172412040e-03,4.494803082e-05,-1.127464009e-03,-7.951750988e-04,-2.450427930e-04,-1.040217892e-03,6.239203485e-04,-1.148854286e-03,-5.249339372e-04,-1.024113328e-03,-1.393255896e-04,-1.163438917e-03,-1.701361992e-03,6.255509994e-04,-1.075810992e-03,-1.003902719e-03,-7.244357657e-05,-1.076346295e-03,-1.306087853e-03,5.671496497e-06,-1.300416357e-03,-1.839418954e-03,-3.436701570e-04,-2.183089111e-03,-1.615555751e-03,2.892556697e-04,-1.326300081e-03,-9.609169652e-04,-2.569387907e-04,-1.217855756e-03,-1.034237941e-03,3.507310843e-04,-6.835068565e-04
-4.7,2.560554592e-04,-5.879490732e-06,2.501759685e-04,-2.099037703e-04,-3.422601037e-05,-2.441297806e-04,-1.333689998e-04,-4.765917462e-05,-1.810281744e-04,-7.399160761e-04,-1.351555126e-05,-7.534316274e-04,-1.163251512e-03,-6.683006096e-05,-1.230081573e-03,-1.271193268e-03,3.873304523e-05,-1.232460222e-03,-9.970967363e-04,-3.441603200e-05,-1.031512768e-03,-1.046980340e-03,-3.482120942e-05,-1.081801550e-03,-5.131869403e-04,-1.316549746e-04,-6.448419149e-04,-5.170129617e-04,8.311720069e-05,-4.338957610e-04,6.053946726e-04,9.349108603e-05,6.988857586e-04,-1.034474388e-03,1.434490691e-04,-8.910253185e-04,-1.512744480e-03,-5.533540618e-05,-1.568079886e-03,-3.760739229e-04,1.196884766e-04,-2.563854463e-04,-8.610325803e-04,-3.617563595e-05,-8.972082162e-04,-9.245425684e-04,-8.972854826e-06,-9.335154232e-04,-1.110972791e-03,-3.450541399e-04,-1.456026931e-03,-1.181216291e-03,4.264569993e-05,-1.138570591e-03,-1.271249279e-03,1.141117398e-04,-1.157137539e-03,-6.816195006e-04,1.414436920e-04,-5.401758086e-04,3.886954422e-04,1.066055544e-04,4.953009966e-04,2.746342241e-04,3.818555419e-05,3.128197783e-04,-1.088700559e-04,8.173240551e-05,-2.713765039e-05,6.236372787e-04,1.839841931e-05,6.420356980e-04,-7.916139079e-04,1.964461692e-04,-5.951677387e-04,-1.241749058e-03,5.440383914e-05,-1.187345219e-03,-8.010330176e-04,-2.672962834e-04,-1.068329301e-03,6.292002172e-04,-1.225524278e-03,-5.963240605e-04,-1.105026182e-03,-1.303881916e-04,-1.235414374e-03,-1.727147729e-03,6.155773518e-04,-1.111570377e-03,-1.074806891e-03,-6.821597509e-05,-1.143022866e-03,-1.370180818e-03,3.199151866e-05,-1.338189299e-03,-1.870192693e-03,-3.369801698e-04,-2.207172863e-03,-1.669449300e-03,3.206043047e-04,-1.348844995e-03,-1.029265117e-03,-2.567780094e-04,-1.286043126e-03,-1.116168003e-03,3.912380207e-04,-7.249299820e-04
-4.6,2.035705698e-04,5.399298575e-06,2.089698684e-04,-2.435131235e-04,-3.151950254e-05,-2.750326261e-04,-2.266415387e-04,-3.128408447e-05,-2.579256231e-04,-7.887302410e-04,-8.712136204e-06,-7.974423772e-04,-1.282747220e-03,-4.282783391e-05,-1.325575053e-03,-1.320390722e-03,5.833520320e-05,-1.262055519e-03,-1.054421160e-03,-1.880140895e-05,-1.073222568e-03,-1.070185846e-03,-1.348234883e-05,-1.083668195e-03,-5.726498248e-04,-1.142210476e-04,-6.868708724e-04,-5.279842402e-04,1.110422403e-04,-4.169419999e-04,5.068539255e-04,1.353940652e-04,6.422479908e-04,-1.128325961e-03,1.457245046e-04,-9.826014567e-04,-1.603000886e-03,-6.399665078e-05,-1.666997537e-03,-4.412628892e-04,1.211934631e-04,-3.200694261e-04,-9.593345662e-04,-7.205908292e-06,-9.665404745e-04,-1.050551276e-03,-9.757230208e-06,-1.060308506e-03,-1.180176543e-03,-3.820934426e-04,-1.562269986e-03,-1.251092072e-03,5.096644619e-05,-1.200125626e-03,-1.312954891e-03,1.094081118e-04,-1.203546779e-03,-6.942123169e-04,1.563775850e-04,-5.378347320e-04,2.889453706e-04,1.221301332e-04,4.110755038e-04,2.363043935e-04,4.387697283e-05,2.801813663e-04,-2.847670124e-04,9.066939105e-05,-1.940976213e-04,5.788749734e-04,2.552086197e-05,6.043958354e-04,-8.090339837e-04,2.113080147e-04,-5.977259690e-04,-1.306515635e-03,6.372305297e-05,-1.242792582e-03,-8.032486394e-04,-2.883114284e-04,-1.091560068e-03,6.249617224e-04,-1.289501619e-03,-6.645398963e-04,-1.181508571e-03,-1.205346354e-04,-1.302043206e-03,-1.747758870e-03,6.029771626e-04,-1.144781707e-03,-1.140872713e-03,-6.425736088e-05,-1.205130074e-03,-1.427983968e-03,5.700677725e-05,-1.370977191e-03,-1.892448195e-03,-3.312851162e-04,-2.223733311e-03,-1.717185219e-03,3.499889654e-04,-1.367196254e-03,-1.094309157e-03,-2.562036731e-04,-1.350512830e-03,-1.193498173e-03,4.278765242e-04,-7.656216488e-04
-4.5,1.475784621e-04,1.718085623e-05,1.647593183e-04,-2.772880175e-04,-2.849165644e-05,-3.057796739e-04,-3.229803316e-04,-1.420217297e-05,-3.371825046e-04,-8.365946880e-04,-3.806730040e-06,-8.404014181e-04,-1.398625500e-03,-1.812516596e-05,-1.416750666e-03,-1.365743740e-03,7.821027405e-05,-1.287533466e-03,-1.108475514e-03,-2.695786917e-06,-1.111171301e-03,-1.090302403e-03,8.040188480e-06,-1.082262214e-03,-6.318453052e-04,-9.621169728e-05,-7.280570025e-04,-5.392295735e-04,1.387494609e-04,-4.004801126e-04,4.003403293e-04,1.770620995e-04,5.774024288e-04,-1.216888372e-03,1.473578393e-04,-1.069530533e-03,-1.687746682e-03,-7.152348233e-05,-1.759270164e-03,-5.048155221e-04,1.223753941e-04,-3.824401280e-04,-1.053298218e-03,2.110655819e-05,-1.032191660e-03,-1.171865898e-03,-9.931079094e-06,-1.181796977e-03,-1.245577472e-03,-4.160182837e-04,-1.661595755e-03,-1.315916722e-03,5.906528265e-05,-1.256851439e-03,-1.350647347e-03,1.049084083e-04,-1.245738939e-03,-7.071631191e-04,1.710095310e-04,-5.361535881e-04,1.828414415e-04,1.377310603e-04,3.205725018e-04,1.941066366e-04,4.958965258e-05,2.436962892e-04,-4.644114248e-04,9.976047773e-05,-3.646509471e-04,5.291203412e-04,3.293265685e-05,5.620529980e-04,-8.235918475e-04,2.249602539e-04,-5.986315936e-04,-1.366868204e-03,7.293816213e-05,-1.293930042e-03,-8.021702731e-04,-3.079034386e-04,-1.110073712e-03,6.100862291e-04,-1.339659601e-03,-7.295733723e-04,-1.253499268e-03,-1.097963777e-04,-1.363295646e-03,-1.763414803e-03,5.878211120e-04,-1.175593691e-03,-1.202215560e-03,-6.043935809e-05,-1.262654918e-03,-1.479621675e-03,8.065039933e-05,-1.398971276e-03,-1.906519925e-03,-3.267538398e-04,-2.233273765e-03,-1.758645917e-03,3.770570751e-04,-1.381588842e-03,-1.156212645e-03,-2.549187818e-04,-1.411131427e-03,-1.266312042e-03,4.605922973e-04,-8.057197451e-04
-4.4,8.826367469e-05,2.944839378e-05,1.177120685e-04,-3.112271084e-04,-2.513131183e-05,-3.363584202e-04,-4.221990630e-04,3.614278911e-06,-4.185847841e-04,-8.836148476e-04,1.231722916e-06,-8.823831247e-04,-1.510667782e-03,7.286016721e-06,-1.503381766e-03,-1.407393112e-03,9.830263369e-05,-1.309090478e-03,-1.159280709e-03,1.387242320e-05,-1.145408285e-03,-1.107602950e-03,2.973472068e-05,-1.077868230e-03,-6.907815984e-04,-7.763505496e-05,-7.684166533e-04,-5.509768571e-04,1.662340341e-04,-3.847428230e-04,2.861850074e-04,2.184638820e-04,5.046488894e-04,-1.300120643e-03,1.485169926e-04,-1.151603651e-03,-1.766852740e-03,-7.794028474e-05,-1.844793024e-03,-5.666579319e-04,1.232898410e-04,-4.433680909e-04,-1.142455329e-03,4.844867394e-05,-1.094006655e-03,-1.288261110e-03,-9.448689448e-06,-1.297709800e-03,-1.307427707e-03,-4.463420430e-04,-1.753769750e-03,-1.375712846e-03,6.687334006e-05,-1.308839506e-03,-1.384619780e-03,1.007662757e-04,-1.283853504e-03,-7.206973575e-04,1.853476464e-04,-5.353497111e-04,7.075739154e-05,1.534231032e-04,2.241804947e-04,1.481030494e-04,5.532831706e-05,2.034313665e-04,-6.470890355e-04,1.090280887e-04,-5.380609467e-04,4.746520907e-04,4.064887395e-05,5.153009646e-04,-8.355288731e-04,2.374856756e-04,-5.980431976e-04,-1.422966211e-03,8.208260623e-05,-1.340883604e-03,-7.981685165e-04,-3.258804338e-04,-1.124048950e-03,5.836948414e-04,-1.375144651e-03,-7.914498099e-04,-1.320948868e-03,-9.821506967e-05,-1.419163938e-03,-1.774309148e-03,5.701881706e-04,-1.204120977e-03,-1.258966659e-03,-5.662946998e-05,-1.315596129e-03,-1.525233353e-03,1.028885578e-04,-1.422344795e-03,-1.912805105e-03,-3.234798930e-04,-2.236284998e-03,-1.793734036e-03,4.014921128e-04,-1.392241924e-03,-1.215148599e-03,-2.525895010e-04,-1.467738100e-03,-1.334702462e-03,4.893862160e-04,-8.453162463e-04
-4.3,2.585858760e-05,4.217766193e-05,6.803624953e-05,-3.453080785e-04,-2.142957672e-05,-3.667376553e-04,-5.240461480e-04,2.218440816e-05,-5.018617399e-04,-9.298657444e-04,6.433473258e-06,-9.234322712e-04,-1.618653500e-03,3.340776372e-05,-1.585245736e-03,-1.445471454e-03,1.185517004e-04,-1.326919753e-03,-1.206855948e-03,3.087007702e-05,-1.175985871e-03,-1.122347362e-03,5.158750897e-05,-1.070759853e-03,-7.494399228e-04,-5.850054066e-05,-8.079404635e-04,-5.634165821e-04,1.934921237e-04,-3.699244584e-04,1.648198138e-04,2.595718828e-04,4.243916966e-04,-1.377996336e-03,1.493634358e-04,-1.228632900e-03,-1.840203214e-03,-8.328105601e-05,-1.923484270e-03,-6.267070630e-04,1.239899440e-04,-5.027171191e-04,-1.226358202e-03,7.453142722e-05,-1.151826775e-03,-1.399524479e-03,-8.274481129e-06,-1.407798960e-03,-1.365932248e-03,-4.726450604e-04,-1.838577309e-03,-1.430511553e-03,7.431976006e-05,-1.356191793e-03,-1.415151717e-03,9.711330004e-05,-1.318038417e-03,-7.349941208e-04,1.993994748e-04,-5.355946460e-04,-4.684259457e-05,1.692162520e-04,1.223736574e-04,9.841802579e-05,6.109540079e-05,1.595134266e-04,-8.320156379e-04,1.184884350e-04,-7.135272029e-04,4.158082461e-04,4.867822430e-05,4.644864704e-04,-8.450837595e-04,2.489795327e-04,-5.961042268e-04,-1.474963265e-03,9.119016597e-05,-1.383773099e-03,-7.916268423e-04,-3.420445826e-04,-1.133671425e-03,5.451693051e-04,-1.395396636e-03,-8.502273306e-04,-1.383814475e-03,-8.584146953e-05,-1.469655944e-03,-1.780605297e-03,5.501699032e-04,-1.230435393e-03,-1.311262162e-03,-5.269606689e-05,-1.363958229e-03,-1.564963551e-03,1.237191662e-04,-1.441244385e-03,-1.911762500e-03,-3.214736206e-04,-2.233236121e-03,-1.822372121e-03,4.230181457e-04,-1.399353976e-03,-1.271283892e-03,-2.488623953e-04,-1.520146288e-03,-1.398765016e-03,5.143144206e-04,-8.844505957e-04
-4.2,-3.935686567e-05,5.533685002e-05,1.597998435e-05,-3.794856432e-04,-1.738008789e-05,-3.968657311e-04,-6.282031902e-04,4.151770451e-05,-5.866854857e-04,-9.753881119e-04,1.182728707e-05,-9.635608248e-04,-1.722358251e-03,6.023552926e-05,-1.662122722e-03,-1.480098996e-03,1.388925178e-04,-1.341206478e-03,-1.251215749e-03,4.825965805e-05,-1.202956091e-03,-1.134776674e-03,7.358229029e-05,-1.061194384e-03,-8.077716863e-04,-3.881887334e-05,-8.465905597e-04,-5.766978088e-04,2.205201229e-04,-3.561776859e-04,3.677603878e-05,3.003619351e-04,3.371379739e-04,-1.450497577e-03,1.500496565e-04,-1.300447921e-03,-1.907696856e-03,-8.758382568e-05,-1.995280682e-03,-6.848680319e-04,1.245257161e-04,-5.603423158e-04,-1.304581134e-03,9.909103189e-05,-1.205490102e-03,-1.505451824e-03,-6.383781695e-06,-1.511835605e-03,-1.421239558e-03,-4.945815426e-04,-1.915821100e-03,-1.480346556e-03,8.133425511e-05,-1.399012301e-03,-1.442500073e-03,9.405520857e-05,-1.348444865e-03,-7.501818948e-04,2.131711644e-04,-5.370107304e-04,-1.694049213e-04,1.851154114e-04,1.571049009e-05,4.523987149e-05,6.689064494e-05,1.121305164e-04,-1.018341009e-03,1.281509194e-04,-8.901900900e-04,3.529848599e-04,5.702268737e-05,4.100075473e-04,-8.524867203e-04,2.595476264e-04,-5.929390939e-04,-1.522999108e-03,1.002937760e-04,-1.422705332e-03,-7.829308106e-04,-3.561957075e-04,-1.139126518e-03,4.941618753e-04,-1.400152486e-03,-9.059906106e-04,-1.442055736e-03,-7.273301144e-05,-1.514788748e-03,-1.782435176e-03,5.278749579e-04,-1.254560218e-03,-1.359234426e-03,-4.851253831e-05,-1.407746964e-03,-1.598956881e-03,1.431705056e-04,-1.455786375e-03,-1.903909991e-03,-3.206593861e-04,-2.224569378e-03,-1.844500702e-03,4.414010703e-04,-1.403099632e-03,-1.324765254e-03,-2.433836058e-04,-1.568148860e-03,-1.458592446e-03,5.354852955e-04,-9.231071503e-04
-4.1,-1.070577549e-04,6.888663947e-05,-3.817111544e-05,-4.136912478e-04,-1.297926955e-05,-4.266705173e-04,-7.342870231e-04,6.161309592e-05,-6.726739272e-04,-1.020186958e-03,1.743991596e-05,-1.002747042e-03,-1.821553861e-03,8.775774292e-05,-1.733796118e-03,-1.511381751e-03,1.592566334e-04,-1.352125117e-03,-1.292368496e-03,6.599963376e-05,-1.226368862e-03,-1.145109875e-03,9.570043612e-05,-1.049409439e-03,-8.656975982e-04,-1.860204958e-05,-8.842996478e-04,-5.909263195e-04,2.473138891e-04,-3.436124304e-04,-9.732009241e-05,3.408127536e-04,2.434926612e-04,-1.517612576e-03,1.507174162e-04,-1.366895160e-03,-1.969248351e-03,-9.088515766e-05,-2.060133509e-03,-7.410350644e-04,1.249435126e-04,-6.160915519e-04,-1.376727178e-03,1.218909948e-04,-1.254836183e-03,-1.605845501e-03,-3.763024158e-06,-1.609608525e-03,-1.473441228e-03,-5.118818370e-04,-1.985323065e-03,-1.525252099e-03,8.785057277e-05,-1.437401526e-03,-1.466892639e-03,9.166972008e-05,-1.375222919e-03,-7.663366950e-04,2.266666993e-04,-5.396699956e-04,-2.962913218e-04,2.011200516e-04,-9.517127018e-05,-1.118044917e-05,7.271066166e-05,6.153021248e-05,-1.205156532e-03,1.380176034e-04,-1.067138929e-03,2.866324633e-04,6.567727300e-05,3.523097363e-04,-8.579560548e-04,2.693042536e-04,-5.886518011e-04,-1.567193559e-03,1.094239310e-04,-1.457769628e-03,-7.724573269e-04,-3.681370016e-04,-1.140594329e-03,4.305943335e-04,-1.389434528e-03,-9.588401946e-04,-1.495632735e-03,-5.895048273e-05,-1.554583217e-03,-1.779901104e-03,5.034327261e-04,-1.276468377e-03,-1.403007033e-03,-4.395972846e-05,-1.446966762e-03,-1.627357479e-03,1.612991712e-04,-1.466058308e-03,-1.889819227e-03,-3.208801769e-04,-2.210699403e-03,-1.860077114e-03,4.564473149e-04,-1.403629799e-03,-1.375710465e-03,-2.358179835e-04,-1.611528449e-03,-1.514270061e-03,5.530534710e-04,-9.612165903e-04
-4,-1.768790062e-04,8.278043097e-05,-9.409857522e-05,-4.478346307e-04,-8.226535280e-06,-4.560611660e-04,-8.418551146e-04,8.245817475e-05,-7.593969398e-04,-1.064232692e-03,2.329571048e-05,-1.040936981e-03,-1.916010280e-03,1.159555110e-04,-1.800054769e-03,-1.539412103e-03,1.795732095e-04,-1.359838893e-03,-1.330316588e-03,8.404477281e-05,-1.246271815e-03,-1.153543268e-03,1.179216314e-04,-1.035621637e-03,-9.231087786e-04,2.136727694e-06,-9.209720509e-04,-6.061650703e-04,2.738681143e-04,-3.322969560e-04,-2.367549458e-04,3.809054374e-04,1.441504916e-04,-1.579336566e-03,1.514967685e-04,-1.427839797e-03,-2.024789731e-03,-9.321518430e-05,-2.118004915e-03,-7.950954829e-04,1.252857094e-04,-6.698097735e-04,-1.442439266e-03,1.427252068e-04,-1.299714059e-03,-1.700515962e-03,-4.094644856e-07,-1.700925426e-03,-1.522578114e-03,-5.243520716e-04,-2.046930185e-03,-1.565264879e-03,9.381068883e-05,-1.471454190e-03,-1.488524798e-03,9.000580927e-05,-1.398518989e-03,-7.834827941e-04,2.398874182e-04,-5.435953759e-04,-4.267869538e-04,2.172239270e-04,-2.095630268e-04,-7.053323248e-05,7.854861560e-05,8.015383121e-06,-1.391505712e-03,1.480827801e-04,-1.243422932e-03,2.172505790e-04,7.462990601e-05,2.918804850e-04,-8.616971605e-04,2.783700243e-04,-5.833271362e-04,-1.607643066e-03,1.186070190e-04,-1.489036047e-03,-7.605649842e-04,-3.776819902e-04,-1.138246974e-03,3.546483927e-04,-1.363529361e-03,-1.008880968e-03,-1.544505587e-03,-4.455482863e-05,-1.589060415e-03,-1.773079806e-03,4.769955241e-04,-1.296084282e-03,-1.442694234e-03,-3.892609015e-05,-1.481620325e-03,-1.650310655e-03,1.781861938e-04,-1.472124461e-03,-1.870107424e-03,-3.219083179e-04,-2.192015742e-03,-1.869077461e-03,4.680012701e-04,-1.401076191e-03,-1.424205854e-03,-2.258664322e-04,-1.650072287e-03,-1.565872419e-03,5.672124403e-04,-9.986599784e-04
-3.9,-2.484219240e-04,9.696468566e-05,-1.514572383e-04,-4.818068991e-04,-3.124433824e-06,-4.849313329e-04,-9.504133727e-04,1.040285642e-04,-8.463848084e-04,-1.107464327e-03,2.941634756e-05,-1.078047979e-03,-2.005498838e-03,1.448024351e-04,-1.860696403e-03,-1.564271254e-03,1.997702589e-04,-1.364500995e-03,-1.365057886e-03,1.023464602e-04,-1.262711425e-03,-1.160251733e-03,1.402247932e-04,-1.020026939e-03,-9.798694867e-04,2.338318457e-05,-9.564863021e-04,-6.224365690e-04,3.001759419e-04,-3.222606271e-04,-3.807372514e-04,4.206229976e-04,3.988574619e-05,-1.635675075e-03,1.525055258e-04,-1.483169549e-03,-2.074271301e-03,-9.459427807e-05,-2.168865579e-03,-8.469354541e-04,1.255906231e-04,-7.213448310e-04,-1.501413021e-03,1.614214534e-04,-1.339991567e-03,-1.789286183e-03,3.669562867e-06,-1.785616620e-03,-1.568650155e-03,-5.318726374e-04,-2.100522792e-03,-1.600428970e-03,9.916945305e-05,-1.501259517e-03,-1.507558952e-03,8.908380608e-05,-1.418475145e-03,-8.015955144e-04,2.528317519e-04,-5.487637625e-04,-5.601107390e-04,2.334148630e-04,-3.266958759e-04,-1.324558083e-04,8.439404677e-05,-4.806176154e-05,-1.576396227e-03,1.583326767e-04,-1.418063550e-03,1.453809934e-04,8.386138148e-05,2.292423749e-04,-8.639032947e-04,2.868695678e-04,-5.770337269e-04,-1.644419747e-03,1.278637949e-04,-1.516555952e-03,-7.475858422e-04,-3.846618764e-04,-1.132247719e-03,2.667544502e-04,-1.322965488e-03,-1.056211038e-03,-1.588635215e-03,-2.960499189e-05,-1.618240207e-03,-1.762027132e-03,4.487389241e-04,-1.313288208e-03,-1.478404325e-03,-3.330576372e-05,-1.511710089e-03,-1.667964512e-03,1.939310258e-04,-1.474033486e-03,-1.845427696e-03,-3.234583996e-04,-2.168886096e-03,-1.871503224e-03,4.759434861e-04,-1.395559738e-03,-1.470310163e-03,-2.132783467e-04,-1.683588510e-03,-1.613461946e-03,5.781870500e-04,-1.035274896e-03
-3.8,-3.212614644e-04,1.113793713e-04,-2.098820930e-04,-5.154844468e-04,2.321259661e-06,-5.131631871e-04,-1.059425018e-03,1.262874746e-04,-9.331375433e-04,-1.149793886e-03,3.582066024e-05,-1.113973226e-03,-2.089796038e-03,1.742645423e-04,-1.915531496e-03,-1.586032658e-03,2.197759781e-04,-1.366256680e-03,-1.396587884e-03,1.208530862e-04,-1.275734798e-03,-1.165390852e-03,1.625889084e-04,-1.002801944e-03,-1.035820766e-03,4.512213047e-05,-9.906986351e-04,-6.397263832e-04,3.262287991e-04,-3.134975842e-04,-5.284089271e-04,4.599498590e-04,-6.845906809e-05,-1.686648020e-03,1.538489717e-04,-1.532799048e-03,-2.117661197e-03,-9.503260397e-05,-2.212693801e-03,-8.964457140e-04,1.258925898e-04,-7.705531242e-04,-1.553408125e-03,1.778446374e-04,-1.375563487e-03,-1.871997479e-03,8.457639206e-06,-1.863539839e-03,-1.611628347e-03,-5.343953261e-04,-2.146023673e-03,-1.630802145e-03,1.038995365e-04,-1.526902609e-03,-1.524125570e-03,8.889590617e-05,-1.435229663e-03,-8.206050600e-04,2.654949670e-04,-5.551100930e-04,-6.954263940e-04,2.496744927e-04,-4.457519013e-04,-1.965390023e-04,9.023276756e-05,-1.063062347e-04,-1.758811875e-03,1.687453166e-04,-1.590066559e-03,7.160065325e-05,9.334537365e-05,1.649460269e-04,-8.647571209e-04,2.949292708e-04,-5.698278501e-04,-1.677572102e-03,1.372080018e-04,-1.540364100e-03,-7.338183282e-04,-3.889325813e-04,-1.122750909e-03,1.675836710e-04,-1.268492564e-03,-1.100908893e-03,-1.627984544e-03,-1.415699665e-05,-1.642141541e-03,-1.746781765e-03,4.188599009e-04,-1.327921865e-03,-1.510244589e-03,-2.699600228e-05,-1.537240592e-03,-1.680470257e-03,2.086439243e-04,-1.471826332e-03,-1.816458412e-03,-3.251994505e-04,-2.141657862e-03,-1.867391769e-03,4.801915856e-04,-1.387200184e-03,-1.514063048e-03,-1.978570950e-04,-1.711920143e-03,-1.657089055e-03,5.862250891e-04,-1.070863966e-03
-3.7,-3.949532475e-04,1.259585807e-04,-2.689946667e-04,-5.487329081e-04,8.101529718e-06,-5.406313784e-04,-1.168318986e-03,1.491855051e-04,-1.019133481e-03,-1.191110819e-03,4.252454550e-05,-1.148586273e-03,-2.168686938e-03,2.043002948e-04,-1.964386643e-03,-1.604765383e-03,2.395201555e-04,-1.365245227e-03,-1.424901891e-03,1.395105458e-04,-1.285391345e-03,-1.169098784e-03,1.849935548e-04,-9.841052289e-04,-1.090784098e-03,6.733753064e-05,-1.023446567e-03,-6.579867248e-04,3.520162872e-04,-3.059704376e-04,-6.788555450e-04,4.988712297e-04,-1.799843153e-04,-1.732292999e-03,1.556199191e-04,-1.576673080e-03,-2.154942909e-03,-9.453318952e-05,-2.249476098e-03,-9.435252980e-04,1.262220442e-04,-8.173032538e-04,-1.598255831e-03,1.918995408e-04,-1.406356290e-03,-1.948514476e-03,1.393006689e-05,-1.934584409e-03,-1.651467916e-03,-5.319377558e-04,-2.183405671e-03,-1.656461765e-03,1.079962912e-04,-1.548465474e-03,-1.538324719e-03,8.940701995e-05,-1.448917699e-03,-8.404002913e-04,2.778688492e-04,-5.625314421e-04,-8.318525119e-04,2.659778859e-04,-5.658746261e-04,-2.623331005e-04,9.604684678e-05,-1.662862537e-04,-1.937722816e-03,1.792905997e-04,-1.758432216e-03,-3.484978442e-06,1.030485420e-04,9.956356360e-05,-8.644320339e-04,3.026752414e-04,-5.617567925e-04,-1.707126160e-03,1.466451429e-04,-1.560481017e-03,-7.195207089e-04,-3.903807591e-04,-1.109901468e-03,5.803966889e-05,-1.201057803e-03,-1.143018134e-03,-1.662519204e-03,1.736140296e-06,-1.660783064e-03,-1.727367269e-03,3.875733534e-04,-1.339793916e-03,-1.538324191e-03,-1.989593355e-05,-1.558220124e-03,-1.687980217e-03,2.224374037e-04,-1.465542814e-03,-1.783890812e-03,-3.267660863e-04,-2.110656898e-03,-1.856827222e-03,4.807036317e-04,-1.376123590e-03,-1.555494107e-03,-1.794597022e-04,-1.734953809e-03,-1.696791471e-03,5.915865015e-04,-1.105204969e-03
-3.6,-4.690393347e-04,1.406313453e-04,-3.284079894e-04,-5.814103319e-04,1.420419924e-05,-5.672061327e-04,-1.276496438e-03,1.726606780e-04,-1.103835760e-03,-1.231285226e-03,4.954088545e-05,-1.181744341e-03,-2.241967138e-03,2.348605974e-04,-2.007106540e-03,-1.620536272e-03,2.589355232e-04,-1.361600749e-03,-1.449996420e-03,1.582628150e-04,-1.291733605e-03,-1.171496929e-03,2.074190174e-04,-9.640779112e-04,-1.144564215e-03,9.001241473e-05,-1.054551800e-03,-6.771391380e-04,3.775259912e-04,-2.996131468e-04,-8.311152523e-04,5.373722783e-04,-2.937429739e-04,-1.772666114e-03,1.578990726e-04,-1.614767041e-03,-2.186110526e-03,-9.309787745e-05,-2.279208404e-03,-9.880817444e-04,1.266054659e-04,-8.614762784e-04,-1.635861637e-03,2.035336734e-04,-1.432327964e-03,-2.018727537e-03,2.005436614e-05,-1.998673171e-03,-1.688120905e-03,-5.245741900e-04,-2.212695095e-03,-1.677508253e-03,1.114815179e-04,-1.566026735e-03,-1.550227001e-03,9.055620623e-05,-1.459670795e-03,-8.608315946e-04,2.899414326e-04,-5.708901620e-04,-9.684704653e-04,2.822932167e-04,-6.861772485e-04,-3.293524807e-04,1.018147978e-04,-2.275376828e-04,-2.112093131e-03,1.899306284e-04,-1.922162503e-03,-7.924753992e-05,1.129307730e-04,3.368323306e-05,-8.630922881e-04,3.102315518e-04,-5.528607363e-04,-1.733085823e-03,1.561714316e-04,-1.576914392e-03,-7.049048649e-04,-3.889281731e-04,-1.093833038e-03,-6.075746850e-05,-1.121775744e-03,-1.182533212e-03,-1.692206859e-03,1.802418289e-05,-1.674182677e-03,-1.703793479e-03,3.551087863e-04,-1.348684693e-03,-1.562752434e-03,-1.190775277e-05,-1.574660187e-03,-1.690642969e-03,2.354174691e-04,-1.455225500e-03,-1.748414056e-03,-3.277698845e-04,-2.076183941e-03,-1.839948274e-03,4.774822698e-04,-1.362466004e-03,-1.594628447e-03,-1.579930821e-04,-1.752621529e-03,-1.732590648e-03,5.945304700e-04,-1.138060178e-03
-3.5,-5.430522427e-04,1.553225583e-04,-3.877296844e-04,-6.133690629e-04,2.061406335e-05,-5.927549995e-04,-1.383334877e-03,1.966386358e-04,-1.186696241e-03,-1.270169373e-03,5.687943162e-05,-1.213289941e-03,-2.309443051e-03,2.658887312e-04,-2.043554320e-03,-1.633410242e-03,2.779588415e-04,-1.355451400e-03,-1.471869406e-03,1.770525437e-04,-1.294816862e-03,-1.172688995e-03,2.298460181e-04,-9.428429772e-04,-1.196950710e-03,1.131286224e-04,-1.083822087e-03,-6.970759254e-04,4.027431874e-04,-2.943327380e-04,-9.841858690e-04,5.754371509e-04,-4.087487181e-04,-1.807839530e-03,1.607553134e-04,-1.647084216e-03,-2.211161970e-03,-9.073468575e-05,-2.301896656e-03,-1.030027782e-03,1.270651712e-04,-9.029626104e-04,-1.666203834e-03,2.127407325e-04,-1.453463102e-03,-2.082552550e-03,2.679099393e-05,-2.055761556e-03,-1.721545006e-03,-5.124240802e-04,-2.233969086e-03,-1.694064849e-03,1.144051031e-04,-1.579659746e-03,-1.559873455e-03,9.225910781e-05,-1.467614347e-03,-8.817126246e-04,3.016968314e-04,-5.800157932e-04,-1.104330082e-03,2.985816817e-04,-8.057484007e-04,-3.970789012e-04,1.075120084e-04,-2.895668928e-04,-2.280886141e-03,2.006202125e-04,-2.080265929e-03,-1.550404282e-04,1.229455306e-04,-3.209489757e-05,-8.608912928e-04,3.177185743e-04,-5.431727184e-04,-1.755431756e-03,1.657728887e-04,-1.589658868e-03,-6.901305900e-04,-3.845343413e-04,-1.074664931e-03,-1.874951338e-04,-1.031895269e-03,-1.219390403e-03,-1.717014971e-03,3.465939312e-05,-1.682355578e-03,-1.676058454e-03,3.217080910e-04,-1.354350363e-03,-1.583632154e-03,-2.940223229e-06,-1.586572377e-03,-1.688596113e-03,2.476755710e-04,-1.440920542e-03,-1.710698452e-03,-3.278115498e-04,-2.038510002e-03,-1.816952197e-03,4.705791569e-04,-1.346373040e-03,-1.631487613e-03,-1.334083628e-04,-1.764895975e-03,-1.764486318e-03,5.953030656e-04,-1.169183253e-03
