Time,S1D1HbO,S1D1HbR,S1D1HbT,S2D2HbO,S2D2HbR,S2D2HbT,S3D3HbO,S3D3HbR,S3D3HbT,S4D4HbO,S4D4HbR,S4D4HbT,S5D5HbO,S5D5HbR,S5D5HbT,S6D6HbO,S6D6HbR,S6D6HbT,S7D7HbO,S7D7HbR,S7D7HbT,S8D8HbO,S8D8HbR,S8D8HbT,S9D9HbO,S9D9HbR,S9D9HbT,S10D10HbO,S10D10HbR,S10D10HbT,S11D11HbO,S11D11HbR,S11D11HbT,S12D12HbO,S12D12HbR,S12D12HbT,S13D13HbO,S13D13HbR,S13D13HbT,S14D14HbO,S14D14HbR,S14D14HbT,S15D15HbO,S15D15HbR,S15D15HbT,S16D16HbO,S16D16HbR,S16D16HbT,S17D17HbO,S17D17HbR,S17D17HbT,S18D18HbO,S18D18HbR,S18D18HbT,S19D19HbO,S19D19HbR,S19D19HbT,S20D20HbO,S20D20HbR,S20D20HbT,S21D21HbO,S21D21HbR,S21D21HbT,S22D22HbO,S22D22HbR,S22D22HbT,S23D23HbO,S23D23HbR,S23D23HbT,S24D24HbO,S24D24HbR,S24D24HbT,S25D25HbO,S25D25HbR,S25D25HbT,S26D26HbO,S26D26HbR,S26D26HbT,S27D27HbO,S27D27HbR,S27D27HbT,S28D28HbO,S28D28HbR,S28D28HbT,S29D29HbO,S29D29HbR,S29D29HbT,S30D30HbO,S30D30HbR,S30D30HbT,S31D31HbO,S31D31HbR,S31D31HbT,S32D32HbO,S32D32HbR,S32D32HbT,S33D33HbO,S33D33HbR,S33D33HbT,S34D34HbO,S34D34HbR,S34D34HbT,S35D35HbO,S35D35HbR,S35D35HbT,S36D36HbO,S36D36HbR,S36D36HbT,
-10,-1.999637533e-04,-2.637553269e-04,-4.637190802e-04,1.177293969e-04,6.367797989e-05,1.814073768e-04,-3.635052948e-04,-8.383297622e-05,-4.473382710e-04,-1.682356411e-04,7.016063211e-06,-1.612195779e-04,4.738916541e-04,-4.361821464e-06,4.695298327e-04,1.615340382e-04,-5.128342243e-05,1.102506158e-04,1.022559044e-03,-5.108590324e-06,1.017450454e-03,9.733806542e-04,2.470750426e-05,9.980881585e-04,6.689486933e-04,1.767157250e-05,6.866202658e-04,4.066733742e-04,3.090228674e-05,4.375756609e-04,2.687319031e-05,5.478750377e-05,8.166069408e-05,6.603921465e-04,6.912501836e-05,7.295171649e-04,9.018114872e-04,-5.172950479e-05,8.500819824e-04,6.555273609e-04,1.534864983e-05,6.708760107e-04,4.044385804e-04,6.055863534e-05,4.649972157e-04,2.756234882e-04,1.470630512e-04,4.226865393e-04,6.176636892e-06,1.378428188e-04,1.440194557e-04,-2.449064957e-04,2.428445600e-04,-2.061935696e-06,2.957530717e-06,7.508341272e-05,7.804094343e-05,7.067067592e-04,7.566619880e-05,7.823729580e-04,-5.864088181e-05,6.760078710e-05,8.959905290e-06,2.515211303e-04,1.060351868e-04,3.575563171e-04,-7.050425976e-04,4.946546031e-05,-6.555771373e-04,1.934969548e-04,-5.794054597e-06,1.877029002e-04,9.787829300e-04,9.176826773e-05,1.070551198e-03,1.000657789e-03,1.807180488e-05,1.018729594e-03,4.664142767e-04,1.947199204e-04,6.611341971e-04,7.023751936e-04,-1.271891578e-05,6.896562778e-04,4.205438671e-04,5.974576491e-05,4.802896320e-04,7.487316368e-04,1.095083417e-04,8.582399785e-04,4.148604514e-04,1.218873932e-04,5.367478447e-04,5.614827903e-04,1.191098776e-04,6.805926679e-04,3.750012678e-04,8.055110226e-05,4.555523701e-04,3.595272466e-05,3.424764722e-04,3.784291969e-04,3.060326429e-04,2.059778102e-04,5.120104530e-04,9.823168284e-05,-5.524827062e-05,4.298341222e-05
-9.9,-2.035794272e-04,-2.624984127e-04,-4.660778399e-04,7.797276400e-05,5.153191768e-05,1.295046817e-04,-3.093330378e-04,-7.858928639e-05,-3.879223242e-04,-1.795816676e-04,4.381762331e-06,-1.751999052e-04,4.748780541e-04,-4.353407722e-06,4.705246463e-04,1.411646254e-04,-5.288081803e-05,8.828380741e-05,1.016447455e-03,-7.007094780e-06,1.009440360e-03,9.602257928e-04,2.021186872e-05,9.804376615e-04,6.467575351e-04,1.425375875e-05,6.610112938e-04,3.930080123e-04,2.728126328e-05,4.202892756e-04,-6.124755579e-06,5.240613969e-05,4.628138411e-05,6.573872393e-04,7.042211486e-05,7.278093541e-04,9.600774424e-04,-6.760769313e-05,8.924697492e-04,6.644299963e-04,1.495435815e-05,6.793843544e-04,4.247837787e-04,6.166319100e-05,4.864469697e-04,3.116105671e-04,1.427211099e-04,4.543316770e-04,3.528281168e-05,1.350964326e-04,1.703792443e-04,-2.041285553e-04,2.351674817e-04,3.103892641e-05,2.675861652e-05,7.307576005e-05,9.983437658e-05,7.035286945e-04,7.431909932e-05,7.778477938e-04,-7.300169294e-05,6.668045141e-05,-6.321241531e-06,2.366699940e-04,1.005327650e-04,3.372027590e-04,-6.864034081e-04,4.900935750e-05,-6.373940506e-04,2.036284263e-04,-1.152513680e-05,1.921032895e-04,9.782740800e-04,8.886580017e-05,1.067139880e-03,1.016129543e-03,1.538487507e-05,1.031514418e-03,4.562134519e-04,2.168823018e-04,6.730957537e-04,7.325475544e-04,-2.605368322e-05,7.064938712e-04,4.284470080e-04,5.983674186e-05,4.882837498e-04,7.362105839e-04,1.096305644e-04,8.458411483e-04,4.289912588e-04,1.190422208e-04,5.480334796e-04,5.589131287e-04,1.205280320e-04,6.794411606e-04,3.786376831e-04,7.756226302e-05,4.561999461e-04,3.523969111e-05,3.346789910e-04,3.699186821e-04,3.162658855e-04,2.059198901e-04,5.221857756e-04,1.172681809e-04,-6.237910158e-05,5.488907931e-05
-9.8,-2.090035900e-04,-2.621730498e-04,-4.711766398e-04,3.843291455e-05,3.974070799e-05,7.817362253e-05,-2.538527926e-04,-7.360739655e-05,-3.274601892e-04,-1.909438675e-04,1.928415000e-06,-1.890154525e-04,4.752500796e-04,-4.392094134e-06,4.708579855e-04,1.208330214e-04,-5.431387393e-05,6.651914745e-05,1.008919566e-03,-8.991881884e-06,9.999276846e-04,9.456221958e-04,1.537536153e-05,9.609975574e-04,6.235336452e-04,1.084862030e-05,6.343822655e-04,3.788308275e-04,2.363445813e-05,4.024652856e-04,-3.904459206e-05,4.997834293e-05,1.093375086e-05,6.544507482e-04,7.133913514e-05,7.257898833e-04,1.015693362e-03,-8.416788553e-05,9.315254767e-04,6.735695374e-04,1.472658213e-05,6.882961196e-04,4.455289773e-04,6.294476780e-05,5.084737451e-04,3.478735203e-04,1.383408614e-04,4.862143817e-04,6.546287538e-05,1.325089183e-04,1.979717937e-04,-1.620943825e-04,2.275487567e-04,6.545437413e-05,5.135947244e-05,7.098150809e-05,1.223409805e-04,6.992203835e-04,7.266005202e-05,7.718804355e-04,-8.666995598e-05,6.570646373e-05,-2.096349225e-05,2.216865892e-04,9.506061863e-05,3.167472079e-04,-6.660359586e-04,4.856817098e-05,-6.174677877e-04,2.138648564e-04,-1.710058753e-05,1.967642689e-04,9.772090181e-04,8.584958138e-05,1.063058599e-03,1.031062036e-03,1.269968388e-05,1.043761719e-03,4.470863761e-04,2.377527911e-04,6.848391672e-04,7.629669559e-04,-4.007226909e-05,7.228946868e-04,4.376993935e-04,5.963233248e-05,4.973317260e-04,7.252507776e-04,1.090867306e-04,8.343375082e-04,4.437481654e-04,1.160195818e-04,5.597677472e-04,5.573757352e-04,1.215985148e-04,6.789742499e-04,3.833677227e-04,7.477454564e-05,4.581422683e-04,3.673121683e-05,3.262401620e-04,3.629713788e-04,3.266615604e-04,2.058956088e-04,5.325571693e-04,1.366843752e-04,-6.715470633e-05,6.952966885e-05
-9.7,-2.163013356e-04,-2.627668555e-04,-4.790681911e-04,-8.097816806e-07,2.835194121e-05,2.754215953e-05,-1.973863681e-04,-6.891154031e-05,-2.662979084e-04,-2.023736190e-04,-3.570569077e-07,-2.027306759e-04,4.748753053e-04,-4.480921320e-06,4.703943840e-04,1.006130066e-04,-5.559412337e-05,4.501888326e-05,9.999229759e-04,-1.104711691e-05,9.888758590e-04,9.295623925e-04,1.024119114e-05,9.398035837e-04,5.993605165e-04,7.467409773e-06,6.068279262e-04,3.641725502e-04,1.996213367e-05,3.841346838e-04,-7.178360809e-05,4.748872979e-05,-2.429487830e-05,6.515384090e-04,7.189533478e-05,7.234337438e-04,1.068283035e-03,-1.012412643e-04,9.670417710e-04,6.829616133e-04,1.464007937e-05,6.976016926e-04,4.666425275e-04,6.438374713e-05,5.310262747e-04,3.841821645e-04,1.339085794e-04,5.180907439e-04,9.659372207e-05,1.300775240e-04,2.266712461e-04,-1.189884776e-04,2.200121732e-04,1.010236957e-04,7.666910940e-05,6.880165853e-05,1.454707679e-04,6.938061282e-04,7.068174006e-05,7.644878683e-04,-9.960835075e-05,6.466534311e-05,-3.494300765e-05,2.066099745e-04,8.962185350e-05,2.962318280e-04,-6.441282577e-04,4.812566257e-05,-5.960025951e-04,2.240136665e-04,-2.248575129e-05,2.015279152e-04,9.755217235e-04,8.272672883e-05,1.058248452e-03,1.045285482e-03,1.001907143e-05,1.055304554e-03,4.390297922e-04,2.571251506e-04,6.961549429e-04,7.933286896e-04,-5.458700420e-05,7.387416854e-04,4.482805028e-04,5.913410032e-05,5.074146031e-04,7.159539735e-04,1.078554653e-04,8.238094388e-04,4.590894602e-04,1.128277400e-04,5.719172002e-04,5.569079945e-04,1.222792682e-04,6.791872627e-04,3.893041620e-04,7.214075641e-05,4.614449184e-04,4.063433273e-05,3.171710068e-04,3.578053395e-04,3.372705247e-04,2.058938336e-04,5.431643583e-04,1.564535877e-04,-6.953483754e-05,8.691875018e-05
-9.6,-2.255150075e-04,-2.642584716e-04,-4.897734791e-04,-3.968470753e-05,1.740808329e-05,-2.227662423e-05,-1.402730426e-04,-6.452747176e-05,-2.048005144e-04,-2.139251854e-04,-2.490065135e-06,-2.164152505e-04,4.736213335e-04,-4.623734852e-06,4.689975986e-04,8.056895651e-05,-5.673362038e-05,2.383533613e-05,9.894028200e-04,-1.315612162e-05,9.762466984e-04,9.120328498e-04,4.856722251e-06,9.168895720e-04,5.743157889e-04,4.121369898e-06,5.784371588e-04,3.490579418e-04,1.626522583e-05,3.653231677e-04,-1.042396564e-04,4.492376507e-05,-5.931589132e-05,6.486053814e-04,7.210681739e-05,7.207121988e-04,1.117515532e-03,-1.186610783e-04,9.988544537e-04,6.926051976e-04,1.466430881e-05,7.072695064e-04,4.880811285e-04,6.595198691e-05,5.540331154e-04,4.203009122e-04,1.294053733e-04,5.497062855e-04,1.285358856e-04,1.277948312e-04,2.563307168e-04,-7.501253631e-05,2.125684777e-04,1.375559414e-04,1.025788033e-04,6.653898498e-05,1.691177883e-04,6.873005620e-04,6.838221035e-05,7.556827723e-04,-1.117867091e-04,6.354426988e-05,-4.824243919e-05,1.914784496e-04,8.421788180e-05,2.756963314e-04,-6.208820433e-04,4.766507784e-05,-5.732169655e-04,2.338759327e-04,-2.765011086e-05,2.062258218e-04,9.731472085e-04,7.949872026e-05,1.052645929e-03,1.058625357e-03,7.344168748e-06,1.065969526e-03,4.320129629e-04,2.748075006e-04,7.068204635e-04,8.233022739e-04,-6.938996679e-05,7.539123071e-04,4.601483949e-04,5.834842577e-05,5.184968207e-04,7.083956402e-04,1.059226991e-04,8.143183393e-04,4.749528453e-04,1.094778846e-04,5.844307299e-04,5.575149930e-04,1.225384170e-04,6.800534101e-04,3.965301650e-04,6.961704251e-05,4.661472075e-04,4.710840413e-05,3.074957368e-04,3.546041409e-04,3.481234885e-04,2.059010695e-04,5.540245579e-04,1.765583636e-04,-6.952512126e-05,1.070332423e-04
-9.5,-2.366573223e-04,-2.666168340e-04,-5.032741563e-04,-7.812797077e-05,6.945872560e-06,-7.118209821e-05,-8.286249793e-05,-6.048155418e-05,-1.433440521e-04,-2.256497928e-04,-4.487715115e-06,-2.301375079e-04,4.713626881e-04,-4.824923428e-06,4.665377647e-04,6.075933308e-05,-5.774447365e-05,3.014859424e-06,9.773089523e-04,-1.530165710e-05,9.620072952e-04,8.930202344e-04,-7.281792923e-07,8.922920551e-04,5.484761638e-04,8.216841720e-07,5.492978480e-04,3.335101906e-04,1.254554206e-05,3.460557327e-04,-1.363073717e-04,4.227186722e-05,-9.403550447e-05,6.456125394e-04,7.198639041e-05,7.175989298e-04,1.163120063e-03,-1.362684850e-04,1.026851578e-03,7.024868251e-04,1.476468863e-05,7.172515138e-04,5.097935317e-04,6.761302174e-05,5.774065535e-04,4.559970533e-04,1.248078568e-04,5.808049101e-04,1.611388028e-04,1.256495133e-04,2.867883160e-04,-3.038264880e-05,2.052165641e-04,1.748339152e-04,1.289657441e-04,6.419878148e-05,1.931645256e-04,6.797127211e-04,6.576459445e-05,7.454773156e-04,-1.231774629e-04,6.233134347e-05,-6.084611942e-05,1.763332488e-04,7.884827984e-05,2.551815287e-04,-5.965077666e-04,4.716937052e-05,-5.493383961e-04,2.432510570e-04,-3.256749221e-05,2.106835648e-04,9.700289232e-04,7.616165591e-05,1.046190579e-03,1.070914448e-03,4.674798380e-06,1.075589246e-03,4.259860287e-04,2.906222259e-04,7.166082546e-04,8.525418734e-04,-8.425519329e-05,7.682866801e-04,4.732428137e-04,5.728654311e-05,5.305293568e-04,7.026264109e-04,1.032830775e-04,8.059094884e-04,4.912590156e-04,1.059842688e-04,5.972432844e-04,5.591745612e-04,1.223542346e-04,6.815287958e-04,4.051013218e-04,6.716419474e-05,4.722655166e-04,5.626494741e-05,2.972538648e-04,3.535188122e-04,3.592380409e-04,2.058979861e-04,5.651360270e-04,1.969913601e-04,-6.717588289e-05,1.298154772e-04
-9.4,-2.497058177e-04,-2.698006273e-04,-5.195064451e-04,-1.160804690e-04,-3.004163005e-06,-1.190846320e-04,-2.550979760e-05,-5.679985578e-05,-8.230965339e-05,-2.375920271e-04,-6.368263190e-06,-2.439602903e-04,4.679848444e-04,-5.089250016e-06,4.628955944e-04,4.123798550e-05,-5.863847413e-05,-1.740048862e-05,9.635990150e-04,-1.746631541e-05,9.461326995e-04,8.725149621e-04,-6.462880891e-06,8.660520812e-04,5.219188649e-04,-2.420601842e-06,5.194982631e-04,3.175526660e-04,8.806043477e-06,3.263587095e-04,-1.678766434e-04,3.952350540e-05,-1.283531380e-04,6.425272670e-04,7.154348362e-05,7.140707506e-04,1.204891465e-03,-1.539169343e-04,1.050974530e-03,7.125791513e-04,1.490326123e-05,7.274824126e-04,5.317196682e-04,6.932233681e-05,6.010420050e-04,4.910449976e-04,1.200890985e-04,6.111340961e-04,1.942431700e-04,1.236271598e-04,3.178703298e-04,1.467308059e-05,1.979444249e-04,2.126175055e-04,1.556957368e-04,6.178930667e-05,2.174850435e-04,6.710476382e-04,6.283663700e-05,7.338842752e-04,-1.337545037e-04,6.101567408e-05,-7.273882963e-05,1.612191228e-04,7.351058452e-05,2.347297073e-04,-5.712222827e-04,4.662137083e-05,-5.246009118e-04,2.519385455e-04,-3.721611643e-05,2.147224290e-04,9.661213020e-04,7.270671844e-05,1.038828020e-03,1.081999281e-03,2.008976238e-06,1.084008257e-03,4.208852997e-04,3.044066338e-04,7.252919335e-04,8.806937185e-04,-9.894247422e-05,7.817512443e-04,4.874853302e-04,5.596411568e-05,5.434494459e-04,6.986702143e-04,9.994113983e-05,7.986113541e-04,5.079125070e-04,1.023640216e-04,6.102765286e-04,5.618405085e-04,1.217138812e-04,6.835543896e-04,4.150453520e-04,6.474848848e-05,4.797938405e-04,6.816460660e-05,2.865020722e-04,3.546666788e-04,3.706220641e-04,2.058567140e-04,5.764787780e-04,2.177522405e-04,-6.258024360e-05,1.551719969e-04
-9.3,-2.645993271e-04,-2.737578876e-04,-5.383572147e-04,-1.534875893e-04,-1.241798623e-05,-1.659055756e-04,3.142695202e-05,-5.350731182e-05,-2.208035980e-05,-2.497890514e-04,-8.150666267e-06,-2.579397177e-04,4.633846444e-04,-5.421745928e-06,4.579628985e-04,2.205289621e-05,-5.942679045e-05,-3.737389424e-05,9.482369279e-04,-1.963294083e-05,9.286039870e-04,8.505113138e-04,-1.229740113e-05,8.382139127e-04,4.947193288e-04,-5.594694916e-06,4.891246339e-04,3.012074895e-04,5.051147882e-06,3.062586374e-04,-1.988340877e-04,3.667128245e-05,-1.621628053e-04,6.393191964e-04,7.078378046e-05,7.101029769e-04,1.242686381e-03,-1.714749191e-04,1.071211462e-03,7.228344209e-04,1.503899237e-05,7.378734133e-04,5.537855981e-04,7.102775003e-05,6.248133481e-04,5.252256335e-04,1.152199800e-04,6.404456134e-04,2.276799166e-04,1.217109688e-04,3.493908854e-04,5.991522510e-05,1.907298762e-04,2.506451013e-04,1.826238923e-04,5.932176642e-05,2.419456587e-04,6.613052712e-04,5.961000025e-05,7.209152714e-04,-1.434956821e-04,5.958725867e-05,-8.390842339e-05,1.461814237e-04,6.820014436e-05,2.143815681e-04,-5.452492875e-04,4.600388618e-05,-4.992454013e-04,2.597371518e-04,-4.157859265e-05,2.181585592e-04,9.613867523e-04,6.912091843e-05,1.030507671e-03,1.091739524e-03,-6.581658216e-07,1.091081359e-03,4.166346439e-04,3.160143449e-04,7.326489888e-04,9.074002785e-04,-1.132028343e-04,7.941974443e-04,5.027768861e-04,5.440041136e-05,5.571772975e-04,6.965195219e-04,9.591213777e-05,7.924316596e-04,5.247996628e-04,9.863708066e-05,6.234367435e-04,5.654435631e-04,1.206112508e-04,6.860548139e-04,4.263592133e-04,6.234207362e-05,4.887012869e-04,8.281226350e-05,2.753143961e-04,3.581266596e-04,3.822732718e-04,2.057389176e-04,5.880121894e-04,2.388405083e-04,-5.587133261e-05,1.829691757e-04
-9.2,-2.812365179e-04,-2.784256787e-04,-5.596621965e-04,-1.903002844e-04,-2.127810837e-05,-2.115783927e-04,8.758674345e-05,-5.062696281e-05,3.695978064e-05,-2.622720981e-04,-9.854182319e-06,-2.721262804e-04,4.574677215e-04,-5.827619553e-06,4.516401019e-04,3.242989622e-06,-6.011974608e-05,-5.687675646e-05,9.311879742e-04,-2.178501852e-05,9.094029557e-04,8.270045974e-04,-1.818321499e-05,8.088213824e-04,4.669461551e-04,-8.690213100e-06,4.582559420e-04,2.844915894e-04,1.286961922e-06,2.857785513e-04,-2.290671662e-04,3.370999305e-05,-1.953571731e-04,6.359528493e-04,6.970847976e-05,7.056613291e-04,1.276413761e-03,-1.888282500e-04,1.087585511e-03,7.331750966e-04,1.512800114e-05,7.483030977e-04,5.758961347e-04,7.267002601e-05,6.485661607e-04,5.583219647e-04,1.101708146e-04,6.684927793e-04,2.612668018e-04,1.198821079e-04,3.811489097e-04,1.050914735e-04,1.835414749e-04,2.886329484e-04,2.095932812e-04,5.680986977e-05,2.664031510e-04,6.504774771e-04,5.609946282e-05,7.065769399e-04,-1.523879551e-04,5.803674682e-05,-9.435120828e-05,1.312605510e-04,6.291019196e-05,1.941707430e-04,-5.188215589e-04,4.529976062e-05,-4.735217983e-04,2.664426256e-04,-4.564194339e-05,2.208006822e-04,9.557883275e-04,6.538824927e-05,1.021176577e-03,1.100001709e-03,-3.335493014e-06,1.096666216e-03,4.131431105e-04,3.253173480e-04,7.384604585e-04,9.323020522e-04,-1.267853260e-04,8.055167262e-04,5.189939663e-04,5.261734921e-05,5.716113155e-04,6.961291133e-04,9.122250312e-05,7.873516164e-04,5.417849253e-04,9.482640089e-05,6.366113262e-04,5.698906848e-04,1.190446357e-04,6.889353206e-04,4.390047084e-04,5.992279128e-05,4.989274997e-04,1.001525198e-04,2.637797345e-04,3.639322543e-04,3.941762997e-04,2.054942523e-04,5.996705520e-04,2.602455357e-04,-4.721840913e-05,2.130271266e-04
-9.1,-2.994761639e-04,-2.837298260e-04,-5.832059899e-04,-2.264767688e-04,-2.957347425e-05,-2.560502430e-04,1.426048180e-04,-4.817926756e-05,9.442555048e-05,-2.750690767e-04,-1.149799057e-05,-2.865670673e-04,4.501444479e-04,-6.312138477e-06,4.438323094e-04,-1.516570509e-05,-6.072672233e-05,-7.589242743e-05,9.124127150e-04,-2.390697888e-05,8.885057361e-04,8.019868316e-04,-2.407348685e-05,7.779133448e-04,4.386551808e-04,-1.169735994e-05,4.269578209e-04,2.674117019e-04,-2.478599647e-06,2.649331022e-04,-2.584697663e-04,3.063667324e-05,-2.278330931e-04,6.323796628e-04,6.831366266e-05,7.006933254e-04,1.306023248e-03,-2.058822777e-04,1.100140970e-03,7.434848641e-04,1.512394133e-05,7.586088054e-04,5.979276662e-04,7.418383173e-05,6.721114980e-04,5.901134268e-04,1.049128902e-04,6.950263170e-04,2.948044331e-04,1.181196277e-04,4.129240608e-04,1.499332393e-04,1.763401412e-04,3.262733805e-04,2.364324541e-04,5.426903499e-05,2.907014890e-04,6.385443476e-04,5.232214221e-05,6.908664898e-04,-1.604334964e-04,5.635527836e-05,-1.040782180e-04,1.164853938e-04,5.763227117e-05,1.741176650e-04,-4.921835240e-04,4.449194581e-05,-4.476915782e-04,2.718456719e-04,-4.939772388e-05,2.224479481e-04,9.492805175e-04,6.149122940e-05,1.010771747e-03,1.106650194e-03,-6.036490135e-06,1.100613704e-03,4.103006050e-04,3.322084301e-04,7.425090351e-04,9.550379301e-04,-1.394441612e-04,8.155937689e-04,5.359849963e-04,5.063869788e-05,5.866236942e-04,6.974102819e-04,8.590994286e-05,7.833202248e-04,5.587073562e-04,9.095815318e-05,6.496655094e-04,5.750641434e-04,1.170147598e-04,6.920789032e-04,4.529043278e-04,5.747340656e-05,5.103777343e-04,1.200676734e-04,2.519971891e-04,3.720648625e-04,4.062990470e-04,2.050593217e-04,6.113583687e-04,2.819358994e-04,-3.682194194e-05,2.451139575e-04
-9,-3.191386432e-04,-2.895847306e-04,-6.087233738e-04,-2.619839399e-04,-3.729922610e-05,-2.992831660e-04,1.961124254e-04,-4.618147063e-05,1.499309548e-04,-2.882068087e-04,-1.310080321e-05,-3.013076119e-04,4.413264175e-04,-6.880446572e-06,4.344459709e-04,-3.316293634e-05,-6.125615545e-05,-9.441909179e-05,8.918624559e-04,-2.598435672e-05,8.658780992e-04,7.754429945e-04,-2.992295900e-05,7.455200355e-04,4.098849614e-04,-1.460704952e-05,3.952779118e-04,2.499602078e-04,-6.235801575e-06,2.437244062e-04,-2.869475443e-04,2.745066566e-05,-2.594968786e-04,6.285320624e-04,6.659051682e-05,6.951225793e-04,1.331492848e-03,-2.225620567e-04,1.108930792e-03,7.536035907e-04,1.497873077e-05,7.685823215e-04,6.197239253e-04,7.549903922e-05,6.952229645e-04,6.203716823e-04,9.941974275e-05,7.197914251e-04,3.280737510e-04,1.164000545e-04,4.444738055e-04,1.941518213e-04,1.690817416e-04,3.632335629e-04,2.629533521e-04,5.171527466e-05,3.146686268e-04,6.254716538e-04,4.829680535e-05,6.737684592e-04,-1.676546686e-04,5.453448730e-05,-1.131201813e-04,1.018676384e-04,5.235710290e-05,1.542247412e-04,-4.655924235e-04,4.356364804e-05,-4.220287754e-04,2.757317081e-04,-5.284220710e-05,2.228895010e-04,9.418012361e-04,5.741268698e-05,9.992139230e-04,1.111539066e-03,-8.779001982e-06,1.102760064e-03,4.079746583e-04,3.366032773e-04,7.445779356e-04,9.752455561e-04,-1.509448601e-04,8.243006960e-04,5.535687150e-04,4.848955914e-05,6.020582741e-04,7.002279012e-04,8.002296714e-05,7.802508684e-04,5.753793405e-04,8.706157559e-05,6.624409160e-04,5.808219153e-04,1.145234153e-04,6.953453306e-04,4.679391006e-04,5.498064423e-05,5.229197449e-04,1.423795786e-04,2.400708368e-04,3.824504154e-04,4.185900238e-04,2.043576531e-04,6.229476769e-04,3.038507176e-04,-2.490808279e-05,2.789426348e-04
-8.9,-3.400080267e-04,-2.958932811e-04,-6.359013078e-04,-2.967976905e-04,-4.445630034e-05,-3.412539909e-04,2.477388375e-04,-4.464697439e-05,2.030918631e-04,-3.017113635e-04,-1.468042549e-05,-3.163917890e-04,4.309255737e-04,-7.537278893e-06,4.233882948e-04,-5.075463423e-05,-6.171551777e-05,-1.124701520e-04,8.694788857e-04,-2.800376451e-05,8.414751212e-04,7.473498915e-04,-3.568773140e-05,7.116621601e-04,3.806558785e-04,-1.741093444e-05,3.632449440e-04,2.321137446e-04,-9.973181092e-06,2.221405635e-04,-3.144211891e-04,2.415369706e-05,-2.902674920e-04,6.243219833e-04,6.452686592e-05,6.888488492e-04,1.352816970e-03,-2.388080772e-04,1.114008893e-03,7.633292862e-04,1.464390210e-05,7.779731883e-04,6.410970231e-04,7.654244697e-05,7.176394700e-04,6.488604587e-04,9.366820300e-05,7.425286617e-04,3.608368757e-04,1.146970438e-04,4.755339195e-04,2.374361665e-04,1.617203573e-04,3.991565237e-04,2.889511992e-04,4.916385434e-05,3.381150535e-04,6.112111840e-04,4.404333273e-05,6.552545167e-04,-1.740956845e-04,5.256663884e-05,-1.215290457e-04,8.739874657e-05,4.707588778e-05,1.344746343e-04,-4.393164174e-04,4.249862213e-05,-3.968177953e-04,2.778837323e-04,-5.597648347e-05,2.219072489e-04,9.332681660e-04,5.313758304e-05,9.864057491e-04,1.114508850e-03,-1.158390481e-05,1.102924945e-03,4.060109245e-04,3.384416483e-04,7.444525728e-04,9.925641663e-04,-1.610686788e-04,8.314954875e-04,5.715360962e-04,4.619615280e-05,6.177322490e-04,7.044026211e-04,7.361973813e-05,7.780223592e-04,5.915891269e-04,8.316841032e-05,6.747575372e-04,5.870007967e-04,1.115727245e-04,6.985735212e-04,4.839498855e-04,5.243467406e-05,5.363845596e-04,1.668562792e-04,2.281052619e-04,3.949615410e-04,4.309785892e-04,2.033009283e-04,6.342795174e-04,3.258956545e-04,-1.172305304e-05,3.141726014e-04
-8.8,-3.618342052e-04,-3.025469203e-04,-6.643811255e-04,-3.309014833e-04,-5.105073868e-05,-3.819522220e-04,2.971166695e-04,-4.358465096e-05,2.535320186e-04,-3.156055215e-04,-1.625323131e-05,-3.318587528e-04,4.188573474e-04,-8.286567973e-06,4.105707794e-04,-6.796002318e-05,-6.211121536e-05,-1.300712385e-04,8.451992299e-04,-2.995272301e-05,8.152465068e-04,7.176788469e-04,-4.132508986e-05,6.763537570e-04,3.509740028e-04,-2.010134437e-05,3.308726584e-04,2.138357879e-04,-1.367776222e-05,2.001580256e-04,-3.408263574e-04,2.074993135e-05,-3.200764261e-04,6.196446758e-04,6.210995910e-05,6.817546349e-04,1.369997000e-03,-2.545676385e-04,1.115429362e-03,7.724278780e-04,1.407271657e-05,7.865005946e-04,6.618344240e-04,7.724005707e-05,7.390744811e-04,6.753407424e-04,8.763927534e-05,7.629800178e-04,3.928423158e-04,1.129814873e-04,5.058238030e-04,2.794542999e-04,1.542114245e-04,4.336657244e-04,3.142074319e-04,4.662799471e-05,3.608354266e-04,5.957048861e-04,3.958244367e-05,6.352873298e-04,-1.798197083e-04,5.044484376e-05,-1.293748645e-04,7.305071729e-05,4.178196970e-05,1.148326870e-04,-4.136288258e-04,4.128166107e-05,-3.723471647e-04,2.780887524e-04,-5.880624758e-05,2.192825048e-04,9.235814965e-04,4.865464307e-05,9.722361396e-04,1.115390578e-03,-1.447280387e-05,1.100917774e-03,4.042380889e-04,3.376880868e-04,7.419261756e-04,1.006642399e-03,-1.696159225e-04,8.370264769e-04,5.896563327e-04,4.378584839e-05,6.334421811e-04,7.097186748e-04,6.676646865e-05,7.764851434e-04,6.071078712e-04,7.931200741e-05,6.864198786e-04,5.934228577e-04,1.081648962e-04,7.015877539e-04,5.007426535e-04,4.982945835e-05,5.505721119e-04,1.932236271e-04,2.162021978e-04,4.094258249e-04,4.433792614e-04,2.017911234e-04,6.451703848e-04,3.479448684e-04,2.472322002e-06,3.504171904e-04
-8.7,-3.843350312e-04,-3.094260161e-04,-6.937610473e-04,-3.642831149e-04,-5.709266388e-05,-4.213757787e-04,3.438901699e-04,-4.299806452e-05,3.008921054e-04,-3.299037348e-04,-1.783358832e-05,-3.477373231e-04,4.050473375e-04,-9.131005868e-06,3.959163316e-04,-8.480607938e-05,-6.244844087e-05,-1.472545202e-04,8.189656545e-04,-3.181947778e-05,7.871461767e-04,6.864016003e-04,-4.679339007e-05,6.396082102e-04,3.208385930e-04,-2.267118943e-05,2.981674035e-04,1.950826654e-04,-1.733536430e-05,1.777473011e-04,-3.661105074e-04,1.724596251e-05,-3.488645449e-04,6.143860794e-04,5.932999120e-05,6.737160706e-04,1.383035622e-03,-2.697845037e-04,1.113251118e-03,7.806478348e-04,1.322272364e-05,7.938705585e-04,6.817099791e-04,7.751970890e-05,7.592296880e-04,6.995801147e-04,8.131886551e-05,7.808989802e-04,4.238337077e-04,1.112221798e-04,5.350558875e-04,3.198592311e-04,1.465139620e-04,4.663731931e-04,3.384956434e-04,4.411791717e-05,3.826135606e-04,5.788919032e-04,3.493573657e-05,6.138276397e-04,-1.849022882e-04,4.816333398e-05,-1.367389542e-04,5.878008004e-05,3.647271709e-05,9.525279713e-05,-3.887993890e-04,3.989925480e-05,-3.489001342e-04,2.761466685e-04,-6.134114808e-05,2.148055205e-04,9.126323581e-04,4.395766505e-05,9.565900232e-04,1.114016292e-03,-1.746516022e-05,1.096551132e-03,4.024757031e-04,3.343334236e-04,7.368091267e-04,1.017151028e-03,-1.764094552e-04,8.407415724e-04,6.076854315e-04,4.128731333e-05,6.489727449e-04,7.159349941e-04,5.953572308e-05,7.754707172e-04,6.216999749e-04,7.552607182e-05,6.972260467e-04,5.999041472e-04,1.043022343e-04,7.042063815e-04,5.180967144e-04,4.716380800e-05,5.652605224e-04,2.211802490e-04,2.044581324e-04,4.256383814e-04,4.556993797e-04,1.997229036e-04,6.554222833e-04,3.698475746e-04,1.740800181e-05,3.872555764e-04
-8.6,-4.071991576e-04,-3.164007626e-04,-7.235999201e-04,-3.969304168e-04,-6.259502658e-05,-4.595254434e-04,3.877246318e-04,-4.288466407e-05,3.448399677e-04,-3.446063578e-04,-1.943334156e-05,-3.640396994e-04,3.894392220e-04,-1.007167778e-05,3.793675442e-04,-1.013212331e-04,-6.273106890e-05,-1.640523020e-04,7.907354861e-04,-3.359291751e-05,7.571425686e-04,6.534972572e-04,-5.205196950e-05,6.014452877e-04,2.902503146e-04,-2.511388744e-05,2.651364271e-04,1.758108145e-04,-2.093090147e-05,1.548799130e-04,-3.902283375e-04,1.365074899e-05,-3.765775885e-04,6.084304954e-04,5.618341742e-05,6.646139128e-04,1.391934262e-03,-2.843903235e-04,1.107543939e-03,7.877343250e-04,1.205813207e-05,7.997924571e-04,7.004954707e-04,7.731347223e-05,7.778089430e-04,7.213628021e-04,7.469843476e-05,7.960612369e-04,4.535595118e-04,1.093868406e-04,5.629463524e-04,3.582978839e-04,1.385918942e-04,4.968897781e-04,3.615892350e-04,4.164031609e-05,4.032295511e-04,5.607161683e-04,3.012592511e-05,5.908420934e-04,-1.894238629e-04,4.571777366e-05,-1.437060892e-04,4.453310551e-05,3.115134205e-05,7.568444755e-05,-3.650848507e-04,3.834030815e-05,-3.267445426e-04,2.718793866e-04,-6.359384707e-05,2.082855395e-04,9.003134995e-04,3.904648108e-05,9.393599806e-04,1.110231292e-03,-2.057546018e-05,1.089655832e-03,4.005426801e-04,3.283974234e-04,7.289401036e-04,1.023797034e-03,-1.812988134e-04,8.424982205e-04,6.253746521e-04,3.873059155e-05,6.641052436e-04,7.227959258e-04,5.200475830e-05,7.748006841e-04,6.351340737e-04,7.184293372e-05,7.069770074e-04,6.062633015e-04,9.998710242e-05,7.062504039e-04,5.357734726e-04,4.444260657e-05,5.802160792e-04,2.504126061e-04,1.929627408e-04,4.433753468e-04,4.678475930e-04,1.969858296e-04,6.648334226e-04,3.914360508e-04,3.281014811e-05,4.242461989e-04
-8.5,-4.300904134e-04,-3.233327753e-04,-7.534231886e-04,-4.288270876e-04,-6.757233350e-05,-4.963994211e-04,4.283146125e-04,-4.323508145e-05,3.850795311e-04,-3.596952342e-04,-2.106146024e-05,-3.807566945e-04,3.720011873e-04,-1.110785335e-05,3.608933340e-04,-1.175302441e-04,-6.296163682e-05,-1.804918809e-04,7.604889158e-04,-3.526261609e-05,7.252262998e-04,6.189582131e-04,-5.706117316e-05,5.618970399e-04,2.592174297e-04,-2.742334500e-05,2.317940847e-04,1.559828574e-04,-2.444856876e-05,1.315342886e-04,-4.131378722e-04,9.975516890e-06,-4.031623553e-04,6.016659842e-04,5.267515809e-05,6.543411423e-04,1.396693351e-03,-2.983002187e-04,1.098393132e-03,7.934389120e-04,1.055150632e-05,8.039904183e-04,7.179696594e-04,7.655932462e-05,7.945289840e-04,7.404971595e-04,6.777561710e-05,8.082727766e-04,4.817808907e-04,1.074431875e-04,5.892240782e-04,3.944200900e-04,1.304151493e-04,5.248352392e-04,3.832688382e-04,3.919813692e-05,4.224669751e-04,5.411324429e-04,2.517701382e-05,5.663094567e-04,-1.934640032e-04,4.310553064e-05,-1.503584726e-04,3.025030509e-05,2.582824936e-05,5.607855444e-05,-3.427211866e-04,3.659678422e-05,-3.061244024e-04,2.651381932e-04,-6.557910825e-05,1.995590850e-04,8.865281969e-04,3.392756533e-05,9.204557623e-04,1.103902922e-03,-2.381107313e-05,1.080091849e-03,3.982649124e-04,3.199313129e-04,7.181962252e-04,1.026334409e-03,-1.841639888e-04,8.421704205e-04,6.424766470e-04,3.614691776e-05,6.786235648e-04,7.300388559e-04,4.425391578e-05,7.742927717e-04,6.471921695e-04,6.829139483e-05,7.154835643e-04,6.123281396e-04,9.522164171e-05,7.075497813e-04,5.535233356e-04,4.167775975e-05,5.952010953e-04,2.806074213e-04,1.817977269e-04,4.624051482e-04,4.797404784e-04,1.934663120e-04,6.732067904e-04,4.125323191e-04,4.840655725e-05,4.609388763e-04
-8.4,-4.526540228e-04,-3.300773386e-04,-7.827313613e-04,-4.599496051e-04,-7.203956234e-05,-5.319891675e-04,4.653894460e-04,-4.403266151e-05,4.213567845e-04,-3.751318759e-04,-2.272387309e-05,-3.978557489e-04,3.527292544e-04,-1.223694272e-05,3.404923116e-04,-1.334512165e-04,-6.314140941e-05,-1.965926260e-04,7.282326472e-04,-3.681895493e-05,6.914136923e-04,5.827940431e-04,-6.178256794e-05,5.210114752e-04,2.277587379e-04,-2.959398986e-05,1.981647480e-04,1.355711286e-04,-2.787190665e-05,1.076992219e-04,-4.347984531e-04,6.233639565e-06,-4.285648135e-04,5.939867549e-04,4.881929603e-05,6.428060509e-04,1.397315422e-03,-3.114128311e-04,1.085902591e-03,7.975239039e-04,8.684641766e-06,8.062085456e-04,7.339235625e-04,7.520213361e-05,8.091256961e-04,7.568193604e-04,6.055464130e-05,8.173740017e-04,5.082762535e-04,1.053598950e-04,6.136361485e-04,4.278853088e-04,1.219609839e-04,5.498462926e-04,4.033279717e-04,3.679057750e-05,4.401185492e-04,5.201099409e-04,2.011417979e-05,5.402241207e-04,-1.970985466e-04,4.032582543e-05,-1.567727212e-04,1.586947242e-05,2.052158664e-05,3.639105906e-05,-3.219187139e-04,3.466417839e-05,-2.872545355e-04,2.558084638e-04,-6.731311839e-05,1.884953454e-04,8.711949865e-04,2.861436174e-05,8.998093482e-04,1.094923493e-03,-2.717125499e-05,1.067752238e-03,3.954814570e-04,3.090185800e-04,7.045000370e-04,1.024569111e-03,-1.849177797e-04,8.396513318e-04,6.587488426e-04,3.356814520e-05,6.923169878e-04,7.373979909e-04,3.636524604e-05,7.737632369e-04,6.576755401e-04,6.489458132e-05,7.225701214e-04,6.179393725e-04,9.000738988e-05,7.079467624e-04,5.710895122e-04,3.888879678e-05,6.099783090e-04,3.114602299e-04,1.710354413e-04,4.824956712e-04,4.913056649e-04,1.890495402e-04,6.803552051e-04,4.329522548e-04,6.393212650e-05,4.968843813e-04
-8.3,-4.745243607e-04,-3.364860759e-04,-8.110104365e-04,-4.902655978e-04,-7.601137596e-05,-5.662769737e-04,4.987157708e-04,-4.525329380e-05,4.534624770e-04,-3.908583181e-04,-2.442344489e-05,-4.152817629e-04,3.316473584e-04,-1.345457341e-05,3.181927850e-04,-1.490946679e-04,-6.327053915e-05,-2.123652070e-04,6.939997781e-04,-3.825328147e-05,6.557464966e-04,5.450333038e-04,-6.617930158e-05,4.788540022e-04,1.959035705e-04,-3.162082928e-05,1.642827412e-04,1.145586075e-04,-3.118382532e-05,8.337478217e-05,-4.551708060e-04,2.440476460e-06,-4.527303295e-04,5.852932790e-04,4.463845174e-05,6.299317307e-04,1.393809870e-03,-3.236137964e-04,1.070196073e-03,7.997628156e-04,6.448702745e-06,8.062115183e-04,7.481621907e-04,7.319435838e-05,8.213565491e-04,7.701938450e-04,5.304640039e-05,8.232402454e-04,5.328424795e-04,1.031074146e-04,6.359498942e-04,4.583668830e-04,1.132152329e-04,5.715821158e-04,4.215763361e-04,3.441333200e-05,4.559896681e-04,4.976337808e-04,1.496328979e-05,5.125970706e-04,-2.003992971e-04,3.737975215e-05,-1.630195449e-04,1.327509863e-06,1.525698937e-05,1.658449923e-05,-3.028600762e-04,3.254179075e-05,-2.703182854e-04,2.438117182e-04,-6.881300569e-05,1.749987125e-04,8.542480064e-04,2.312744639e-05,8.773754528e-04,1.083208117e-03,-3.064732173e-05,1.052560796e-03,3.920490446e-04,2.957735456e-04,6.878225902e-04,1.018358704e-03,-1.835065952e-04,8.348521092e-04,6.739548178e-04,3.102582995e-05,7.049806477e-04,7.446051015e-04,2.842160148e-05,7.730267030e-04,6.664073386e-04,6.166840703e-05,7.280757456e-04,6.229512716e-04,8.434528408e-05,7.072965557e-04,5.882087972e-04,3.610326914e-05,6.243120663e-04,3.426794052e-04,1.607374860e-04,5.034168911e-04,5.024809744e-04,1.836219716e-04,6.861029460e-04,4.525069296e-04,7.913441662e-05,5.316413462e-04
-8.2,-4.953336508e-04,-3.424097960e-04,-8.377434468e-04,-5.197334976e-04,-7.950164520e-05,-5.992351428e-04,5.280977651e-04,-4.686557012e-05,4.812321950e-04,-4.067998546e-04,-2.616003508e-05,-4.329598897e-04,3.088051798e-04,-1.475473959e-05,2.940504402e-04,-1.644638394e-04,-6.334832211e-05,-2.278121615e-04,6.578474784e-04,-3.955807386e-05,6.182894045e-04,5.057239466e-04,-7.021660595e-05,4.355073407e-04,1.636901964e-04,-3.349949636e-05,1.301907001e-04,9.293823770e-05,-3.436667229e-05,5.857156541e-05,-4.742184402e-04,-1.386832171e-06,-4.756052724e-04,5.754916902e-04,4.016236627e-05,6.156540564e-04,1.386197576e-03,-3.347816166e-04,1.051415959e-03,7.999396900e-04,3.843822060e-06,8.037835120e-04,7.605040065e-04,7.049698634e-05,8.310009928e-04,7.805117826e-04,4.526825365e-05,8.257800362e-04,5.552939910e-04,1.006586573e-04,6.559526484e-04,4.855554468e-04,1.041727826e-04,5.897282295e-04,4.378410621e-04,3.205905493e-05,4.699001170e-04,4.737051071e-04,9.750204115e-06,4.834553112e-04,-2.034350358e-04,3.427026614e-05,-1.691647696e-04,-1.343820414e-05,1.006681870e-05,-3.371385435e-06,-2.857001477e-04,3.023282038e-05,-2.554673273e-04,2.291058475e-04,-7.009643666e-05,1.590094108e-04,8.356345560e-04,1.749442928e-05,8.531289853e-04,1.068690010e-03,-3.422359628e-05,1.034466414e-03,3.878447542e-04,2.803382911e-04,6.681830454e-04,1.007609506e-03,-1.799105179e-04,8.276989876e-04,6.878649580e-04,2.855018754e-05,7.164151455e-04,7.513892697e-04,2.050607578e-05,7.718953455e-04,6.732329683e-04,5.862098649e-05,7.318539548e-04,6.272300814e-04,7.823644376e-05,7.054665252e-04,6.046107254e-04,3.335695249e-05,6.379676779e-04,3.739857455e-04,1.509544226e-04,5.249401681e-04,5.132103052e-04,1.770750605e-04,6.902853656e-04,4.710019683e-04,9.377897370e-05,5.647809420e-04
-8.1,-5.147209285e-04,-3.477013723e-04,-8.624223008e-04,-5.483028241e-04,-8.252326171e-05,-6.308260858e-04,5.533764097e-04,-4.883125591e-05,5.045451538e-04,-4.228682658e-04,-2.793060848e-05,-4.507988743e-04,2.842753978e-04,-1.612997882e-05,2.681454190e-04,-1.795550327e-04,-6.337347462e-05,-2.429285074e-04,6.198547357e-04,-4.072707483e-05,5.791276609e-04,4.649336975e-04,-7.386254780e-05,3.910711497e-04,1.311645953e-04,-3.522625270e-05,9.593834262e-05,7.071221867e-05,-3.740237488e-05,3.330984379e-05,-4.919090536e-04,-5.229589042e-06,-4.971386427e-04,5.644944786e-04,3.542622801e-05,5.999207066e-04,1.374514970e-03,-3.447950779e-04,1.029719892e-03,7.978505209e-04,8.784327656e-07,7.987289537e-04,7.707802562e-04,6.708096508e-05,8.378612213e-04,7.876892726e-04,3.724376628e-05,8.249330389e-04,5.754614872e-04,9.798955129e-05,6.734510384e-04,5.091634023e-04,9.483688053e-05,6.040002828e-04,4.519669143e-04,2.971794925e-05,4.816848636e-04,4.483410895e-04,4.500125050e-06,4.528412145e-04,-2.062721039e-04,3.100224809e-05,-1.752698558e-04,-2.848771799e-05,4.989166794e-06,-2.349855119e-05,-2.705663021e-04,2.774433701e-05,-2.428219651e-04,2.116849720e-04,-7.118126691e-05,1.405037051e-04,8.153124539e-04,1.174938444e-05,8.270618384e-04,1.051316467e-03,-3.787866714e-05,1.013437800e-03,3.827673246e-04,2.628787627e-04,6.456460874e-04,9.922747644e-04,-1.741433760e-04,8.181313884e-04,7.002578903e-04,2.616919200e-05,7.264270823e-04,7.574783682e-04,1.270127340e-05,7.701796416e-04,6.780201153e-04,5.575293433e-05,7.337730496e-04,6.306519904e-04,7.168377738e-05,7.023357678e-04,6.200173550e-04,3.069359343e-05,6.507109484e-04,4.051098823e-04,1.417269620e-04,5.468368443e-04,5.234383384e-04,1.693104081e-04,6.927487466e-04,4.882371070e-04,1.076534972e-04,5.958906042e-04
-8,-5.323405229e-04,-3.522185970e-04,-8.845591200e-04,-5.759141188e-04,-8.508823024e-05,-6.610023490e-04,5.744293860e-04,-5.110601584e-05,5.233233702e-04,-4.389639215e-04,-2.972938242e-05,-4.686933040e-04,2.581522416e-04,-1.757152384e-05,2.405807178e-04,-1.943567090e-04,-6.334432117e-05,-2.577010302e-04,5.801223916e-04,-4.175535494e-05,5.383670367e-04,4.227518538e-04,-7.708902734e-05,3.456628265e-04,9.838143932e-05,-3.679794282e-05,6.158349650e-05,4.789288303e-05,-4.027266349e-05,7.620219537e-06,-5.082145076e-04,-9.067761092e-06,-5.172822687e-04,5.522243738e-04,3.046906143e-05,5.826934353e-04,1.358818717e-03,-3.535407577e-04,1.005277959e-03,7.933092211e-04,-2.431349008e-06,7.908778721e-04,7.788366861e-04,6.292887628e-05,8.417655624e-04,7.916674360e-04,2.900250633e-05,8.206699423e-04,5.931922079e-04,9.507964502e-05,6.882718529e-04,5.289315451e-04,8.521764574e-05,6.141491908e-04,4.638168534e-04,2.737841246e-05,4.911952658e-04,4.215761220e-04,-7.628804513e-07,4.208132416e-04,-2.089729015e-04,2.758266831e-05,-1.813902332e-04,-4.387432709e-05,6.663613805e-08,-4.380769095e-05,-2.575574543e-04,2.508719076e-05,-2.324702635e-04,1.915804234e-04,-7.208528047e-05,1.194951429e-04,7.932498312e-04,5.931850116e-06,7.991816813e-04,1.031048802e-03,-4.158661552e-05,9.894621861e-04,3.767385800e-04,2.435805348e-04,6.203191148e-04,9.723563917e-04,-1.662526412e-04,8.061037504e-04,7.109241216e-04,2.390797690e-05,7.348320985e-04,7.626044637e-04,5.087935759e-06,7.676923994e-04,6.806602123e-04,5.305831934e-05,7.337185317e-04,6.331026130e-04,6.469421996e-05,6.977968329e-04,6.341459137e-04,2.816395857e-05,6.623098722e-04,4.357914928e-04,1.330875672e-04,5.688790600e-04,5.331067166e-04,1.602458633e-04,6.933525799e-04,5.040087861e-04,1.205699518e-04,6.245787379e-04
-7.9,-5.478693538e-04,-3.558269961e-04,-9.036963499e-04,-6.024977575e-04,-8.720795341e-05,-6.897057109e-04,5.911728555e-04,-5.364030718e-05,5.375325483e-04,-4.549756213e-04,-3.154798520e-05,-4.865236065e-04,2.305525922e-04,-1.906939173e-05,2.114832004e-04,-2.088466648e-04,-6.325887229e-05,-2.721055371e-04,5.387764288e-04,-4.263930272e-05,4.961371261e-04,3.792930525e-04,-7.987281034e-05,2.994202422e-04,6.540788901e-05,-3.821193448e-05,2.719595453e-05,2.450590100e-05,-4.295938460e-05,-1.845348360e-05,-5.231085969e-04,-1.288021277e-05,-5.359888097e-04,5.386220428e-04,2.533224387e-05,5.639542867e-04,1.339192357e-03,-3.609186936e-04,9.782736630e-04,7.861579869e-04,-6.062087657e-06,7.800958992e-04,7.845388922e-04,5.803626075e-05,8.425751530e-04,7.924159485e-04,2.057985779e-05,8.129958063e-04,6.083530309e-04,9.191293560e-05,7.002659665e-04,5.446379383e-04,7.533063566e-05,6.199685740e-04,4.732741633e-04,2.502776946e-05,4.983019327e-04,3.934648434e-04,-6.016202532e-06,3.874486408e-04,-2.115917119e-04,2.402077871e-05,-1.875709332e-04,-5.963780902e-05,-4.655251212e-06,-6.429306023e-05,-2.467412155e-04,2.227589397e-05,-2.244653216e-04,1.688633061e-04,-7.282600311e-05,9.603730296e-05,7.694290779e-04,8.565566945e-08,7.695147336e-04,1.007868218e-03,-4.531787746e-05,9.625503409e-04,3.697066495e-04,2.226444710e-04,5.923511204e-04,9.479105879e-04,-1.563182356e-04,7.915923523e-04,7.196722604e-04,2.178851419e-05,7.414607745e-04,7.665133321e-04,-2.257160057e-06,7.642561720e-04,6.810718342e-04,5.052604738e-05,7.315978816e-04,6.344787952e-04,5.728126476e-05,6.917600600e-04,6.467154276e-04,2.582415194e-05,6.725395796e-04,4.657829024e-04,1.250612412e-04,5.908441436e-04,5.421532124e-04,1.498218292e-04,6.919750416e-04,5.181172067e-04,1.323643615e-04,6.504815682e-04
-7.8,-5.610127976e-04,-3.584026087e-04,-9.194154063e-04,-6.279717490e-04,-8.889354957e-05,-7.168652986e-04,6.035650142e-04,-5.638038693e-05,5.471846272e-04,-4.707784507e-04,-3.337562964e-05,-5.041540804e-04,2.016192105e-04,-2.061244358e-05,1.810067669e-04,-2.229878610e-04,-6.311492717e-05,-2.861027882e-04,4.959731805e-04,-4.337660389e-05,4.525965766e-04,3.347020159e-04,-8.219636582e-05,2.525056501e-04,3.232881676e-05,-3.946610912e-05,-7.137292362e-06,5.949717487e-07,-4.544489065e-05,-4.484991890e-05,-5.365631809e-04,-1.664498307e-05,-5.532081639e-04,5.236558559e-04,2.005802200e-05,5.437138779e-04,1.315753973e-03,-3.668448225e-04,9.489091502e-04,7.762787692e-04,-9.983296053e-06,7.662954731e-04,7.877797586e-04,5.241214196e-05,8.401919006e-04,7.899394013e-04,1.201664871e-05,8.019560500e-04,6.208362720e-04,8.847875439e-05,7.093150264e-04,5.561081132e-04,6.519601565e-05,6.213041289e-04,4.802462920e-04,2.265313854e-05,5.028994305e-04,3.640860471e-04,-1.123882854e-05,3.528472186e-04,-2.141690831e-04,2.032824987e-05,-1.938408332e-04,-7.579631325e-05,-9.130038134e-06,-8.492635139e-05,-2.381501311e-04,1.932845442e-05,-2.188216766e-04,1.436474286e-04,-7.342051975e-05,7.022690882e-05,7.438543983e-04,-5.742311056e-06,7.381120873e-04,9.817862010e-04,-4.903957286e-05,9.327466281e-04,3.616510905e-04,2.002826631e-04,5.619337536e-04,9.190552049e-04,-1.444497851e-04,7.746054198e-04,7.263363341e-04,1.982942084e-05,7.461657550e-04,7.689757225e-04,-9.263703061e-06,7.597120194e-04,6.792047111e-04,4.814140258e-05,7.273461136e-04,6.346917599e-04,4.946729764e-05,6.841590576e-04,6.574566091e-04,2.373315863e-05,6.811897677e-04,4.948558446e-04,1.176653120e-04,6.125211566e-04,5.505131160e-04,1.380069982e-04,6.885201142e-04,5.303763480e-04,1.428948876e-04,6.732712357e-04
-7.7,-5.715095972e-04,-3.598347264e-04,-9.313443236e-04,-6.522395552e-04,-9.015614684e-05,-7.423957021e-04,6.116096708e-04,-5.926944714e-05,5.523402237e-04,-4.862314806e-04,-3.519937388e-05,-5.214308544e-04,1.715238749e-04,-2.218851542e-05,1.493353595e-04,-2.367246558e-04,-6.291038005e-05,-2.996350359e-04,4.519033920e-04,-4.396628815e-05,4.079371039e-04,2.891572737e-04,-8.404850116e-05,2.051087726e-04,-7.491491866e-07,-4.055894875e-05,-4.130809794e-05,-2.377400467e-05,-4.771245198e-05,-7.148645665e-05,-5.485443613e-04,-2.033960723e-05,-5.688839685e-04,5.073301608e-04,1.468786135e-05,5.220180221e-04,1.288661428e-03,-3.712500527e-04,9.174113755e-04,7.636014130e-04,-1.415804481e-05,7.494433681e-04,7.884855335e-04,4.607871045e-05,8.345642440e-04,7.842833903e-04,3.358458385e-06,7.876418486e-04,6.305661270e-04,8.477223060e-05,7.153383576e-04,5.632245295e-04,5.483818014e-05,6.180627096e-04,4.846692351e-04,2.024231145e-05,5.049115465e-04,3.335454654e-04,-1.641122276e-05,3.171342426e-04,-2.167272046e-04,1.651921791e-05,-2.002079867e-04,-9.233938039e-05,-1.331249600e-05,-1.056518764e-04,-2.317789941e-04,1.626610204e-05,-2.155128920e-04,1.160904958e-04,-7.388522489e-05,4.220527088e-05,7.165596959e-04,-1.150347685e-05,7.050562190e-04,9.528545335e-04,-5.271559095e-05,9.001389426e-04,3.525877282e-04,1.767151531e-04,5.293028812e-04,8.859752867e-04,-1.307830554e-04,7.551922313e-04,7.307816541e-04,1.804569243e-05,7.488273465e-04,7.697966680e-04,-1.587015142e-05,7.539265166e-04,6.750421538e-04,4.588743652e-05,7.209295903e-04,6.336695512e-04,4.128518915e-05,6.749547403e-04,6.661227459e-04,2.194945128e-05,6.880721972e-04,5.228075005e-04,1.109087528e-04,6.337162533e-04,5.581204707e-04,1.248028372e-04,6.829233080e-04,5.406232432e-04,1.520394614e-04,6.926627045e-04
-7.6,-5.791366044e-04,-3.600284923e-04,-9.391650967e-04,-6.751891229e-04,-9.100722256e-05,-7.661963454e-04,6.153576381e-04,-6.224891021e-05,5.531087279e-04,-5.011774440e-04,-3.700454385e-05,-5.381819878e-04,1.404678792e-04,-2.378470093e-05,1.166831783e-04,-2.499813084e-04,-6.264374023e-05,-3.126250486e-04,4.067923150e-04,-4.440884365e-05,3.623834714e-04,2.428720825e-04,-8.542489597e-05,1.574471866e-04,-3.369691466e-05,-4.148970259e-05,-7.518661725e-05,-4.851119311e-05,-4.974661549e-05,-9.825780860e-05,-5.590104870e-04,-2.394144236e-05,-5.829519293e-04,4.896889294e-04,9.260641648e-06,4.989495711e-04,1.258111885e-03,-3.740772193e-04,8.840346655e-04,7.481055695e-04,-1.854420173e-05,7.295613677e-04,7.866177023e-04,3.907049042e-05,8.256881927e-04,7.755365616e-04,-5.345191533e-06,7.701913701e-04,6.375028320e-04,8.079403528e-05,7.182968673e-04,5.659328389e-04,4.428537129e-05,6.102182102e-04,4.865107969e-04,1.778438982e-05,5.042951867e-04,3.019757636e-04,-2.151501205e-05,2.804607516e-04,-2.192683588e-04,1.261020626e-05,-2.066581525e-04,-1.092242941e-04,-1.716066602e-05,-1.263849601e-04,-2.275849000e-04,1.311287896e-05,-2.144720211e-04,8.639203639e-05,-7.423547266e-05,1.215656373e-05,6.876127450e-04,-1.714913397e-05,6.704636111e-04,9.211697519e-04,-5.630695641e-05,8.648627955e-04,3.425701004e-04,1.521676931e-04,4.947377935e-04,8.489237786e-04,-1.154767711e-04,7.334470075e-04,7.329073577e-04,1.644816780e-05,7.493555255e-04,7.688200024e-04,-2.202531038e-05,7.467946921e-04,6.686003539e-04,4.374596595e-05,7.123463198e-04,6.313572443e-04,3.277873699e-05,6.641359813e-04,6.724989568e-04,2.052671657e-05,6.930256734e-04,5.494624038e-04,1.047915603e-04,6.542539641e-04,5.649071306e-04,1.102464432e-04,6.751535738e-04,5.487234025e-04,1.596940641e-04,7.084174666e-04
-7.5,-5.837137925e-04,-3.589071388e-04,-9.426209313e-04,-6.966937937e-04,-9.145900101e-05,-7.881527947e-04,6.149047824e-04,-6.525985609e-05,5.496449263e-04,-5.154454451e-04,-3.877530691e-05,-5.542207520e-04,1.086786081e-04,-2.538777154e-05,8.329083654e-05,-2.626636863e-04,-6.231467546e-05,-3.249783618e-04,3.608947802e-04,-4.470631442e-05,3.161884658e-04,1.960916980e-04,-8.632847616e-05,1.097632218e-04,-6.636630915e-05,-4.225856889e-05,-1.086248780e-04,-7.350447416e-05,-5.153345895e-05,-1.250379331e-04,-5.679129957e-04,-2.742796119e-05,-5.953409569e-04,4.708138018e-04,3.810884998e-06,4.746246868e-04,1.224334892e-03,-3.752778767e-04,8.490570158e-04,7.298159496e-04,-2.309618859e-05,7.067197610e-04,7.821698047e-04,3.143342469e-05,8.136032294e-04,7.638265417e-04,-1.404139048e-05,7.497851512e-04,6.416426806e-04,7.654953262e-05,7.181922132e-04,5.642434489e-04,3.356909796e-05,5.978125468e-04,4.857715048e-04,1.527005860e-05,5.010415634e-04,2.695332554e-04,-2.653270588e-05,2.430005495e-04,-2.217772015e-04,8.619851182e-06,-2.131573503e-04,-1.263766491e-04,-2.063763010e-05,-1.470142792e-04,-2.254905944e-04,9.895120172e-06,-2.155954742e-04,5.478783085e-05,-7.448516654e-05,-1.969733569e-05,6.571135604e-04,-2.263208699e-05,6.344814735e-04,8.868697344e-04,-5.977273870e-05,8.270969957e-04,3.316856421e-04,1.268703371e-04,4.585559792e-04,8.082157264e-04,-9.871023306e-05,7.095054934e-04,7.326452328e-04,1.504265358e-05,7.476878864e-04,7.659273988e-04,-2.768907458e-05,7.382383242e-04,6.599243339e-04,4.169806258e-05,7.016223964e-04,6.277146489e-04,2.400186136e-05,6.517165102e-04,6.764078486e-04,1.950924890e-05,6.959170975e-04,5.746688035e-04,9.930455549e-05,6.739733590e-04,5.707992194e-04,9.441157918e-05,6.652107986e-04,5.545717584e-04,1.657718775e-04,7.203436359e-04
-7.4,-5.851093754e-04,-3.564136414e-04,-9.415230168e-04,-7.166151516e-04,-9.152481242e-05,-8.081399640e-04,6.103869680e-04,-6.824449006e-05,5.421424779e-04,-5.288564359e-04,-4.049531674e-05,-5.693517526e-04,7.640249138e-05,-2.698464316e-05,4.941784822e-05,-2.746639607e-04,-6.192437489e-05,-3.365883355e-04,3.144860067e-04,-4.486230209e-05,2.696237046e-04,1.490871033e-04,-8.676943023e-05,6.231767311e-05,-9.859699256e-05,-4.286683602e-05,-1.414638286e-04,-9.862430656e-05,-5.306075690e-05,-1.516850635e-04,-5.752000989e-04,-3.077701825e-05,-6.059771172e-04,4.508175952e-04,-1.632848295e-06,4.491847469e-04,1.187580700e-03,-3.748103137e-04,8.127703859e-04,7.087925255e-04,-2.776690824e-05,6.810256172e-04,7.751601146e-04,2.322416916e-05,7.983842838e-04,7.493102997e-04,-2.267407546e-05,7.266362242e-04,6.430138844e-04,7.204762182e-05,7.150615062e-04,5.582283301e-04,2.272356286e-05,5.809518930e-04,4.824827207e-04,1.269161307e-05,4.951743337e-04,2.363918829e-04,-3.144760525e-05,2.049442777e-04,-2.242263211e-04,4.568405333e-06,-2.196579157e-04,-1.436946590e-04,-2.371300518e-05,-1.674076641e-04,-2.253905560e-04,6.640873659e-06,-2.187496823e-04,2.154171304e-05,-7.464640552e-05,-5.310469248e-05,6.251875360e-04,-2.790829577e-05,5.972792402e-04,8.501233372e-04,-6.307140466e-05,7.870519325e-04,3.200471241e-04,1.010562895e-04,4.211034136e-04,7.642156902e-04,-8.068118521e-05,6.835345050e-04,7.299555844e-04,1.382887004e-05,7.437844545e-04,7.610331204e-04,-3.283247804e-05,7.282006424e-04,6.490812930e-04,3.972413070e-05,6.888054237e-04,6.227120905e-04,1.501683183e-05,6.377289223e-04,6.777109037e-04,1.892781265e-05,6.966387164e-04,5.982896275e-04,9.442988312e-05,6.927195106e-04,5.757120036e-04,7.740769469e-05,6.531196983e-04,5.580900913e-04,1.702031886e-04,7.282932798e-04
-7.3,-5.832443839e-04,-3.525116838e-04,-9.357560677e-04,-7.348074157e-04,-9.121931503e-05,-8.260267308e-04,6.019729704e-04,-7.114754919e-05,5.308254212e-04,-5.412303960e-04,-4.214834840e-05,-5.833787444e-04,4.389565816e-05,-2.856279671e-05,1.533286145e-05,-2.858672446e-04,-6.147566277e-05,-3.473429074e-04,2.678500638e-04,-4.488185273e-05,2.229682111e-04,1.021461284e-04,-8.676478394e-05,1.538134451e-05,-1.302253049e-04,-4.331695405e-05,-1.735422590e-04,-1.237307118e-04,-5.431812370e-05,-1.780488355e-04,-5.808224332e-04,-3.396711349e-05,-6.147895467e-04,4.298353516e-04,-7.049361020e-06,4.227859906e-04,1.148106614e-03,-3.726389780e-04,7.754676358e-04,6.851187121e-04,-3.250954558e-05,6.526091665e-04,7.656222928e-04,1.450965084e-05,7.801319436e-04,7.321613786e-04,-3.118429002e-05,7.009770886e-04,6.416695578e-04,6.729944986e-05,7.089690077e-04,5.480140335e-04,1.178540647e-05,5.597994400e-04,4.767022378e-04,1.004293024e-05,4.867451680e-04,2.027356844e-04,-3.624381356e-05,1.664918709e-04,-2.265835747e-04,4.771252580e-07,-2.261064494e-04,-1.610558538e-04,-2.636408938e-05,-1.874199432e-04,-2.271584769e-04,3.379298465e-06,-2.237791784e-04,-1.306375308e-05,-7.472929398e-05,-8.779304707e-05,5.919755112e-04,-3.293841343e-05,5.590370978e-04,8.111159935e-04,-6.616236865e-05,7.449536248e-04,3.077815831e-04,7.496051471e-05,3.827420978e-04,7.173199137e-04,-6.160319864e-05,6.557167151e-04,7.248215820e-04,1.279954976e-05,7.376211318e-04,7.540765334e-04,-3.743707543e-05,7.166394580e-04,6.361526279e-04,3.780392355e-05,6.739565515e-04,6.163252015e-04,5.892035205e-06,6.222172367e-04,6.763063614e-04,1.879663382e-05,6.951029952e-04,6.201894861e-04,9.014222420e-05,7.103317103e-04,5.795446347e-04,5.937705450e-05,6.389216892e-04,5.592220794e-04,1.729361986e-04,7.321582780e-04
-7.2,-5.780958041e-04,-3.471859291e-04,-9.252817332e-04,-7.511226257e-04,-9.055854231e-05,-8.416811680e-04,5.898567959e-04,-7.391756422e-05,5.159392316e-04,-5.523937470e-04,-4.371887158e-05,-5.961126186e-04,1.141414248e-05,-3.011060080e-05,-1.869645832e-05,-2.961586260e-04,-6.097291818e-05,-3.571315442e-04,2.212684980e-04,-4.477123322e-05,1.764972648e-04,5.556364607e-05,-8.633766121e-05,-3.077401514e-05,-1.610928622e-04,-4.361251211e-05,-2.047053743e-04,-1.486806817e-04,-5.529716001e-05,-2.039778417e-04,-5.847391777e-04,-3.697765731e-05,-6.217168350e-04,4.080152892e-04,-1.242583864e-05,3.955894506e-04,1.106164791e-03,-3.687348731e-04,7.374299182e-04,6.588912544e-04,-3.727903636e-05,6.216122181e-04,7.535968947e-04,5.366701086e-06,7.589635958e-04,7.125571472e-04,-3.951081487e-05,6.730463324e-04,6.376797222e-04,6.231714136e-05,6.999968636e-04,5.337723845e-04,7.938619819e-07,5.345662464e-04,4.685082944e-04,7.319527248e-06,4.758278217e-04,1.687513906e-04,-4.090613826e-05,1.278452523e-04,-2.288191554e-04,-3.632273697e-06,-2.324514291e-04,-1.783243761e-04,-2.857648133e-05,-2.069008574e-04,-2.306544048e-04,1.400779925e-07,-2.305143268e-04,-4.873603903e-05,-7.474190465e-05,-1.234779437e-04,5.576234808e-04,-3.768909043e-05,5.199343904e-04,7.700351486e-04,-6.900747997e-05,7.010276686e-04,2.950194165e-04,4.881787712e-05,3.438372937e-04,6.679366610e-04,-4.170223406e-05,6.262344270e-04,7.172438580e-04,1.194003558e-05,7.291838936e-04,7.450146953e-04,-4.149360142e-05,7.035210939e-04,6.212263458e-04,3.591684698e-05,6.571431928e-04,6.085299990e-04,-3.300216749e-06,6.052297823e-04,6.721254228e-04,1.911188435e-05,6.912373072e-04,6.402213209e-04,8.641031932e-05,7.266316402e-04,5.821760288e-04,4.049073606e-05,6.226667649e-04,5.579274475e-04,1.739387271e-04,7.318661746e-04
-7.1,-5.696973804e-04,-3.404416072e-04,-9.101389876e-04,-7.654155730e-04,-8.955980582e-05,-8.549753789e-04,5.742510150e-04,-7.650790063e-05,4.977431144e-04,-5.621853291e-04,-4.519252426e-05,-6.073778534e-04,-2.079422681e-05,-3.161750713e-05,-5.241173394e-05,-3.054287939e-04,-6.042188457e-05,-3.658506785e-04,1.750118283e-04,-4.453757922e-05,1.304742491e-04,9.633007735e-06,-8.551641172e-05,-7.588340398e-05,-1.910524998e-04,-4.375809757e-05,-2.348105973e-04,-1.733340276e-04,-5.599157198e-05,-2.293255995e-04,-5.869228139e-04,-3.978921497e-05,-6.267120289e-04,3.855120288e-04,-1.775799865e-05,3.677540301e-04,1.061994695e-03,-3.630766125e-04,6.989180822e-04,6.302153067e-04,-4.203296659e-05,5.881823402e-04,7.391268172e-04,-4.118629214e-06,7.350081880e-04,6.906692526e-04,-4.759120769e-05,6.430780449e-04,6.311245011e-04,5.711281002e-05,6.882373111e-04,5.157106784e-04,-1.020872345e-05,5.055019549e-04,4.579934250e-04,4.518776320e-06,4.625122013e-04,1.346229698e-04,-4.541979029e-05,8.920317950e-05,-2.309101946e-04,-7.737975558e-06,-2.386481702e-04,-1.953569099e-04,-3.034404718e-05,-2.257009571e-04,-2.357297607e-04,-3.047103103e-06,-2.387768638e-04,-8.517920734e-05,-7.469029612e-05,-1.598695035e-04,5.222748067e-04,-4.213389424e-05,4.801409125e-04,7.270596043e-04,-7.157220816e-05,6.554873961e-04,2.818863158e-04,2.286045604e-05,3.047467718e-04,6.164694749e-04,-2.121265746e-05,5.952568174e-04,7.072371883e-04,1.122862659e-05,7.184658149e-04,7.338173991e-04,-4.500002636e-05,6.888173728e-04,6.043918958e-04,3.404260033e-05,6.384344962e-04,5.992999245e-04,-1.248545369e-05,5.868144708e-04,6.651290120e-04,1.985175750e-05,6.849807695e-04,6.582182513e-04,8.319807137e-05,7.414163227e-04,5.834633030e-04,2.094439670e-05,6.044076997e-04,5.541775150e-04,1.732002214e-04,7.273777364e-04
-7,-5.581373881e-04,-3.323034526e-04,-8.904408407e-04,-7.775473219e-04,-8.824152028e-05,-8.657888422e-04,5.553826331e-04,-7.887749221e-05,4.765051409e-04,-5.704594054e-04,-4.655643355e-05,-6.170158389e-04,-5.249430607e-05,-3.307408790e-05,-8.556839397e-05,-3.135767575e-04,-5.982940937e-05,-3.734061669e-04,1.293360073e-04,-4.418840835e-05,8.514759896e-05,-3.535937987e-05,-8.433370776e-05,-1.196930876e-04,-2.199698332e-04,-4.375905527e-05,-2.637288884e-04,-1.975560248e-04,-5.639726627e-05,-2.539532910e-04,-5.873609509e-04,-4.238371506e-05,-6.297446659e-04,3.624837924e-04,-2.304889407e-05,3.394348983e-04,1.015821883e-03,-3.556521451e-04,6.601697377e-04,5.992064722e-04,-4.673173048e-05,5.524747418e-04,7.222585144e-04,-1.385238773e-05,7.084061267e-04,6.666598028e-04,-5.536301630e-05,6.112967865e-04,6.220904788e-04,5.169822411e-05,6.737887030e-04,4.940635017e-04,-2.117605062e-05,4.728874510e-04,4.452598317e-04,1.640275104e-06,4.469001068e-04,1.005295064e-04,-4.976997626e-05,5.075953009e-05,-2.328412695e-04,-1.181825640e-05,-2.446595259e-04,-2.120056863e-04,-3.166828899e-05,-2.436739752e-04,-2.422289685e-04,-6.152977259e-06,-2.483819458e-04,-1.220970190e-04,-7.457853325e-05,-1.966755522e-04,4.860673372e-04,-4.625362788e-05,4.398137094e-04,6.823563172e-04,-7.382633652e-05,6.085299807e-04,2.685003719e-04,-2.686384855e-06,2.658139871e-04,5.633081229e-04,-3.734297197e-07,5.629346932e-04,6.948305003e-04,1.063771798e-05,7.054682183e-04,7.204662819e-04,-4.795934656e-05,6.725069353e-04,5.857389739e-04,3.216194286e-05,6.179009167e-04,5.886061642e-04,-2.158816462e-05,5.670179995e-04,6.553068882e-04,2.097797262e-05,6.762848609e-04,6.739947792e-04,8.046463640e-05,7.544594156e-04,5.832444352e-04,9.541316343e-07,5.841985669e-04,5.479544839e-04,1.707333066e-04,7.186877906e-04
-6.9,-5.435532082e-04,-3.228140920e-04,-8.663673002e-04,-7.873865972e-04,-8.662297975e-05,-8.740095769e-04,5.334921908e-04,-8.099119093e-05,4.525009999e-04,-5.770851088e-04,-4.779933153e-05,-6.248844403e-04,-8.346378803e-05,-3.447191927e-05,-1.179357073e-04,-3.205094002e-04,-5.920311300e-05,-3.797125132e-04,8.448394187e-05,-4.373108633e-05,4.075285554e-05,-7.913579902e-05,-8.282569576e-05,-1.619614948e-04,-2.477206305e-04,-4.362122908e-05,-2.913418595e-04,-2.212165344e-04,-5.651248873e-05,-2.777290231e-04,-5.860548056e-04,-4.474463914e-05,-6.307994448e-04,3.390934548e-04,-2.830654407e-05,3.107869107e-04,9.678620566e-04,-3.464613857e-04,6.214006709e-04,5.659980860e-04,-5.133810032e-05,5.146599857e-04,7.030478513e-04,-2.373461797e-05,6.793132334e-04,6.406836677e-04,-6.276487316e-05,5.779187945e-04,6.106709493e-04,4.608535794e-05,6.567563073e-04,4.690877743e-04,-3.205692067e-05,4.370308537e-04,4.304175184e-04,-1.313702420e-06,4.291038160e-04,6.664630972e-05,-5.394150435e-05,1.270480538e-05,-2.346008817e-04,-1.585161699e-05,-2.504524987e-04,-2.281184504e-04,-3.255732685e-05,-2.606757772e-04,-2.499878906e-04,-9.149012307e-06,-2.591369029e-04,-1.591927130e-04,-7.440875052e-05,-2.336014636e-04,4.491360117e-04,-5.003585497e-05,3.991001567e-04,6.360858140e-04,-7.574406047e-05,5.603417535e-04,2.549750336e-04,-2.760902098e-05,2.273660126e-04,5.088290085e-04,2.057510409e-05,5.294041126e-04,6.800697564e-04,1.013547891e-05,6.902052353e-04,7.049575782e-04,-5.037760813e-05,6.545799701e-04,5.653601416e-04,3.025733580e-05,5.956174774e-04,5.764210351e-04,-3.053240086e-05,5.458886343e-04,6.426794687e-04,2.243827134e-05,6.651177401e-04,6.873566517e-04,7.816354450e-05,7.655201963e-04,5.813456657e-04,-1.924784881e-05,5.620978169e-04,5.392549542e-04,1.665744799e-04,7.058294341e-04
-6.8,-5.261234505e-04,-3.120320711e-04,-8.381555217e-04,-7.948094134e-04,-8.472408588e-05,-8.795334992e-04,5.088351327e-04,-8.281973548e-05,4.260153972e-04,-5.819434804e-04,-4.891150278e-05,-6.308549832e-04,-1.134904880e-04,-3.580339407e-05,-1.492938821e-04,-3.261393636e-04,-5.855098385e-05,-3.846903475e-04,4.068951471e-05,-4.317241465e-05,-2.482899937e-06,-1.214267046e-04,-8.103128156e-05,-2.024579861e-04,-2.741863828e-04,-4.335078141e-05,-3.175371642e-04,-2.441870921e-04,-5.633803703e-05,-3.005251292e-04,-5.830155475e-04,-4.685721852e-05,-6.298727660e-04,3.155110842e-04,-3.354128626e-05,2.819697980e-04,9.183269353e-04,-3.355197536e-04,5.828071817e-04,5.307487848e-04,-5.581666709e-05,4.749321177e-04,6.815668281e-04,-3.366160377e-05,6.479052243e-04,6.128941683e-04,-6.973735339e-05,5.431568149e-04,5.969686889e-04,4.028759928e-05,6.372562882e-04,4.410607314e-04,-4.279461071e-05,3.982661207e-04,4.135849829e-04,-4.337803474e-06,4.092471794e-04,3.314734711e-05,-5.791842758e-05,-2.477108047e-05,-2.361760457e-04,-1.981693516e-05,-2.559929809e-04,-2.435371137e-04,-3.302472587e-05,-2.765618395e-04,-2.588309353e-04,-1.200769099e-05,-2.708386263e-04,-1.961673437e-04,-7.418131565e-05,-2.703486594e-04,4.116186445e-04,-5.347381063e-05,3.581448338e-04,5.884128934e-04,-7.730362384e-05,5.111092695e-04,2.414256658e-04,-5.171093807e-05,1.897147277e-04,4.534014604e-04,4.139414300e-05,4.947956034e-04,6.630214503e-04,9.687561438e-06,6.727090118e-04,6.873060859e-04,-5.226269942e-05,6.350433865e-04,5.433550668e-04,2.831331987e-05,5.716683867e-04,5.627225929e-04,-3.924230862e-05,5.234802843e-04,6.273008144e-04,2.416936810e-05,6.514701825e-04,6.981146253e-04,7.624125960e-05,7.743558849e-04,5.775917828e-04,-3.941810372e-05,5.381736790e-04,5.280955405e-04,1.607839238e-04,6.888794644e-04
-6.7,-5.060591319e-04,-3.000297395e-04,-8.060888714e-04,-7.996983082e-04,-8.256508044e-05,-8.822633887e-04,4.816831612e-04,-8.433945013e-05,3.973437110e-04,-5.849245254e-04,-4.988469643e-05,-6.348092218e-04,-1.423697375e-04,-3.706158745e-05,-1.794313250e-04,-3.303836397e-04,-5.788089973e-05,-3.882645394e-04,-1.819674017e-06,-4.251845516e-05,-4.433812917e-05,-1.619705494e-04,-7.899148293e-05,-2.409620323e-04,-2.992511706e-04,-4.295412370e-05,-3.422052943e-04,-2.663384052e-04,-5.587745844e-05,-3.222158637e-04,-5.782606391e-04,-4.870863062e-05,-6.269692697e-04,2.919145477e-04,-3.876373035e-05,2.531508174e-04,8.674277008e-04,-3.228618292e-04,5.445658716e-04,4.936453073e-04,-6.013360642e-05,4.335117009e-04,6.579073415e-04,-4.352839742e-05,6.143789440e-04,5.834479087e-04,-7.622378298e-05,5.072241257e-04,5.810984772e-04,3.432097978e-05,6.154194570e-04,4.102786618e-04,-5.332693138e-05,3.569517304e-04,3.948907705e-04,-7.423389293e-06,3.874673812e-04,2.065213408e-07,-6.168376434e-05,-6.147724300e-05,-2.375479474e-04,-2.369365772e-05,-2.612416051e-04,-2.580974879e-04,-3.308834959e-05,-2.911858375e-04,-2.685692360e-04,-1.470283125e-05,-2.832720672e-04,-2.327191471e-04,-7.389511053e-05,-3.066142576e-04,3.736608245e-04,-5.656532686e-05,3.170954976e-04,5.395161416e-04,-7.848695566e-05,4.610291859e-04,2.279751303e-04,-7.481756097e-05,1.531575693e-04,3.973930866e-04,6.184960413e-05,4.592426907e-04,6.437741779e-04,9.258378818e-06,6.530325567e-04,6.675474414e-04,-5.362417892e-05,6.139232625e-04,5.198335191e-04,2.631661204e-05,5.461501312e-04,5.474981957e-04,-4.764288916e-05,4.998553065e-04,6.092602143e-04,2.609996453e-05,6.353601789e-04,7.060965687e-04,7.463550057e-05,7.807320693e-04,5.718160979e-04,-5.930757396e-05,5.125085239e-04,5.145174824e-04,1.534445184e-04,6.679620008e-04
-6.6,-4.835953459e-04,-2.868911630e-04,-7.704865088e-04,-8.019425589e-04,-8.016635707e-05,-8.821089160e-04,4.523235128e-04,-8.553181771e-05,3.667916951e-04,-5.859264003e-04,-5.071209977e-05,-6.366385001e-04,-1.699044490e-04,-3.824024194e-05,-2.081446909e-04,-3.331646144e-04,-5.720007661e-05,-3.903646910e-04,-4.282357127e-05,-4.177457306e-05,-8.459814433e-05,-2.005161696e-04,-7.674864079e-05,-2.772648103e-04,-3.228019113e-04,-4.243791713e-05,-3.652398285e-04,-2.875402791e-04,-5.513708984e-05,-3.426773690e-04,-5.718120348e-04,-5.028816278e-05,-6.221001976e-04,2.684856045e-04,-4.398356947e-05,2.245020351e-04,8.153726065e-04,-3.085437796e-04,5.068288269e-04,4.548982478e-04,-6.425702631e-05,3.906412215e-04,6.321800469e-04,-5.323163088e-05,5.789484160e-04,5.525058525e-04,-8.217134115e-05,4.703345114e-04,5.631869333e-04,2.820493428e-05,5.913918676e-04,3.770541768e-04,-6.358696184e-05,3.134672150e-04,3.744739552e-04,-1.055865019e-05,3.639153050e-04,-3.200376813e-05,-6.521946114e-05,-9.722322927e-05,-2.386907966e-04,-2.746203981e-05,-2.661528364e-04,-2.716315862e-04,-3.276947244e-05,-3.044010587e-04,-2.790014856e-04,-1.720999645e-05,-2.962114821e-04,-2.685454439e-04,-7.354792667e-05,-3.420933706e-04,3.354167172e-04,-5.931232046e-05,2.761043967e-04,4.895910601e-04,-7.927978979e-05,4.103112703e-04,2.147543025e-04,-9.677975929e-05,1.179745432e-04,3.411692685e-04,8.171563370e-05,4.228849022e-04,6.224368541e-04,8.811845531e-06,6.312486996e-04,6.457367138e-04,-5.447386263e-05,5.912628512e-04,4.949152895e-04,2.425592526e-05,5.191712148e-04,5.307455941e-04,-5.566105025e-05,4.750845438e-04,5.886802685e-04,2.815363634e-05,6.168339048e-04,7.111533951e-04,7.327390595e-05,7.844273011e-04,5.638677006e-04,-7.866774646e-05,4.851999542e-04,4.985879565e-04,1.446602917e-04,6.432482482e-04
-6.5,-4.589841485e-04,-2.727101382e-04,-7.316942866e-04,-8.014400482e-04,-7.754835639e-05,-8.789884046e-04,4.210553709e-04,-8.638301109e-05,3.346723598e-04,-5.848574818e-04,-5.138835539e-05,-6.362458372e-04,-1.959087729e-04,-3.933383799e-05,-2.352426109e-04,-3.344139770e-04,-5.651447583e-05,-3.909284529e-04,-8.211556857e-05,-4.094560079e-05,-1.230611694e-04,-2.368285500e-04,-7.434534721e-05,-3.111738972e-04,-3.447324796e-04,-4.180908787e-05,-3.865415674e-04,-3.076648252e-04,-5.412586566e-05,-3.617906908e-04,-5.636971445e-04,-5.158733448e-05,-6.152844790e-04,2.454009234e-04,-4.920897629e-05,1.961919471e-04,7.623574768e-04,-2.926435708e-04,4.697139060e-04,4.147315078e-04,-6.815795391e-05,3.465735539e-04,6.045083222e-04,-6.267240014e-05,5.418359220e-04,5.202301609e-04,-8.753261692e-05,4.326975440e-04,5.433686528e-04,2.196261368e-05,5.653312664e-04,3.417112857e-04,-7.350423927e-05,2.682070464e-04,3.524824265e-04,-1.372904293e-05,3.387533836e-04,-6.331705902e-05,-6.850671310e-05,-1.318237721e-04,-2.395744992e-04,-3.110344429e-05,-2.706779434e-04,-2.839726577e-04,-3.209238209e-05,-3.160650398e-04,-2.899177688e-04,-1.950699364e-05,-3.094247624e-04,-3.033472215e-04,-7.313694220e-05,-3.764841637e-04,2.970447558e-04,-6.172080311e-05,2.353239527e-04,4.388453737e-04,-7.967234217e-05,3.591730315e-04,2.018965810e-04,-1.174757325e-04,8.442084849e-05,2.850862487e-04,1.007781386e-04,3.858643874e-04,5.991334125e-04,8.311828897e-06,6.074452414e-04,6.219427405e-04,-5.482648065e-05,5.671162599e-04,4.687268058e-04,2.212145838e-05,4.908482641e-04,5.124714068e-04,-6.322711075e-05,4.492442960e-04,5.657105854e-04,3.025157275e-05,5.959621581e-04,7.131565616e-04,7.207406437e-05,7.852306259e-04,5.536151883e-04,-9.725688879e-05,4.563582995e-04,4.803970240e-04,1.345547415e-04,6.149517655e-04
-6.4,-4.324887161e-04,-2.575882961e-04,-6.900770122e-04,-7.981007515e-04,-7.473149476e-05,-8.728322462e-04,3.881837519e-04,-8.688341070e-05,3.013003412e-04,-5.816408747e-04,-5.190956549e-05,-6.335504402e-04,-2.202147701e-04,-4.033766952e-05,-2.605524396e-04,-3.340788131e-04,-5.582824490e-05,-3.899070580e-04,-1.195119257e-04,-4.003603529e-05,-1.595479610e-04,-2.706973139e-04,-7.182316264e-05,-3.425204765e-04,-3.649508301e-04,-4.107483023e-05,-4.060256603e-04,-3.265925651e-04,-5.285493473e-05,-3.794474999e-04,-5.539524167e-04,-5.259999880e-05,-6.065524155e-04,2.228195329e-04,-5.444623272e-05,1.683733002e-04,7.085509315e-04,-2.752590459e-04,4.332918856e-04,3.733680250e-04,-7.181180998e-05,3.015562151e-04,5.750186757e-04,-7.175887439e-05,5.032598013e-04,4.867778371e-04,-9.226744032e-05,3.945103968e-04,5.217790573e-04,1.562101108e-05,5.374000683e-04,3.045787696e-04,-8.300629311e-05,2.215724765e-04,3.290688107e-04,-1.691788385e-05,3.121509269e-04,-9.357957486e-05,-7.152650121e-05,-1.651060761e-04,-2.401704164e-04,-3.460067248e-05,-2.747710889e-04,-2.949623343e-04,-3.108443426e-05,-3.260467686e-04,-3.011057093e-04,-2.157441430e-05,-3.226801236e-04,-3.368356566e-04,-7.265915764e-05,-4.094948142e-04,2.586989816e-04,-6.380091178e-05,1.948980698e-04,3.874880771e-04,-7.966025261e-05,3.078278245e-04,1.895283791e-04,-1.368116457e-04,5.271673348e-05,2.294799862e-04,1.188379597e-04,3.483179458e-04,5.739947804e-04,7.722688380e-06,5.817174688e-04,5.962392494e-04,-5.469983882e-05,5.415394106e-04,4.413953528e-04,1.990406996e-05,4.612994228e-04,4.926878034e-04,-7.027687050e-05,4.224109329e-04,5.405175906e-04,3.231519997e-05,5.728327906e-04,7.119884216e-04,7.094558747e-05,7.829340091e-04,5.409471930e-04,-1.148458624e-04,4.261013306e-04,4.600504225e-04,1.232692370e-04,5.833196595e-04
-6.3,-4.043784837e-04,-2.416332262e-04,-6.460117099e-04,-7.918513544e-04,-7.173612437e-05,-8.635874787e-04,3.540118557e-04,-8.702712242e-05,2.669847333e-04,-5.762202555e-04,-5.227326611e-05,-6.284935216e-04,-2.426806472e-04,-4.124786945e-05,-2.839285166e-04,-3.321285404e-04,-5.514327222e-05,-3.872718126e-04,-1.548625924e-04,-3.905022217e-05,-1.939128145e-04,-3.019462846e-04,-6.922137251e-05,-3.711676571e-04,-3.833873450e-04,-4.024258025e-05,-4.236299252e-04,-3.442200853e-04,-5.133718785e-05,-3.955572732e-04,-5.426285392e-04,-5.332242855e-05,-5.959509677e-04,2.008696605e-04,-5.969950987e-05,1.411701506e-04,6.540794564e-04,-2.565051968e-04,3.975742596e-04,3.310150857e-04,-7.519998597e-05,2.558150997e-04,5.438297966e-04,-8.040835730e-05,4.634214393e-04,4.522927752e-04,-9.634459817e-05,3.559481771e-04,4.985455277e-04,9.210914670e-06,5.077564423e-04,2.659825629e-04,-9.202048229e-05,1.739620806e-04,3.043846882e-04,-2.010698208e-05,2.842777061e-04,-1.226579283e-04,-7.426005077e-05,-1.969179791e-04,-2.404585379e-04,-3.793824279e-05,-2.783967806e-04,-3.044587935e-04,-2.977624990e-05,-3.342350434e-04,-3.123576063e-04,-2.339614835e-05,-3.357537546e-04,-3.687394127e-04,-7.211163781e-05,-4.408510505e-04,2.205179343e-04,-6.556652377e-05,1.549514106e-04,3.357154194e-04,-7.924547239e-05,2.564699470e-04,1.777583243e-04,-1.547214555e-04,2.303686884e-05,1.746534864e-04,1.357134626e-04,3.103669490e-04,5.471496716e-04,7.010190766e-06,5.541598624e-04,5.686952251e-04,-5.411446535e-05,5.145807598e-04,4.130423899e-04,1.759435734e-05,4.306367473e-04,4.714086095e-04,-7.675391777e-05,3.946546917e-04,5.132722959e-04,3.426855182e-05,5.475408477e-04,7.075294110e-04,6.979397100e-05,7.773233820e-04,5.257706981e-04,-1.312232136e-04,3.945474845e-04,4.376598681e-04,1.109612274e-04,5.486210955e-04
-6.2,-3.749248474e-04,-2.249565510e-04,-5.998813983e-04,-7.826401705e-04,-6.858258873e-05,-8.512227593e-04,3.188332722e-04,-8.681151183e-05,2.320217603e-04,-5.685655923e-04,-5.247837692e-05,-6.210439693e-04,-2.631986435e-04,-4.206136619e-05,-3.052600097e-04,-3.285610279e-04,-5.445890456e-05,-3.830199324e-04,-1.880607824e-04,-3.799248914e-05,-2.260532716e-04,-3.304421168e-04,-6.657602637e-05,-3.970181432e-04,-4.000021565e-04,-3.931992425e-05,-4.393220808e-04,-3.604673386e-04,-4.958676797e-05,-4.100541065e-04,-5.297956811e-04,-5.375334924e-05,-5.835490303e-04,1.796381962e-04,-6.497087301e-05,1.146673232e-04,5.990181509e-04,-2.365122401e-04,3.625059107e-04,2.878525953e-04,-7.831098766e-05,2.095416076e-04,5.110430320e-04,-8.854869211e-05,4.224943399e-04,4.168980681e-04,-9.974298700e-05,3.171550811e-04,4.737791324e-04,2.766471658e-06,4.765456041e-04,2.262379595e-04,-1.004759347e-04,1.257620248e-04,2.785744835e-04,-2.327741113e-05,2.552970724e-04,-1.504459893e-04,-7.668900244e-05,-2.271349917e-04,-2.404339016e-04,-4.110253480e-05,-2.815364364e-04,-3.123444055e-04,-2.820175089e-05,-3.405461564e-04,-3.234769132e-04,-2.495980080e-05,-3.484367140e-04,-3.988113046e-04,-7.149151725e-05,-4.703028218e-04,1.826138580e-04,-6.703441032e-05,1.155794477e-04,2.836977774e-04,-7.843682547e-05,2.052609519e-04,1.666670997e-04,-1.711657400e-04,-4.498640394e-06,1.208655313e-04,1.512424530e-04,2.721079843e-04,5.187163391e-04,6.142868773e-06,5.248592079e-04,5.393674934e-04,-5.309304349e-05,4.862744500e-04,3.837777963e-04,1.518198313e-05,3.989597794e-04,4.486460976e-04,-8.261153535e-05,3.660345622e-04,4.841387456e-04,3.604009082e-05,5.201788365e-04,6.996464268e-04,6.852527813e-05,7.681717049e-04,5.080086914e-04,-1.461993430e-04,3.618093483e-04,4.133337161e-04,9.780166234e-05,5.111353784e-04
-6.1,-3.443969841e-04,-2.076719370e-04,-5.520689211e-04,-7.704412987e-04,-6.529138633e-05,-8.357326850e-04,2.829256682e-04,-8.623676145e-05,1.966889067e-04,-5.586770829e-04,-5.252511104e-05,-6.112021939e-04,-2.817004052e-04,-4.277574985e-05,-3.244761550e-04,-3.234062091e-04,-5.377182222e-05,-3.771780313e-04,-2.190484783e-04,-3.686717797e-05,-2.559156563e-04,-3.560999992e-04,-6.391931091e-05,-4.200193101e-04,-4.147891050e-04,-3.831441495e-05,-4.531035200e-04,-3.752825418e-04,-4.761858708e-05,-4.229011289e-04,-5.155469265e-04,-5.389387757e-05,-5.694408041e-04,1.591652757e-04,-7.026030060e-05,8.890497506e-05,5.433897966e-04,-2.154245354e-04,3.279652612e-04,2.440274113e-04,-8.114067476e-05,1.628867365e-04,4.767374205e-04,-9.611907664e-05,3.806183438e-04,3.806908219e-04,-1.024518139e-04,2.782390080e-04,4.475694037e-04,-3.675711161e-06,4.438936925e-04,1.856431594e-04,-1.083053811e-04,7.733777825e-05,2.517707763e-04,-2.641052042e-05,2.253602559e-04,-1.768690255e-04,-7.879531524e-05,-2.556643407e-04,-2.401100494e-04,-4.408177168e-05,-2.841918211e-04,-3.185311347e-04,-2.639788223e-05,-3.449290169e-04,-3.342823803e-04,-2.625695703e-05,-3.605393373e-04,-4.268328713e-04,-7.079583082e-05,-4.976287022e-04,1.450654804e-04,-6.822312277e-05,7.684235762e-05,2.315714265e-04,-7.724989623e-05,1.543215302e-04,1.562992547e-04,-1.861288968e-04,-2.982964212e-05,6.832422927e-05,1.652832953e-04,2.336075246e-04,4.887976250e-04,5.093645457e-06,4.938912705e-04,5.082980396e-04,-5.165981128e-05,4.566382284e-04,3.536968854e-04,1.265556113e-05,3.663524465e-04,4.244096060e-04,-8.781363208e-05,3.365959739e-04,4.532658728e-04,3.756379484e-05,4.908296677e-04,6.881862500e-04,6.705044313e-05,7.552366931e-04,4.875990860e-04,-1.596095539e-04,3.279895321e-04,3.871710569e-04,8.397115369e-05,4.711422105e-04
-6,-3.130573595e-04,-1.898930868e-04,-5.029504462e-04,-7.552569940e-04,-6.188331038e-05,-8.171403044e-04,2.465474321e-04,-8.530544064e-05,1.612419914e-04,-5.465858096e-04,-5.241480638e-05,-5.990006160e-04,-2.981579149e-04,-4.338901937e-05,-3.415469342e-04,-3.167258770e-04,-5.307599668e-05,-3.698018737e-04,-2.478156135e-04,-3.567854763e-05,-2.834941611e-04,-3.788847144e-04,-6.127919859e-05,-4.401639129e-04,-4.277746184e-04,-3.723332637e-05,-4.650079448e-04,-3.886430327e-04,-4.544790128e-05,-4.340909339e-04,-4.999982866e-04,-5.374737711e-05,-5.537456637e-04,1.394452587e-04,-7.556517899e-05,6.388007968e-05,4.871714551e-04,-1.933989145e-04,2.937725406e-04,1.996557274e-04,-8.369145448e-05,1.159642729e-04,4.409716237e-04,-1.030704651e-04,3.379011585e-04,3.437418216e-04,-1.044697168e-04,2.392721048e-04,4.199840631e-04,-1.007772445e-05,4.099063386e-04,1.444760982e-04,-1.154469116e-04,2.902918660e-05,2.240925257e-04,-2.948898880e-05,1.946035369e-04,-2.018837181e-04,-8.056111870e-05,-2.824448368e-04,-2.395179594e-04,-4.686587582e-05,-2.863838352e-04,-3.229623486e-04,-2.440401384e-05,-3.473663625e-04,-3.446087510e-04,-2.728327016e-05,-3.718920211e-04,-4.526158910e-04,-7.002123531e-05,-5.226371263e-04,1.079171455e-04,-6.915171481e-05,3.876543066e-05,1.794383504e-04,-7.570595700e-05,1.037323934e-04,1.466585210e-04,-1.996144766e-04,-5.295595558e-05,1.718807770e-05,1.777151984e-04,1.949032761e-04,4.574807310e-04,3.841371415e-06,4.613221024e-04,4.755171375e-04,-4.984005254e-05,4.256770850e-04,3.228812468e-04,1.000328296e-05,3.328845298e-04,3.987067189e-04,-9.233444042e-05,3.063722785e-04,4.207846010e-04,3.877964863e-05,4.595642497e-04,6.729771091e-04,6.528827174e-05,7.382653809e-04,4.644965664e-04,-1.713158212e-04,2.931807452e-04,3.592611590e-04,6.965509600e-05,4.289162550e-04
-5.9,-2.811568194e-04,-1.717317631e-04,-4.528885825e-04,-7.371177851e-04,-5.837941433e-05,-7.954971995e-04,2.099377826e-04,-8.402208410e-05,1.259156985e-04,-5.323506689e-04,-5.214966552e-05,-5.845003344e-04,-3.125794452e-04,-4.389922676e-05,-3.564786720e-04,-3.086095262e-04,-5.236263999e-05,-3.609721662e-04,-2.743927788e-04,-3.443060178e-05,-3.088233805e-04,-3.988065885e-04,-5.867940369e-05,-4.574859921e-04,-4.390116281e-04,-3.608343486e-05,-4.750950630e-04,-4.005517932e-04,-4.309003394e-05,-4.436418271e-04,-4.832848096e-04,-5.331929033e-05,-5.366040999e-04,1.204335117e-04,-8.087900880e-05,3.955450294e-05,4.303068274e-04,-1.706018882e-04,2.597049392e-04,1.548325823e-04,-8.597074002e-05,6.886184224e-05,4.037923162e-04,-1.093656853e-04,2.944266310e-04,3.061009109e-04,-1.058031300e-04,2.002977809e-04,3.910740130e-04,-1.640151184e-05,3.746725012e-04,1.029953754e-04,-1.218457354e-04,-1.885036001e-05,1.956466526e-04,-3.249746670e-05,1.631491859e-04,-2.254740908e-04,-8.196872714e-05,-3.074428180e-04,-2.387006004e-04,-4.944626930e-05,-2.881468697e-04,-3.256109558e-04,-2.226115957e-05,-3.478721154e-04,-3.543043109e-04,-2.803837964e-05,-3.823426906e-04,-4.760011076e-04,-6.916368106e-05,-5.451647887e-04,7.118486088e-05,-6.983834299e-05,1.346517895e-06,1.273744238e-04,-7.383001056e-05,5.354441320e-05,1.377077981e-04,-2.116394364e-04,-7.393163828e-05,-3.242592155e-05,1.884379840e-04,1.560120624e-04,4.248410663e-04,2.371887171e-06,4.272129534e-04,4.410509683e-04,-4.765995384e-05,3.933910144e-04,2.914028379e-04,7.214181766e-06,2.986170197e-04,3.715468146e-04,-9.615717814e-05,2.753896365e-04,3.868101817e-04,3.963395871e-05,4.264441405e-04,6.538391585e-04,6.316680063e-05,7.170059591e-04,4.386775702e-04,-1.812072892e-04,2.574702810e-04,3.296880300e-04,5.503854523e-05,3.847265752e-04
-5.8,-2.489298217e-04,-1.532959306e-04,-4.022257523e-04,-7.160808406e-04,-5.480082402e-05,-7.708816646e-04,1.733191870e-04,-8.239281689e-05,9.092637007e-05,-5.160528936e-04,-5.173246438e-05,-5.677853579e-04,-3.250022577e-04,-4.430411748e-05,-3.693063751e-04,-2.991678240e-04,-5.162013083e-05,-3.507879548e-04,-2.988402789e-04,-3.312695212e-05,-3.319672311e-04,-4.159140638e-04,-5.613962227e-05,-4.720536860e-04,-4.485709027e-04,-3.487090281e-05,-4.834418055e-04,-4.110312088e-04,-4.056027379e-05,-4.515914826e-04,-4.655539903e-04,-5.261698994e-05,-5.181709802e-04,1.020561470e-04,-8.618977747e-05,1.586636952e-05,3.727219674e-04,-1.472068004e-04,2.255151670e-04,1.096440037e-04,-8.798924806e-05,2.165475564e-05,3.652452637e-04,-1.149792480e-04,2.502660156e-04,2.678061297e-04,-1.064646165e-04,1.613415132e-04,3.608816423e-04,-2.260998156e-05,3.382716607e-04,6.144383581e-05,-1.274557988e-04,-6.601196301e-05,1.665319873e-04,-3.542250740e-05,1.311094799e-04,-2.476451757e-04,-8.300085027e-05,-3.306460260e-04,-2.377052545e-04,-5.181568911e-05,-2.895209436e-04,-3.264754504e-04,-2.001121392e-05,-3.464866643e-04,-3.632270383e-04,-2.852570807e-05,-3.917527463e-04,-4.968557891e-04,-6.821810758e-05,-5.650738967e-04,3.486662936e-05,-7.029906991e-05,-3.543244056e-05,7.544205480e-05,-7.164844208e-05,3.793612723e-06,1.293733191e-04,-2.222290028e-04,-9.285568370e-05,-8.043132817e-05,1.973719210e-04,1.169405928e-04,3.909477259e-04,6.783989959e-07,3.916261249e-04,4.049305734e-04,-4.514712448e-05,3.597834489e-04,2.593291426e-04,4.279640761e-06,2.636087834e-04,3.429455616e-04,-9.927222553e-05,2.436733361e-04,3.514476888e-04,4.007988486e-05,3.915275736e-04,6.306011921e-04,6.062313795e-05,6.912243301e-04,4.101466669e-04,-1.891997822e-04,2.209468848e-04,2.985378007e-04,4.030147335e-05,3.388392741e-04
-5.7,-2.165907474e-04,-1.346881845e-04,-3.512789320e-04,-6.922277681e-04,-5.116854317e-05,-7.433963112e-04,1.368998806e-04,-8.042509451e-05,5.647478605e-05,-4.977905037e-04,-5.116632977e-05,-5.489568335e-04,-3.354850570e-04,-4.460089313e-05,-3.800859501e-04,-2.885261376e-04,-5.083399762e-05,-3.393601352e-04,-3.212377549e-04,-3.177078393e-05,-3.530085388e-04,-4.302859809e-04,-5.367573634e-05,-4.839617173e-04,-4.565330900e-04,-3.360127179e-05,-4.901343618e-04,-4.201166176e-04,-3.787387415e-05,-4.579904918e-04,-4.469587080e-04,-5.164963724e-05,-4.986083453e-04,8.421916694e-05,-9.147882404e-05,-7.259657100e-06,3.143407494e-04,-1.233916988e-04,1.909490506e-04,6.417635981e-05,-8.975959359e-05,-2.558323378e-05,3.253844072e-04,-1.198967808e-04,2.054876264e-04,2.288928771e-04,-1.064718058e-04,1.224210713e-04,3.294492124e-04,-2.866819439e-05,3.007810180e-04,2.005209287e-05,-1.322410254e-04,-1.121889326e-04,1.368437477e-04,-3.825197199e-05,9.859177567e-05,-2.684169941e-04,-8.364091438e-05,-3.520579085e-04,-2.365765405e-04,-5.396806430e-05,-2.905446048e-04,-3.255761428e-04,-1.769633330e-05,-3.432724761e-04,-3.712414727e-04,-2.875220175e-05,-3.999936745e-04,-5.150720609e-04,-6.717823060e-05,-5.822502915e-04,-1.047203075e-06,-7.054741392e-05,-7.159461700e-05,2.370132495e-05,-6.918694422e-05,-4.548561928e-05,1.215513579e-04,-2.314139267e-04,-1.098625688e-04,-1.267635920e-04,2.044580445e-04,7.769445257e-05,3.558680331e-04,-1.238804180e-06,3.546292289e-04,3.671991962e-04,-4.233189286e-05,3.248673033e-04,2.267269772e-04,1.194734664e-06,2.279217118e-04,3.129283743e-04,-1.016753930e-04,2.112529814e-04,3.147977181e-04,4.007827096e-05,3.548759891e-04,6.031190083e-04,5.760231008e-05,6.607213184e-04,3.789418517e-04,-1.952349192e-04,1.837069325e-04,2.659058145e-04,2.561456560e-05,2.915203801e-04
-5.6,-1.843319269e-04,-1.160046401e-04,-3.003365670e-04,-6.656629168e-04,-4.750332931e-05,-7.131662461e-04,1.008747605e-04,-7.812759767e-05,2.274716281e-05,-4.776744385e-04,-5.045464161e-05,-5.281290801e-04,-3.441025161e-04,-4.478615570e-05,-3.888886718e-04,-2.768198038e-04,-4.998706694e-05,-3.268068707e-04,-3.416772876e-04,-3.036490206e-05,-3.720421897e-04,-4.420259693e-04,-5.129960026e-05,-4.933255696e-04,-4.629837008e-04,-3.227951912e-05,-4.952632199e-04,-4.278516531e-04,-3.504607805e-05,-4.628977312e-04,-4.276516291e-04,-5.042801618e-05,-4.780796452e-04,6.681492023e-05,-9.672072501e-05,-2.990580478e-05,2.550968676e-04,-9.933742612e-05,1.557594415e-04,1.852000739e-05,-9.129533743e-05,-7.277533004e-05,2.842763138e-04,-1.241141265e-04,1.601621873e-04,1.894000646e-04,-1.058469909e-04,8.355307368e-05,2.968247315e-04,-3.454461209e-05,2.622801194e-04,-2.095985950e-05,-1.361761700e-04,-1.571360295e-04,1.066768849e-04,-4.097436963e-05,6.570251529e-05,-2.878206526e-04,-8.387342907e-05,-3.716940817e-04,-2.353521709e-04,-5.589848893e-05,-2.912506598e-04,-3.229530705e-04,-1.535852239e-05,-3.383115929e-04,-3.782176395e-04,-2.872806401e-05,-4.069457035e-04,-5.305670446e-04,-6.603646490e-05,-5.966035095e-04,-3.656685641e-05,-7.059484724e-05,-1.071617036e-04,-2.778430317e-05,-6.646924119e-05,-9.425354436e-05,1.141158714e-04,-2.392308143e-04,-1.251149429e-04,-1.713761508e-04,2.096588798e-04,3.828272899e-05,3.196698292e-04,-3.373163027e-06,3.162966662e-04,3.279164925e-04,-3.924915256e-05,2.886673399e-04,1.936637005e-04,-2.040808271e-06,1.916228923e-04,2.815315904e-04,-1.033666118e-04,1.781649786e-04,2.769600064e-04,3.959863149e-05,3.165586379e-04,5.712912989e-04,5.405627892e-05,6.253475778e-04,3.451371253e-04,-1.992794943e-04,1.458576310e-04,2.319011386e-04,1.113563317e-05,2.430367718e-04
-5.5,-1.523234134e-04,-9.733430358e-05,-2.496577170e-04,-6.365125989e-04,-4.382560276e-05,-6.803382017e-04,6.542419194e-05,-7.551025564e-05,-1.008606371e-05,-4.558268346e-04,-4.960104206e-05,-5.054278767e-04,-3.509425835e-04,-4.485599694e-05,-3.957985804e-04,-2.641915099e-04,-4.905984123e-05,-3.132513511e-04,-3.602605830e-04,-2.891180275e-05,-3.891723858e-04,-4.512596664e-04,-4.901837865e-05,-5.002780451e-04,-4.680114592e-04,-3.091013233e-05,-4.989215916e-04,-4.342860454e-04,-3.209216167e-05,-4.663782071e-04,-4.077819260e-04,-4.896434340e-05,-4.567462694e-04,4.972570604e-05,-1.018841965e-04,-5.215849050e-05,1.949410389e-04,-7.522521620e-05,1.197158227e-04,-2.723238139e-05,-9.261043355e-05,-1.198428149e-04,2.419999900e-04,-1.276362229e-04,1.143637671e-04,1.493722636e-04,-1.046170033e-04,4.475526027e-05,2.630642699e-04,-4.021215897e-05,2.228521110e-04,-6.138320120e-05,-1.392473713e-04,-2.006305725e-04,7.612741738e-05,-4.357839667e-05,3.254902071e-05,-3.058968916e-04,-8.368437318e-05,-3.895812648e-04,-2.340618718e-04,-5.760330628e-05,-2.916651781e-04,-3.186657616e-04,-1.303944866e-05,-3.317052102e-04,-3.840321780e-04,-2.846649102e-05,-4.124986690e-04,-5.432845746e-04,-6.478401281e-05,-6.080685874e-04,-7.170044668e-05,-7.045185893e-05,-1.421523056e-04,-7.894811680e-05,-6.351683512e-05,-1.424649519e-04,1.069255407e-04,-2.457246193e-04,-1.387990786e-04,-2.142408829e-04,2.129591610e-04,-1.281721847e-06,2.824215538e-04,-5.712984208e-06,2.767085696e-04,2.871594078e-04,-3.594017615e-05,2.512192316e-04,1.602059459e-04,-5.422051228e-06,1.547838947e-04,2.488014716e-04,-1.043490730e-04,1.444523986e-04,2.380340499e-04,3.862017549e-05,2.766542254e-04,5.350702103e-04,4.994458840e-05,5.850147987e-04,3.088418806e-04,-2.013253188e-04,1.075165618e-04,1.966477874e-04,-2.993209086e-06,1.936545783e-04
-5.4,-1.207141185e-04,-7.875877680e-05,-1.994728953e-04,-6.049249671e-04,-4.015533425e-05,-6.450803014e-04,3.071128116e-05,-7.258433099e-05,-4.187304984e-05,-4.323809355e-04,-4.860950148e-05,-4.809904369e-04,-3.561060144e-04,-4.480615151e-05,-4.009121659e-04,-2.507902044e-04,-4.803112048e-05,-2.988213248e-04,-3.770991229e-04,-2.741373676e-05,-4.045128596e-04,-4.581340555e-04,-4.683377847e-05,-5.049678340e-04,-4.717090281e-04,-2.949717326e-05,-5.012062014e-04,-4.394753732e-04,-2.902750490e-05,-4.685028781e-04,-3.874940633e-04,-4.727207642e-05,-4.347661397e-04,3.282565642e-05,-1.069336773e-04,-7.410802084e-05,1.338435524e-04,-5.123347524e-05,8.261007720e-05,-7.299039157e-05,-9.371893396e-05,-1.667093255e-04,1.986436797e-04,-1.304758556e-04,6.816782405e-05,1.088586878e-04,-1.028131227e-04,6.045565092e-06,2.282311258e-04,-4.564884469e-05,1.825822812e-04,-1.010224521e-04,-1.414522788e-04,-2.424747309e-04,4.529185008e-05,-4.605267078e-05,-7.608206994e-07,-3.226962435e-04,-8.306155740e-05,-4.057578009e-04,-2.327285824e-04,-5.908025007e-05,-2.918088325e-04,-3.127941231e-04,-1.078036587e-05,-3.235744890e-04,-3.885708588e-04,-2.798338614e-05,-4.165542449e-04,-5.531974774e-04,-6.341111526e-05,-6.166085926e-04,-1.064550685e-04,-7.012894797e-05,-1.765840165e-04,-1.297241426e-04,-6.034964503e-05,-1.900737877e-04,9.982901391e-05,-2.509515008e-04,-1.511224869e-04,-2.553510513e-04,2.143662134e-04,-4.098483783e-05,2.441910353e-04,-8.242589487e-06,2.359484458e-04,2.450206115e-04,-3.245380843e-05,2.125668031e-04,1.264167914e-04,-8.938619048e-06,1.174781724e-04,2.147919575e-04,-1.046286447e-04,1.101633127e-04,1.981172389e-04,3.713278837e-05,2.352500273e-04,4.944655211e-04,4.523706288e-05,5.397025840e-04,2.701975159e-04,-2.013891672e-04,6.880834870e-05,1.602832032e-04,-1.664756190e-05,1.436356413e-04
-5.3,-8.963368354e-05,-6.035211390e-05,-1.499857974e-04,-5.710699260e-04,-3.651184458e-05,-6.075817705e-04,-3.121253395e-06,-6.936250798e-05,-7.248376137e-05,-4.074815538e-04,-4.748439235e-05,-4.549659461e-04,-3.597067590e-04,-4.463214802e-05,-4.043389070e-04,-2.367703816e-04,-4.687884841e-05,-2.836492300e-04,-3.923151798e-04,-2.587274737e-05,-4.181879272e-04,-4.628172760e-04,-4.474157046e-05,-5.075588464e-04,-4.741742853e-04,-2.804430539e-05,-5.022185907e-04,-4.434814983e-04,-2.586765732e-05,-4.693491557e-04,-3.669275657e-04,-4.536572195e-05,-4.122932876e-04,1.598263313e-05,-1.118310576e-04,-9.584842442e-05,7.179338986e-05,-2.753357524e-05,4.425981463e-05,-1.186700211e-04,-9.463471868e-05,-2.133047398e-04,1.543010226e-04,-1.326523505e-04,2.164867205e-05,6.791095971e-05,-1.004710474e-04,-3.256008772e-05,1.923934858e-04,-5.083794893e-05,1.415555369e-04,-1.396982549e-04,-1.427996443e-04,-2.824978992e-04,1.426559988e-05,-4.838562540e-05,-3.412002552e-05,-3.382793271e-04,-8.199492866e-05,-4.202742558e-04,-2.313702856e-04,-6.032851542e-05,-2.916988011e-04,-3.054392725e-04,-8.621903910e-06,-3.140611764e-04,-3.917311150e-04,-2.729702328e-05,-4.190281383e-04,-5.603091199e-04,-6.190741545e-05,-6.222165353e-04,-1.408396375e-04,-6.963707627e-05,-2.104767138e-04,-1.800519507e-04,-5.698706554e-05,-2.370390162e-04,9.266813961e-05,-2.549803311e-04,-1.623121915e-04,-2.947242369e-04,2.139098039e-04,-8.081443299e-05,2.050444494e-04,-1.094321521e-05,1.941012342e-04,2.016062992e-04,-2.884680132e-05,1.727594979e-04,9.235279841e-05,-1.257465661e-05,7.977814180e-05,1.795624613e-04,-1.042134880e-04,7.534897323e-05,1.573021179e-04,3.513789368e-05,1.924400115e-04,4.495442098e-04,3.991721139e-05,4.894614212e-04,2.293727010e-04,-1.995125168e-04,2.986018415e-05,1.229554186e-04,-2.972215126e-05,9.323326736e-05
-5.2,-5.919432479e-05,-4.218072945e-05,-1.013750542e-04,-5.351383902e-04,-3.291339816e-05,-5.680517884e-04,-3.595317680e-05,-6.585895751e-05,-1.018121343e-04,-3.812846979e-04,-4.623052662e-05,-4.275152245e-04,-3.618713872e-04,-4.432942129e-05,-4.062008085e-04,-2.222903524e-04,-4.558107680e-05,-2.678714292e-04,-4.060411350e-04,-2.429065884e-05,-4.303317938e-04,-4.654969397e-04,-4.273156551e-05,-5.082285052e-04,-4.755099805e-04,-2.655476286e-05,-5.020647434e-04,-4.463720199e-04,-2.262835783e-05,-4.690003777e-04,-3.462162048e-04,-4.326062324e-05,-3.894768281e-04,-9.381227118e-07,-1.165368652e-04,-1.174749879e-04,8.796814681e-06,-4.284789173e-06,4.512025507e-06,-1.641940127e-04,-9.537093840e-05,-2.595649511e-04,1.090690745e-04,-1.341901385e-04,-2.512106402e-05,2.658210498e-05,-9.763091750e-05,-7.104881252e-05,1.556229789e-04,-5.576799212e-05,9.985498681e-05,-1.772491356e-04,-1.433086939e-04,-3.205578294e-04,-1.685826228e-05,-5.056554813e-05,-6.742381041e-05,-3.527155788e-04,-8.047686977e-05,-4.331924485e-04,-2.300005225e-04,-6.134866427e-05,-2.913491867e-04,-2.967228952e-04,-6.603542253e-06,-3.033264375e-04,-3.934230390e-04,-2.642764903e-05,-4.198506880e-04,-5.646528647e-04,-6.026239373e-05,-6.249152585e-04,-1.748667451e-04,-6.898750020e-05,-2.438542453e-04,-2.298790264e-04,-5.344878877e-05,-2.833278152e-04,8.527999813e-05,-2.578917851e-04,-1.726117870e-04,-3.324024262e-04,2.116413265e-04,-1.207610997e-04,1.650470785e-04,-1.379357963e-05,1.512534988e-04,1.570355250e-04,-2.518330702e-05,1.318522179e-04,5.806276628e-05,-1.630891915e-05,4.175384714e-05,1.431774005e-04,-1.031140743e-04,4.006332627e-05,1.156748475e-04,3.264922149e-05,1.483240690e-04,4.004293733e-04,3.398450977e-05,4.344138831e-04,1.865594420e-04,-1.957611422e-04,-9.201700137e-06,8.482080658e-05,-4.213176222e-05,4.268904437e-05
-5.1,-2.949193975e-05,-2.430333630e-05,-5.379527605e-05,-4.973401493e-04,-2.937654456e-05,-5.267166939e-04,-6.768647308e-05,-6.208935075e-05,-1.297758238e-04,-3.539550452e-04,-4.485311595e-05,-3.988081612e-04,-3.627358563e-04,-4.389336281e-05,-4.066292191e-04,-2.075084103e-04,-4.411686737e-05,-2.516252777e-04,-4.184150338e-04,-2.266898882e-05,-4.410840226e-04,-4.663754680e-04,-4.078798641e-05,-5.071634544e-04,-4.758200809e-04,-2.503126643e-05,-5.008513473e-04,-4.482172631e-04,-1.932551806e-05,-4.675427812e-04,-3.254851471e-04,-4.097272334e-05,-3.664578704e-04,-1.806746196e-05,-1.210103922e-04,-1.390778541e-04,-5.512096622e-05,1.837117829e-05,-3.674978793e-05,-2.094862619e-04,-9.593897867e-05,-3.054252406e-04,6.304985630e-05,-1.351169616e-04,-7.206710526e-05,-1.507117842e-05,-9.433718762e-05,-1.094083660e-04,1.179962071e-04,-6.043264762e-05,5.756355952e-05,-2.135305610e-04,-1.430087794e-04,-3.565393404e-04,-4.798865864e-05,-5.258071223e-05,-1.005693709e-04,-3.660790949e-04,-7.850263196e-05,-4.445817269e-04,-2.286259834e-04,-6.214239053e-05,-2.907683739e-04,-2.867839860e-04,-4.762701632e-06,-2.915466876e-04,-3.935676884e-04,-2.539703275e-05,-4.189647212e-04,-5.662884190e-04,-5.846588001e-05,-6.247542990e-04,-2.085509033e-04,-6.819123183e-05,-2.767421352e-04,-2.791580331e-04,-4.975487457e-05,-3.289129076e-04,7.749947001e-05,-2.597750011e-04,-1.822755311e-04,-3.684469555e-04,2.076323487e-04,-1.608146069e-04,1.242669146e-04,-1.677014355e-05,1.074967711e-04,1.114424510e-04,-2.153355954e-05,8.990889143e-05,2.358975606e-05,-2.011508139e-05,3.474674670e-06,1.057088438e-04,-1.013437885e-04,4.365055261e-06,7.331664304e-05,2.969349220e-05,1.030101352e-04,3.473018905e-04,2.745499113e-05,3.747568816e-04,1.419717930e-04,-1.902247451e-04,-4.825295209e-05,4.604395423e-05,-5.381144627e-05,-7.767492040e-06
-5,-6.061615929e-07,-6.770898393e-06,-7.377059986e-06,-4.578997987e-04,-2.591533685e-05,-4.838151356e-04,-9.824224991e-05,-5.807076882e-05,-1.563130187e-04,-3.256608159e-04,-4.335764063e-05,-3.690184565e-04,-3.624391176e-04,-4.331931420e-05,-4.057584318e-04,-1.925768305e-04,-4.246703398e-05,-2.350438645e-04,-4.295723256e-04,-2.100881253e-05,-4.505811381e-04,-4.656623443e-04,-3.889011297e-05,-5.045524572e-04,-4.752028876e-04,-2.347593150e-05,-4.986788191e-04,-4.490845160e-04,-1.597522404e-05,-4.650597401e-04,-3.048456622e-04,-3.851834347e-05,-3.433640057e-04,-3.552341159e-05,-1.252088666e-04,-1.607322782e-04,-1.199103666e-04,4.031568685e-05,-7.959467977e-05,-2.544615211e-04,-9.634714466e-05,-3.508086658e-04,1.635503727e-05,-1.354616701e-04,-1.191066329e-04,-5.698276596e-05,-9.063809973e-05,-1.476208657e-04,7.959968689e-05,-6.483054178e-05,1.476914511e-05,-2.484108758e-04,-1.419393634e-04,-3.903502393e-04,-7.903384889e-05,-5.441952741e-05,-1.334533763e-04,-3.784416583e-04,-7.607100997e-05,-4.545126683e-04,-2.272410850e-04,-6.271224697e-05,-2.899533320e-04,-2.757729666e-04,-3.133521516e-06,-2.789064881e-04,-3.920928297e-04,-2.422798841e-05,-4.163208181e-04,-5.652953533e-04,-5.650863369e-05,-6.218039870e-04,-2.419021643e-04,-6.725843971e-05,-3.091606040e-04,-3.278382945e-04,-4.592500878e-05,-3.737633033e-04,6.916425365e-05,-2.607228384e-04,-1.915585848e-04,-4.029281365e-04,2.019726424e-04,-2.009554942e-04,8.278050700e-05,-1.984710993e-05,6.293339707e-05,6.498086652e-05,-1.797186729e-05,4.700899923e-05,-1.102373068e-05,-2.396230920e-05,-3.498603987e-05,6.724188674e-05,-9.891992261e-05,-3.167803587e-05,3.030861761e-05,2.631073205e-05,5.661934967e-05,2.904051312e-04,2.036077648e-05,3.107659077e-04,9.584754474e-05,-1.830167269e-04,-8.716918215e-05,6.799670815e-06,-6.471551744e-05,-5.791584663e-05
-4.9,2.740026980e-05,1.037339846e-05,3.777366826e-05,-4.170510922e-04,-2.254058842e-05,-4.395916806e-04,-1.275558076e-04,-5.382148318e-05,-1.813772908e-04,-2.965671311e-04,-4.174967058e-05,-3.383168017e-04,-3.611150179e-04,-4.260256253e-05,-4.037175805e-04,-1.776350322e-04,-4.061476851e-05,-2.182498007e-04,-4.396363355e-04,-1.931068630e-05,-4.589470218e-04,-4.635649996e-04,-3.701307226e-05,-5.005780719e-04,-4.737431944e-04,-2.189023160e-05,-4.956334260e-04,-4.490310011e-04,-1.259378345e-05,-4.616247846e-04,-2.843885836e-04,-3.591402257e-05,-3.203026061e-04,-5.340241111e-05,-1.290863876e-04,-1.824887987e-04,-1.854919990e-04,6.145817375e-05,-1.240338252e-04,-2.990150570e-04,-9.659958917e-05,-3.956146462e-04,-3.088895897e-05,-1.352519682e-04,-1.661409271e-04,-9.907011523e-05,-8.658470772e-05,-1.856548230e-04,4.053640990e-05,-6.896485741e-05,-2.842844751e-05,-2.817655790e-04,-1.401497956e-04,-4.219153746e-04,-1.098971444e-04,-5.607061338e-05,-1.659677578e-04,-3.898648533e-04,-7.318520041e-05,-4.630500537e-04,-2.258215285e-04,-6.306140116e-05,-2.888829296e-04,-2.638446549e-04,-1.745601425e-06,-2.655902563e-04,-3.889278241e-04,-2.294390715e-05,-4.118717313e-04,-5.617657342e-04,-5.438291466e-05,-6.161486489e-04,-2.749169623e-04,-6.619801990e-05,-3.411149822e-04,-3.758543810e-04,-4.197740590e-05,-4.178317869e-04,6.012249372e-05,-2.608271018e-04,-2.007046081e-04,-4.359123787e-04,1.947676916e-04,-2.411446871e-04,4.067878234e-05,-2.299627386e-05,1.768250847e-05,1.782840190e-05,-1.457428345e-05,3.254118451e-06,-4.572958318e-05,-2.781600278e-05,-7.354558596e-05,2.788045000e-05,-9.586472514e-05,-6.798427514e-05,-1.326153340e-05,2.255379861e-05,9.292265219e-06,2.300500020e-04,1.274898244e-05,2.427989845e-04,4.845114763e-05,-1.742739730e-04,-1.258228253e-04,-3.272461598e-05,-7.481510798e-05,-1.075397240e-04
-4.8,5.448192399e-05,2.709406448e-05,8.157598847e-05,-3.750310007e-04,-1.925926177e-05,-3.942902624e-04,-1.555718975e-04,-4.936066182e-05,-2.049325594e-04,-2.668299954e-04,-4.003472473e-05,-3.068647202e-04,-3.588851859e-04,-4.173841864e-05,-4.006236045e-04,-1.628039276e-04,-3.854619861e-05,-2.013501262e-04,-4.487110140e-04,-1.757473188e-05,-4.662857459e-04,-4.602809521e-04,-3.512866266e-05,-4.954096148e-04,-4.715064590e-04,-2.027504517e-05,-4.917815042e-04,-4.480979998e-04,-9.197765575e-06,-4.572957654e-04,-2.641786084e-04,-3.317642009e-05,-2.973550285e-04,-7.177384289e-05,-1.325934111e-04,-2.043672540e-04,-2.517557335e-04,8.173957495e-05,-1.700161585e-04,-3.430171714e-04,-9.669589153e-05,-4.397130629e-04,-7.853868436e-05,-1.345125554e-04,-2.130512397e-04,-1.412293142e-04,-8.222965894e-05,-2.234589731e-04,9.310251510e-07,-7.284278391e-05,-7.191175876e-05,-3.134723136e-04,-1.376983695e-04,-4.511706831e-04,-1.404728995e-04,-5.752274211e-05,-1.979956416e-04,-4.003939259e-04,-6.985360115e-05,-4.702475271e-04,-2.243197079e-04,-6.319342378e-05,-2.875131317e-04,-2.511521566e-04,-6.230700779e-07,-2.517752267e-04,-3.839999087e-04,-2.156834251e-05,-4.055682512e-04,-5.557982348e-04,-5.208296811e-05,-6.078812029e-04,-3.075701018e-04,-6.501752279e-05,-3.725876246e-04,-4.231171920e-04,-3.792801076e-05,-4.610452027e-04,5.024057312e-05,-2.601746754e-04,-2.099341023e-04,-4.674510659e-04,1.861356824e-04,-2.813153836e-04,-1.929578067e-06,-2.618695804e-05,-2.811653611e-05,-2.981224819e-05,-1.141637582e-05,-4.122862402e-05,-8.046966140e-05,-3.163861898e-05,-1.121082804e-04,-1.224913416e-05,-9.220640626e-05,-1.044555404e-04,-5.729362626e-05,1.848693887e-05,-3.880668739e-05,1.666173094e-04,4.679495019e-06,1.712968044e-04,7.517633815e-08,-1.641563088e-04,-1.640811325e-04,-7.232811385e-05,-8.409480832e-05,-1.564229222e-04
-4.7,8.061004656e-05,4.336297261e-05,1.239730192e-04,-3.320747383e-04,-1.607409455e-05,-3.481488328e-04,-1.822419001e-04,-4.470809666e-05,-2.269499967e-04,-2.365926923e-04,-3.821822917e-05,-2.748109215e-04,-3.558551266e-04,-4.072240879e-05,-3.965775354e-04,-1.481829540e-04,-3.625085251e-05,-1.844338065e-04,-4.568783065e-04,-1.580086879e-05,-4.726791753e-04,-4.559931543e-04,-3.320618823e-05,-4.891993425e-04,-4.685368615e-04,-1.863075448e-05,-4.871676160e-04,-4.463080190e-04,-5.803943048e-06,-4.521119621e-04,-2.442511818e-04,-3.032224927e-05,-2.745734311e-04,-9.067966377e-05,-1.356771313e-04,-2.263567951e-04,-3.185652503e-04,1.011329713e-04,-2.174322790e-04,-3.863146929e-04,-9.663129249e-05,-4.829459854e-04,-1.264357859e-04,-1.332639188e-04,-2.596997047e-04,-1.833343952e-04,-7.762594657e-05,-2.609603418e-04,-3.906873541e-05,-7.647488414e-05,-1.155436196e-04,-3.434081964e-04,-1.346507657e-04,-4.780589621e-04,-1.706445987e-04,-5.876474610e-05,-2.294093448e-04,-4.100551559e-04,-6.609036481e-05,-4.761455207e-04,-2.226639020e-04,-6.311212332e-05,-2.857760253e-04,-2.378431631e-04,2.158407071e-07,-2.376273224e-04,-3.772333170e-04,-2.012467433e-05,-3.973579913e-04,-5.474950080e-04,-4.960540837e-05,-5.971004164e-04,-3.398112716e-04,-6.372351867e-05,-4.035347903e-04,-4.695118031e-04,-3.379038799e-05,-5.033021911e-04,3.940774400e-05,-2.588447775e-04,-2.194370335e-04,-4.975742321e-04,1.762043114e-04,-3.213699207e-04,-4.491835581e-05,-2.938624448e-05,-7.430460029e-05,-7.771632571e-05,-8.571293472e-06,-8.628761918e-05,-1.151747569e-04,-3.539049820e-05,-1.505652551e-04,-5.299836062e-05,-8.797995744e-05,-1.409783181e-04,-1.016718215e-04,1.418345484e-05,-8.748836666e-05,1.005560635e-04,-3.779113929e-06,9.677694953e-05,-4.896145924e-05,-1.528453560e-04,-2.018068152e-04,-1.117982941e-04,-9.254954176e-05,-2.043478359e-04
-4.6,1.057705841e-04,5.915873449e-05,1.649293186e-04,-2.884122801e-04,-1.298355382e-05,-3.013958339e-04,-2.075234682e-04,-3.988400951e-05,-2.474074777e-04,-2.059851404e-04,-3.630556408e-05,-2.422907045e-04,-3.521142440e-04,-3.955053341e-05,-3.916647774e-04,-1.338502307e-04,-3.372198695e-05,-1.675722176e-04,-4.642005285e-04,-1.398907388e-05,-4.781896024e-04,-4.508691366e-04,-3.121330668e-05,-4.820824433e-04,-4.648595099e-04,-1.695735113e-05,-4.818168611e-04,-4.436656309e-04,-2.429098372e-06,-4.460947293e-04,-2.246127188e-04,-2.736821901e-05,-2.519809378e-04,-1.101389715e-04,-1.382826575e-04,-2.484216290e-04,-3.857660356e-04,1.196410006e-04,-2.661250350e-04,-4.287386060e-04,-9.639734792e-05,-5.251359539e-04,-1.744128785e-04,-1.315218814e-04,-3.059347599e-04,-2.252412293e-04,-7.282571697e-05,-2.980669463e-04,-7.929514931e-05,-7.987431377e-05,-1.591694631e-04,-3.714498613e-04,-1.310783027e-04,-5.025281641e-04,-2.002857280e-04,-5.978558273e-05,-2.600713107e-04,-4.188569783e-04,-6.191576103e-05,-4.807727394e-04,-2.207615991e-04,-6.282148079e-05,-2.835830798e-04,-2.240590570e-04,7.587725852e-07,-2.233002844e-04,-3.685514163e-04,-1.863585101e-05,-3.871872673e-04,-5.369613025e-04,-4.694950093e-05,-5.839108035e-04,-3.715670946e-04,-6.232233625e-05,-4.338894308e-04,-5.149028009e-04,-2.957630692e-05,-5.444791078e-04,2.753598864e-05,-2.569071645e-04,-2.293711758e-04,-5.262898715e-04,1.651079680e-04,-3.611819034e-04,-8.814738742e-05,-3.255948381e-05,-1.207068712e-04,-1.256438675e-04,-6.108145618e-06,-1.317520131e-04,-1.497669502e-04,-3.903068018e-05,-1.887976303e-04,-9.420079759e-05,-8.322743449e-05,-1.774282321e-04,-1.462647972e-04,9.722657073e-06,-1.365421401e-04,3.237726856e-05,-1.255527069e-05,1.982199787e-05,-9.831891610e-05,-1.405426503e-04,-2.388615664e-04,-1.509144053e-04,-1.001824278e-04,-2.510968331e-04
-4.5,1.299611057e-04,7.446592060e-05,2.044270263e-04,-2.442662971e-04,-9.982080321e-06,-2.542483774e-04,-2.313821279e-04,-3.490893904e-05,-2.662910670e-04,-1.751256481e-04,-3.430214445e-05,-2.094277926e-04,-3.477390886e-04,-3.821951705e-05,-3.859586057e-04,-1.198653820e-04,-3.095675377e-05,-1.508221357e-04,-4.707265290e-04,-1.213955833e-05,-4.828660874e-04,-4.450633391e-04,-2.911682298e-05,-4.741801621e-04,-4.604857730e-04,-1.525453294e-05,-4.757403059e-04,-4.401614033e-04,9.102550297e-07,-4.392511483e-04,-2.052438933e-04,-2.433098897e-05,-2.295748823e-04,-1.301557698e-04,-1.403547071e-04,-2.705104769e-04,-4.531937464e-04,1.372900521e-04,-3.159036943e-04,-4.701152210e-04,-9.598281131e-05,-5.660980323e-04,-2.223013227e-04,-1.292978814e-04,-3.515992042e-04,-2.667946718e-04,-6.787925731e-05,-3.346739291e-04,-1.195673523e-04,-8.305576191e-05,-2.026231142e-04,-3.974759708e-04,-1.270560714e-04,-5.245320422e-04,-2.292630934e-04,-6.057463942e-05,-2.898377328e-04,-4.267939568e-04,-5.735644557e-05,-4.841504024e-04,-2.185059891e-04,-6.232570490e-05,-2.808316940e-04,-2.099362074e-04,9.989117453e-07,-2.089372956e-04,-3.578810207e-04,-1.712418449e-05,-3.750052052e-04,-5.243070222e-04,-4.411729113e-05,-5.684243134e-04,-4.027475106e-04,-6.082098424e-05,-4.635684948e-04,-5.591447924e-04,-2.529683416e-05,-5.844416265e-04,1.455612526e-05,-2.544212577e-04,-2.398651324e-04,-5.535881429e-04,1.529857028e-04,-4.006024401e-04,-1.314683266e-04,-3.567092821e-05,-1.671392548e-04,-1.733489643e-04,-4.090636834e-06,-1.774396011e-04,-1.841640475e-04,-4.251793030e-05,-2.266819778e-04,-1.356790072e-04,-7.799760596e-05,-2.136766131e-04,-1.909287038e-04,5.186416251e-06,-1.857422875e-04,-3.735701928e-05,-2.158026144e-05,-5.893728072e-05,-1.476448523e-04,-1.274668170e-04,-2.751116693e-04,-1.894521037e-04,-1.070033766e-04,-2.964554803e-04
-4.4,1.531871322e-04,8.927432597e-05,2.424614581e-04,-1.998511129e-04,-7.060497484e-06,-2.069116104e-04,-2.537937754e-04,-2.980367618e-05,-2.835974516e-04,-1.441238795e-04,-3.221347405e-05,-1.763373535e-04,-3.427982349e-04,-3.672700119e-05,-3.795252361e-04,-1.062738245e-04,-2.795621332e-05,-1.342300378e-04,-4.764993220e-04,-1.025285084e-05,-4.867521728e-04,-4.387210801e-04,-2.688337816e-05,-4.656044583e-04,-4.554198317e-04,-1.352178833e-05,-4.689416201e-04,-4.357774284e-04,4.198151809e-06,-4.315792766e-04,-1.861048483e-04,-2.122714551e-05,-2.073319938e-04,-1.507273308e-04,-1.418394441e-04,-2.925667749e-04,-5.206800205e-04,1.541216379e-04,-3.665583826e-04,-5.102774357e-04,-9.537461227e-05,-6.056520480e-04,-2.699386541e-04,-1.265997892e-04,-3.965384433e-04,-3.078366308e-04,-6.283442657e-05,-3.706710574e-04,-1.597001198e-04,-8.603411614e-05,-2.457342359e-04,-4.213716296e-04,-1.226607141e-04,-5.440323437e-04,-2.574417297e-04,-6.112218672e-05,-3.185639165e-04,-4.338520922e-04,-5.244553867e-05,-4.862976308e-04,-2.157837535e-04,-6.162934648e-05,-2.774131000e-04,-1.956080928e-04,9.345302273e-07,-1.946735626e-04,-3.451574183e-04,-1.561116058e-05,-3.607685789e-04,-5.096489977e-04,-4.111350378e-05,-5.507625015e-04,-4.332542018e-04,-5.922788440e-05,-4.924820862e-04,-6.020943446e-04,-2.096365732e-05,-6.230580019e-04,4.125850294e-07,-2.514362291e-04,-2.510236441e-04,-5.794487475e-04,1.399801208e-04,-4.394686267e-04,-1.747307111e-04,-3.868440815e-05,-2.134151193e-04,-2.205895092e-04,-2.575684765e-06,-2.231651940e-04,-2.182841175e-04,-4.581229192e-05,-2.640964094e-04,-1.772518363e-04,-7.234532930e-05,-2.495971656e-04,-2.355114289e-04,6.556885488e-07,-2.348557404e-04,-1.080485072e-04,-3.079264035e-05,-1.388411475e-04,-1.965845277e-04,-1.138496352e-04,-3.104341629e-04,-2.271884783e-04,-1.130277475e-04,-3.402162258e-04
-4.3,1.754585668e-04,1.035783448e-04,2.790369117e-04,-1.553719723e-04,-4.206506607e-06,-1.595784790e-04,-2.747467489e-04,-2.458920587e-05,-2.993359548e-04,-1.130835285e-04,-3.004512924e-05,-1.431286577e-04,-3.373567223e-04,-3.507166500e-05,-3.724283873e-04,-9.311070000e-05,-2.472523407e-05,-1.178359341e-04,-4.815622643e-04,-8.329827149e-06,-4.898920915e-04,-4.319819410e-04,-2.448010559e-05,-4.564620466e-04,-4.496640471e-04,-1.175844458e-05,-4.614224917e-04,-4.304923980e-04,7.419392208e-06,-4.230730058e-04,-1.671405648e-04,-1.807318797e-05,-1.852137527e-04,-1.718502116e-04,-1.426860644e-04,-3.145362759e-04,-5.880539636e-04,1.701826442e-04,-4.178713194e-04,-5.490724496e-04,-9.455864869e-05,-6.436310983e-04,-3.171731029e-04,-1.234330634e-04,-4.406061663e-04,-3.482124426e-04,-5.773664165e-05,-4.059490842e-04,-1.995121845e-04,-8.882299047e-05,-2.883351750e-04,-4.430335811e-04,-1.179677656e-04,-5.610013467e-04,-2.846901309e-04,-6.141986089e-05,-3.461099918e-04,-4.400135694e-04,-4.722234574e-05,-4.872359152e-04,-2.124818006e-04,-6.073737984e-05,-2.732191804e-04,-1.812064907e-04,5.685788137e-07,-1.806379118e-04,-3.303283955e-04,-1.411723453e-05,-3.444456301e-04,-4.931124995e-04,-3.794517068e-05,-5.310576702e-04,-4.629884425e-04,-5.755295831e-05,-5.205414008e-04,-6.436192529e-04,-1.659034566e-05,-6.602095986e-04,-1.494065287e-05,-2.479918144e-04,-2.629324673e-04,-6.038487892e-04,1.262371171e-04,-4.776116721e-04,-2.177862735e-04,-4.156401606e-05,-2.593502895e-04,-2.671354655e-04,-1.611551627e-06,-2.687470172e-04,-2.520482047e-04,-4.887714983e-05,-3.009253545e-04,-2.187398825e-04,-6.633096947e-05,-2.850708520e-04,-2.798561182e-04,-3.792744676e-06,-2.836488629e-04,-1.790788986e-04,-4.014034952e-05,-2.192192481e-04,-2.447904873e-04,-9.993111993e-05,-3.447216073e-04,-2.639065543e-04,-1.182746640e-04,-3.821812184e-04
-4.2,1.967870501e-04,1.173763481e-04,3.141633982e-04,-1.110236662e-04,-1.405262208e-06,-1.124289284e-04,-2.942420786e-04,-1.928661845e-05,-3.135286970e-04,-8.210312696e-05,-2.780264931e-05,-1.099057763e-04,-3.314779277e-04,-3.325325960e-05,-3.647311873e-04,-8.040254277e-05,-2.127228096e-05,-1.016748237e-04,-4.859609522e-04,-6.371688188e-06,-4.923326404e-04,-4.249802640e-04,-2.187539438e-05,-4.468556584e-04,-4.432207798e-04,-9.963655440e-06,-4.531844352e-04,-4.242841229e-04,1.055968181e-05,-4.137244411e-04,-1.482844471e-04,-1.488550020e-05,-1.631699473e-04,-1.935210877e-04,-1.428479313e-04,-3.363690190e-04,-6.551386576e-04,1.855172608e-04,-4.696213968e-04,-5.863628155e-04,-9.351996913e-05,-6.798827847e-04,-3.638626675e-04,-1.198021502e-04,-4.836648177e-04,-3.877733264e-04,-5.262911296e-05,-4.404024394e-04,-2.388316342e-04,-9.143320457e-05,-3.302648388e-04,-4.623745522e-04,-1.130487901e-04,-5.754233423e-04,-3.108841667e-04,-6.146117306e-05,-3.723453397e-04,-4.452589656e-04,-4.173173831e-05,-4.869907039e-04,-2.084906813e-04,-5.965519213e-05,-2.681458735e-04,-1.668599402e-04,-9.160181929e-08,-1.669515420e-04,-3.133557030e-04,-1.266159351e-05,-3.260172965e-04,-4.748305828e-04,-3.462098215e-05,-5.094515649e-04,-4.918556247e-04,-5.580691442e-05,-5.476625391e-04,-6.836013946e-04,-1.219327939e-05,-6.957946740e-04,-3.154077830e-05,-2.441194530e-04,-2.756602313e-04,-6.267676991e-04,1.119060952e-04,-5.148616038e-04,-2.604898923e-04,-4.427468504e-05,-3.047645773e-04,-3.127737565e-04,-1.235282834e-06,-3.140090394e-04,-2.853798296e-04,-5.168138754e-05,-3.370612171e-04,-2.599676277e-04,-6.001986942e-05,-3.199874972e-04,-3.238019605e-04,-8.089223952e-06,-3.318911844e-04,-2.498242293e-04,-4.958058930e-05,-2.994048186e-04,-2.919294130e-04,-8.595413863e-05,-3.778835517e-04,-2.993980430e-04,-1.227649134e-04,-4.221629564e-04
-4.1,2.171848765e-04,1.306699889e-04,3.478548654e-04,-6.698770424e-05,1.359963705e-06,-6.562774054e-05,-3.122909762e-04,-1.391695311e-05,-3.262079293e-04,-5.127396590e-05,-2.549132397e-05,-7.676528987e-05,-3.252215110e-04,-3.127253821e-05,-3.564940492e-04,-6.816572515e-05,-1.760902055e-05,-8.577474569e-05,-4.897394760e-04,-4.379859595e-06,-4.941193356e-04,-4.178415151e-04,-1.903984168e-05,-4.368813568e-04,-4.360895063e-04,-8.136347048e-06,-4.442258534e-04,-4.171282929e-04,1.360570615e-05,-4.035225868e-04,-1.294588420e-04,-1.168030036e-05,-1.411391424e-04,-2.157311814e-04,-1.422833307e-04,-3.580145121e-04,-7.217426610e-04,2.001622876e-04,-5.215803733e-04,-6.220200134e-04,-9.224215652e-05,-7.142621699e-04,-4.098679218e-04,-1.157120029e-04,-5.255799246e-04,-4.263739656e-04,-4.755286125e-05,-4.739268268e-04,-2.774967751e-04,-9.387121067e-05,-3.713679858e-04,-4.793251891e-04,-1.079687552e-04,-5.872939443e-04,-3.359082687e-04,-6.124203397e-05,-3.971503027e-04,-4.495658407e-04,-3.602338848e-05,-4.855892292e-04,-2.037035664e-04,-5.838847662e-05,-2.620920430e-04,-1.526885584e-04,-1.034547491e-06,-1.537231059e-04,-2.942132979e-04,-1.126188932e-05,-3.054751872e-04,-4.549406263e-04,-3.115039381e-05,-4.860910202e-04,-5.197644030e-04,-5.400003307e-05,-5.737644360e-04,-7.219312795e-04,-7.791934164e-06,-7.297232137e-04,-4.941230707e-05,-2.398433501e-04,-2.892556571e-04,-6.481869526e-04,9.714019080e-05,-5.510467618e-04,-3.026969427e-04,-4.678255261e-05,-3.494794953e-04,-3.573088793e-04,-1.469770151e-06,-3.587786494e-04,-3.182009896e-04,-5.420117990e-05,-3.724021695e-04,-3.007616979e-04,-5.348190926e-05,-3.542436072e-04,-3.671814135e-04,-1.217367982e-05,-3.793550934e-04,-3.196649420e-04,-5.907776796e-05,-3.787427100e-04,-3.376844349e-04,-7.215926783e-05,-4.098437027e-04,-3.334636894e-04,-1.265185381e-04,-4.599822275e-04
-4,2.366654473e-04,1.434635253e-04,3.801289726e-04,-2.342795678e-05,4.107016999e-06,-1.932093978e-05,-3.289098918e-04,-8.500935227e-06,-3.374108270e-04,-2.067556551e-05,-2.311589717e-05,-4.379146268e-05,-3.186379971e-04,-2.913110423e-05,-3.477691013e-04,-5.640255500e-05,-1.374971118e-05,-7.015226618e-05,-4.929326198e-04,-2.355833719e-06,-4.952884535e-04,-4.106754321e-04,-1.594732159e-05,-4.266227536e-04,-4.282605473e-04,-6.275184577e-06,-4.345357319e-04,-4.089941989e-04,1.654516180e-05,-3.924490371e-04,-1.105728387e-04,-8.473596036e-06,-1.190464347e-04,-2.384564925e-04,-1.409560150e-04,-3.794125075e-04,-7.876482062e-04,2.141450629e-04,-5.735031433e-04,-6.559138799e-04,-9.070629287e-05,-7.466201727e-04,-4.550412554e-04,-1.111695298e-04,-5.662107852e-04,-4.638665733e-04,-4.254630631e-05,-5.064128796e-04,-3.153528925e-04,-9.613754308e-05,-4.114904356e-04,-4.938329057e-04,-1.027841693e-04,-5.966170751e-04,-3.596536860e-04,-6.076113166e-05,-4.204148177e-04,-4.529046497e-04,-3.015100288e-05,-4.830556526e-04,-1.980119337e-04,-5.694307809e-05,-2.549550118e-04,-1.387962385e-04,-2.245023872e-06,-1.410412623e-04,-2.728833347e-04,-9.933978675e-06,-2.828173134e-04,-4.335789283e-04,-2.754259989e-05,-4.611215282e-04,-5.466210165e-04,-5.214081512e-05,-5.987618316e-04,-7.584963501e-04,-3.408284402e-06,-7.619046345e-04,-6.855971365e-05,-2.351811157e-04,-3.037408294e-04,-6.680856524e-04,8.209623044e-05,-5.859894220e-04,-3.442587297e-04,-4.905517238e-05,-3.933139021e-04,-4.005606730e-04,-2.321025644e-06,-4.028816987e-04,-3.504261246e-04,-5.642121117e-05,-4.068473358e-04,-3.409463777e-04,-4.679128364e-05,-3.877376613e-04,-4.098151742e-04,-1.599738462e-05,-4.258125588e-04,-3.879920768e-04,-6.860009179e-05,-4.565921686e-04,-3.817534533e-04,-5.878034472e-05,-4.405337980e-04,-3.659124462e-04,-1.295521307e-04,-4.954645769e-04
-3.9,2.552444357e-04,1.557633141e-04,4.110077498e-04,1.951431854e-05,6.853969531e-06,2.636828807e-05,-3.441148900e-04,-3.058613898e-06,-3.471735039e-04,9.629342350e-06,-2.068026338e-05,-1.105092103e-05,-3.117625446e-04,-2.683126110e-05,-3.385938057e-04,-4.509731601e-05,-9.710487652e-06,-5.480780366e-05,-4.955579834e-04,-3.010347539e-07,-4.958590181e-04,-4.035687546e-04,-1.257593612e-05,-4.161446907e-04,-4.197086822e-04,-4.378613938e-06,-4.240872962e-04,-3.998398461e-04,1.936677853e-05,-3.804730676e-04,-9.151928968e-05,-5.281169412e-06,-9.680045910e-05,-2.616486552e-04,-1.388356913e-04,-4.004843465e-04,-8.526001991e-04,2.274821093e-04,-6.251180899e-04,-6.879038417e-04,-8.889026300e-05,-7.767941047e-04,-4.992176334e-04,-1.061847895e-04,-6.054024228e-04,-5.000949384e-04,-3.764449139e-05,-5.377394298e-04,-3.522474108e-04,-9.822555020e-05,-4.504729610e-04,-5.058582955e-04,-9.754243540e-05,-6.034007309e-04,-3.820151778e-04,-6.002001128e-05,-4.420351891e-04,-4.552345904e-04,-2.417154074e-05,-4.794061312e-04,-1.913009902e-04,-5.532486326e-05,-2.466258534e-04,-1.252629391e-04,-3.704453273e-06,-1.289673923e-04,-2.493521706e-04,-8.691724093e-06,-2.580438947e-04,-4.108753406e-04,-2.380558460e-05,-4.346809252e-04,-5.723225198e-04,-5.023461006e-05,-6.225571298e-04,-7.931689058e-04,9.345225110e-07,-7.922343833e-04,-8.895985965e-05,-2.301439061e-04,-3.191037657e-04,-6.864355945e-04,6.693424780e-05,-6.195013467e-04,-3.850187355e-04,-5.106182123e-05,-4.360805567e-04,-4.423623606e-04,-3.776216730e-06,-4.461385774e-04,-3.819568257e-04,-5.833529300e-05,-4.402921187e-04,-3.803391910e-04,-4.002631900e-05,-4.203655100e-04,-4.515077151e-04,-1.952393063e-05,-4.710316457e-04,-4.542117122e-04,-7.811603887e-05,-5.323277511e-04,-4.238463183e-04,-4.604067340e-05,-4.698869917e-04,-3.965620183e-04,-1.318756698e-04,-5.284376881e-04
-3.8,2.729405553e-04,1.675775310e-04,4.405180864e-04,6.172464409e-05,9.618099524e-06,7.134274361e-05,-3.579174818e-04,2.391033922e-06,-3.555264479e-04,3.959804527e-05,-1.818725933e-05,2.141078594e-05,-3.046108461e-04,-2.437595607e-05,-3.289868022e-04,-3.421443112e-05,-5.508702356e-06,-3.972313348e-05,-4.976117724e-04,1.783225561e-06,-4.958285469e-04,-3.965804195e-04,-8.908617240e-06,-4.054890368e-04,-4.103897245e-04,-2.444979937e-06,-4.128347044e-04,-3.896090542e-04,2.206038209e-05,-3.675486721e-04,-7.217334877e-05,-2.118578930e-06,-7.429192770e-05,-2.852305182e-04,-1.358986361e-04,-4.211291544e-04,-9.163002710e-04,2.401774396e-04,-6.761228314e-04,-7.178363338e-04,-8.676893599e-05,-8.046052698e-04,-5.422107971e-04,-1.007718534e-04,-6.429826505e-04,-5.348919615e-04,-3.287813832e-05,-5.677700999e-04,-3.880263210e-04,-1.001207561e-04,-4.881470771e-04,-5.153708706e-04,-9.228254175e-05,-6.076534123e-04,-4.028882070e-04,-5.902290676e-05,-4.619111138e-04,-4.565019097e-04,-1.814433470e-05,-4.746462444e-04,-1.834477784e-04,-5.353967661e-05,-2.369874550e-04,-1.121396917e-04,-5.391358064e-06,-1.175310497e-04,-2.236085655e-04,-7.546888530e-06,-2.311554541e-04,-3.869497179e-04,-1.994546469e-05,-4.068951826e-04,-5.967533725e-04,-4.828229485e-05,-6.450356673e-04,-8.257997414e-04,5.213636191e-06,-8.205861052e-04,-1.105579560e-04,-2.247363247e-04,-3.352942807e-04,-7.031990547e-04,5.181623133e-05,-6.513828233e-04,-4.248117428e-04,-5.277414131e-05,-4.775858841e-04,-4.825612505e-04,-5.802849848e-06,-4.883641003e-04,-4.126798245e-04,-5.994632960e-05,-4.726261541e-04,-4.187494604e-04,-3.326876470e-05,-4.520182252e-04,-4.920458345e-04,-2.272957994e-05,-5.147754144e-04,-5.177489066e-04,-8.759224890e-05,-6.053411555e-04,-4.636840891e-04,-3.414954166e-05,-4.978336307e-04,-4.252426024e-04,-1.334890190e-04,-5.587316215e-04
-3.7,2.897752473e-04,1.789160497e-04,4.686912969e-04,1.031175825e-04,1.241481409e-05,1.155323966e-04,-3.703231776e-04,7.830471037e-06,-3.624927065e-04,6.920800231e-05,-1.563860120e-05,5.356940111e-05,-2.971788737e-04,-2.176884674e-05,-3.189477205e-04,-2.369973772e-05,-1.162403928e-06,-2.486214164e-05,-4.990698945e-04,3.895701607e-06,-4.951741929e-04,-3.897406380e-04,-4.933404898e-06,-3.946740429e-04,-4.002414433e-04,-4.726832771e-07,-4.007141266e-04,-3.782320314e-04,2.461702902e-05,-3.536150024e-04,-5.239401764e-05,9.988498520e-07,-5.139516778e-05,-3.090978092e-04,-1.321285830e-04,-4.412263923e-04,-9.784077192e-04,2.522206738e-04,-7.261870454e-04,-7.455492549e-04,-8.431522009e-05,-8.298644750e-04,-5.838157166e-04,-9.494940890e-05,-6.787651255e-04,-5.680820908e-04,-2.827285844e-05,-5.963549493e-04,-4.225334615e-04,-1.018011349e-04,-5.243345964e-04,-5.223463831e-04,-8.703667075e-05,-6.093830539e-04,-4.221681722e-04,-5.777646615e-05,-4.799446384e-04,-4.566418227e-04,-1.213007878e-05,-4.687719015e-04,-1.743234128e-04,-5.159341531e-05,-2.259168282e-04,-9.944755252e-05,-7.281860015e-06,-1.067294125e-04,-1.956450887e-04,-6.509132778e-06,-2.021542215e-04,-3.619109469e-04,-1.596621678e-05,-3.778771637e-04,-6.197876513e-04,-4.627927753e-05,-6.660669288e-04,-8.562201886e-04,9.407436655e-06,-8.468127519e-04,-1.332690063e-04,-2.189563685e-04,-3.522253748e-04,-7.183307272e-04,3.690388858e-05,-6.814268386e-04,-4.634664039e-04,-5.416715820e-05,-5.176335621e-04,-5.210223981e-04,-8.349249663e-06,-5.293716478e-04,-4.424693633e-04,-6.126553490e-05,-5.037348982e-04,-4.559811153e-04,-2.660219017e-05,-4.825833054e-04,-5.312012025e-04,-2.560307761e-05,-5.568042801e-04,-5.780513911e-04,-9.699354321e-05,-6.750449343e-04,-5.010024079e-04,-2.329870797e-05,-5.243011158e-04,-4.518037594e-04,-1.343790093e-04,-5.861827687e-04
-3.6,3.057712458e-04,1.897904034e-04,4.955616492e-04,1.436366613e-04,1.525665078e-05,1.588933121e-04,-3.813327940e-04,1.324391822e-05,-3.680888758e-04,9.845390507e-05,-1.303493612e-05,8.541896894e-05,-2.894465464e-04,-1.901444053e-05,-3.084609869e-04,-1.348463908e-05,3.310048420e-06,-1.017459065e-05,-4.998939227e-04,6.035122536e-06,-4.938588001e-04,-3.830536564e-04,-6.436917815e-07,-3.836973482e-04,-3.891885651e-04,1.539655009e-06,-3.876489101e-04,-3.656295361e-04,2.702918506e-05,-3.386003510e-04,-3.202904256e-05,4.056044149e-06,-2.797299841e-05,-3.331260960e-04,-1.275177159e-04,-4.606438119e-04,-1.038547052e-03,2.635858894e-04,-7.749611628e-04,-7.708817236e-04,-8.150164722e-05,-8.523833708e-04,-6.238158644e-04,-8.874120696e-05,-7.125570713e-04,-5.994878520e-04,-2.384884265e-05,-6.233366946e-04,-4.556127541e-04,-1.032383931e-04,-5.588511472e-04,-5.267675029e-04,-8.183187115e-05,-6.085993741e-04,-4.397521689e-04,-5.628945384e-05,-4.960416228e-04,-4.555837944e-04,-6.189698632e-06,-4.617734930e-04,-1.637992938e-04,-4.949222177e-05,-2.132915156e-04,-8.718033076e-05,-9.350311259e-06,-9.653064202e-05,-1.654624692e-04,-5.586111910e-06,-1.710485811e-04,-3.358584110e-04,-1.186975274e-05,-3.477281638e-04,-6.412963845e-04,-4.421512413e-05,-6.855115086e-04,-8.842514697e-04,1.349560114e-05,-8.707558686e-04,-1.569843677e-04,-2.127953396e-04,-3.697797072e-04,-7.317836717e-04,2.235566903e-05,-7.094280027e-04,-5.008106367e-04,-5.522048475e-05,-5.560311215e-04,-5.576339691e-04,-1.134623356e-05,-5.689802027e-04,-4.711933939e-04,-6.231096781e-05,-5.335043617e-04,-4.918389905e-04,-2.010983852e-05,-5.119488290e-04,-5.687366525e-04,-2.814487091e-05,-5.968815234e-04,-6.345938988e-04,-1.062845485e-04,-7.408784473e-04,-5.355593027e-04,-1.365870178e-05,-5.492180045e-04,-4.761225037e-04,-1.345186572e-04,-6.106411609e-04
-3.5,3.209503946e-04,2.002138046e-04,5.211641992e-04,1.832521023e-04,1.815251461e-05,2.014046169e-04,-3.909456973e-04,1.861761091e-05,-3.723280864e-04,1.273425517e-04,-1.037594465e-05,1.169666071e-04,-2.813841738e-04,-1.611822734e-05,-2.975024011e-04,-3.492040315e-06,7.890252944e-06,4.398212629e-06,-5.000400810e-04,8.200088675e-06,-4.918399923e-04,-3.765030613e-04,3.961339455e-06,-3.725417219e-04,-3.771504109e-04,3.593036482e-06,-3.735573744e-04,-3.517196042e-04,2.929087457e-05,-3.224287296e-04,-1.092245979e-05,7.038198223e-06,-3.884261566e-06,-3.571810482e-04,-1.220672746e-04,-4.792483228e-04,-1.096321521e-03,2.742328032e-04,-8.220887179e-04,-7.936860584e-04,-7.830207120e-05,-8.719881296e-04,-6.619930248e-04,-8.217634468e-05,-7.441693695e-04,-6.289385974e-04,-1.962107270e-05,-6.485596701e-04,-4.871125703e-04,-1.044000594e-04,-5.915126297e-04,-5.286278851e-04,-7.669110038e-05,-6.053189855e-04,-4.555428326e-04,-5.457243509e-05,-5.101152677e-04,-4.532590158e-04,-3.830925924e-07,-4.536421084e-04,-1.517559358e-04,-4.724272944e-05,-1.989986653e-04,-7.531001552e-05,-1.156998288e-05,-8.687999840e-05,-1.330757321e-04,-4.783643873e-06,-1.378593760e-04,-3.088850808e-04,-7.656228357e-06,-3.165413092e-04,-6.611579048e-04,-4.207382243e-05,-7.032317273e-04,-9.097182502e-04,1.745853927e-05,-8.922597110e-04,-1.815817451e-04,-2.062372975e-04,-3.878190426e-04,-7.435179018e-04,8.323681236e-06,-7.351942206e-04,-5.366785390e-04,-5.591937742e-05,-5.925979164e-04,-5.923124269e-04,-1.470971506e-05,-6.070221420e-04,-4.987217473e-04,-6.310570882e-05,-5.618274561e-04,-5.261367152e-04,-1.387260961e-05,-5.400093248e-04,-6.044150480e-04,-3.036572569e-05,-6.347807737e-04,-6.868846703e-04,-1.154316673e-04,-8.023163376e-04,-5.671459410e-04,-5.374907477e-06,-5.725208485e-04,-4.981097962e-04,-1.338697092e-04,-6.319795055e-04
