Time,S1D1HbO,S1D1HbR,S1D1HbT,S2D2HbO,S2D2HbR,S2D2HbT,S3D3HbO,S3D3HbR,S3D3HbT,S4D4HbO,S4D4HbR,S4D4HbT,S5D5HbO,S5D5HbR,S5D5HbT,S6D6HbO,S6D6HbR,S6D6HbT,S7D7HbO,S7D7HbR,S7D7HbT,S8D8HbO,S8D8HbR,S8D8HbT,S9D9HbO,S9D9HbR,S9D9HbT,S10D10HbO,S10D10HbR,S10D10HbT,S11D11HbO,S11D11HbR,S11D11HbT,S12D12HbO,S12D12HbR,S12D12HbT,S13D13HbO,S13D13HbR,S13D13HbT,S14D14HbO,S14D14HbR,S14D14HbT,S15D15HbO,S15D15HbR,S15D15HbT,S16D16HbO,S16D16HbR,S16D16HbT,S17D17HbO,S17D17HbR,S17D17HbT,S18D18HbO,S18D18HbR,S18D18HbT,S19D19HbO,S19D19HbR,S19D19HbT,S20D20HbO,S20D20HbR,S20D20HbT,S21D21HbO,S21D21HbR,S21D21HbT,S22D22HbO,S22D22HbR,S22D22HbT,S23D23HbO,S23D23HbR,S23D23HbT,S24D24HbO,S24D24HbR,S24D24HbT,S25D25HbO,S25D25HbR,S25D25HbT,S26D26HbO,S26D26HbR,S26D26HbT,S27D27HbO,S27D27HbR,S27D27HbT,S28D28HbO,S28D28HbR,S28D28HbT,S29D29HbO,S29D29HbR,S29D29HbT,S30D30HbO,S30D30HbR,S30D30HbT,S31D31HbO,S31D31HbR,S31D31HbT,S32D32HbO,S32D32HbR,S32D32HbT,S33D33HbO,S33D33HbR,S33D33HbT,S34D34HbO,S34D34HbR,S34D34HbT,S35D35HbO,S35D35HbR,S35D35HbT,S36D36HbO,S36D36HbR,S36D36HbT,
-10,4.105885608e-05,3.188478182e-04,3.599066743e-04,2.352034934e-03,5.627664562e-04,2.914801391e-03,5.395886340e-05,-2.768635811e-05,2.627250529e-05,1.055179837e-03,1.322865044e-04,1.187466342e-03,1.115995408e-03,-3.673672228e-05,1.079258686e-03,1.761367309e-03,6.754874429e-05,1.828916053e-03,1.907888503e-03,3.626755113e-05,1.944156054e-03,1.654790506e-03,-6.078774498e-05,1.594002761e-03,1.605059740e-03,1.325602885e-04,1.737620029e-03,1.010388620e-03,-4.079581112e-05,9.695928086e-04,9.732585427e-04,-1.007304222e-04,8.725281205e-04,1.245288881e-03,2.105723997e-04,1.455861280e-03,1.760572044e-03,-8.936597012e-05,1.671206074e-03,1.864391188e-03,2.700178802e-04,2.134409068e-03,1.703296698e-03,8.263436541e-05,1.785931064e-03,1.823572609e-03,-3.027410431e-05,1.793298505e-03,1.831558609e-03,-4.178535710e-06,1.827380074e-03,1.111312927e-03,-1.628029009e-04,9.485100257e-04,1.112155762e-03,-6.488316993e-05,1.047272592e-03,1.379220294e-03,-1.966830819e-05,1.359551986e-03,7.533444386e-04,9.544834976e-06,7.628892736e-04,1.152331219e-03,1.170572032e-04,1.269388423e-03,3.901690495e-04,-6.440594823e-05,3.257631013e-04,5.154782029e-04,2.128282063e-04,7.283064092e-04,2.071582060e-03,1.435790716e-04,2.215161132e-03,2.246161624e-03,4.275599489e-04,2.673721573e-03,1.586149092e-03,-4.814234587e-05,1.538006746e-03,1.112320270e-03,2.604634647e-04,1.372783735e-03,1.330957528e-03,9.817377492e-05,1.429131303e-03,1.662720585e-03,-9.433091856e-05,1.568389666e-03,1.372391922e-03,1.414052915e-05,1.386532451e-03,1.508899585e-03,2.425649740e-05,1.533156082e-03,1.384205220e-03,3.340125858e-05,1.417606478e-03,1.489433263e-03,1.537341625e-04,1.643167426e-03,1.516452503e-03,2.696683530e-05,1.543419338e-03,1.529473490e-03,-1.359599233e-04,1.393513567e-03
-9.9,2.755187814e-05,3.147197276e-04,3.422716058e-04,2.263420825e-03,5.411949955e-04,2.804615821e-03,5.627230000e-05,-2.504036985e-05,3.123193015e-05,1.003279961e-03,1.300355484e-04,1.133315510e-03,1.070105265e-03,-3.761512100e-05,1.032490144e-03,1.697829900e-03,6.077262000e-05,1.758602520e-03,1.874402393e-03,3.277709935e-05,1.907179493e-03,1.591343927e-03,-6.504703203e-05,1.526296895e-03,1.559879028e-03,1.228074633e-04,1.682686492e-03,9.079807588e-04,-4.524041039e-05,8.627403484e-04,8.562296497e-04,-1.052992324e-04,7.509304174e-04,1.255644647e-03,2.062045728e-04,1.461849220e-03,1.768443534e-03,-6.974758699e-05,1.698695947e-03,1.859694220e-03,2.665051216e-04,2.126199341e-03,1.740605691e-03,8.055623098e-05,1.821161922e-03,1.790750417e-03,-3.175919169e-05,1.758991225e-03,1.803958033e-03,-8.647696798e-06,1.795310336e-03,1.072839274e-03,-1.654754297e-04,9.073638441e-04,1.076866682e-03,-7.245568005e-05,1.004411002e-03,1.302159923e-03,-2.311943139e-05,1.279040492e-03,6.550552152e-04,8.324551096e-06,6.633797663e-04,1.096435310e-03,1.095706875e-04,1.206005998e-03,3.723237557e-04,-6.687325059e-05,3.054505051e-04,5.383840346e-04,2.083733278e-04,7.467573624e-04,2.025813695e-03,1.340274201e-04,2.159841115e-03,2.246322096e-03,4.133980597e-04,2.659720156e-03,1.556037131e-03,-5.772310839e-05,1.498314023e-03,1.095408121e-03,2.724200819e-04,1.367828202e-03,1.331939346e-03,8.911518787e-05,1.421054534e-03,1.623327835e-03,-1.049858836e-04,1.518341952e-03,1.360591194e-03,9.972874920e-06,1.370564069e-03,1.470922075e-03,1.665507249e-05,1.487577147e-03,1.329937211e-03,3.704433236e-05,1.366981544e-03,1.446018279e-03,1.460594675e-04,1.592077746e-03,1.474643255e-03,2.604040904e-05,1.500683664e-03,1.474176056e-03,-1.439219631e-04,1.330254093e-03
-9.8,1.084702203e-05,3.099646317e-04,3.208116537e-04,2.167736885e-03,5.182488225e-04,2.685985708e-03,5.775020646e-05,-2.288296795e-05,3.486723851e-05,9.487707464e-04,1.271002989e-04,1.075871045e-03,1.022665783e-03,-3.853780611e-05,9.841279767e-04,1.629632627e-03,5.364264397e-05,1.683275271e-03,1.834196918e-03,2.926868679e-05,1.863465605e-03,1.521351298e-03,-6.926553221e-05,1.452085765e-03,1.506006777e-03,1.128666002e-04,1.618873377e-03,8.007062863e-04,-4.938463427e-05,7.513216520e-04,7.382023155e-04,-1.094220072e-04,6.287803083e-04,1.261438230e-03,2.012742424e-04,1.462712472e-03,1.769598721e-03,-4.994933213e-05,1.719649389e-03,1.847896447e-03,2.624164674e-04,2.110312914e-03,1.770411606e-03,7.793996772e-05,1.848351573e-03,1.752903607e-03,-3.369867029e-05,1.719204937e-03,1.770151579e-03,-1.323533663e-05,1.756916242e-03,1.030479135e-03,-1.679077664e-04,8.625713691e-04,1.036785905e-03,-7.968066735e-05,9.571052379e-04,1.219756051e-03,-2.632399062e-05,1.193432061e-03,5.596885227e-04,6.838958517e-06,5.665274812e-04,1.037805757e-03,1.011563209e-04,1.138962078e-03,3.576752810e-04,-6.919802318e-05,2.884772579e-04,5.586316350e-04,2.033997784e-04,7.620314134e-04,1.972994415e-03,1.245554028e-04,2.097549818e-03,2.237647028e-03,3.990136431e-04,2.636660672e-03,1.516599263e-03,-6.590292848e-05,1.450696335e-03,1.074446259e-03,2.828421767e-04,1.357288435e-03,1.328600979e-03,7.968702022e-05,1.408287999e-03,1.579135359e-03,-1.149704835e-04,1.464164875e-03,1.343999121e-03,5.652977259e-06,1.349652098e-03,1.428157247e-03,8.743833324e-06,1.436901080e-03,1.269772907e-03,4.071746214e-05,1.310490369e-03,1.394619478e-03,1.374819690e-04,1.532101447e-03,1.426577784e-03,2.531816847e-05,1.451895953e-03,1.412966662e-03,-1.513154669e-04,1.261651195e-03
-9.7,-8.702417202e-06,3.045900294e-04,2.958876122e-04,2.065593296e-03,4.940424751e-04,2.559635771e-03,5.850860675e-05,-2.121725435e-05,3.729135240e-05,8.921333453e-04,1.235100407e-04,1.015643386e-03,9.740222065e-04,-3.950009370e-05,9.345221128e-04,1.557239427e-03,4.620363743e-05,1.603443064e-03,1.787549976e-03,2.575863729e-05,1.813308613e-03,1.445307541e-03,-7.342335857e-05,1.371884182e-03,1.443890854e-03,1.027964197e-04,1.546687273e-03,6.892950154e-04,-5.320962404e-05,6.360853914e-04,6.199068561e-04,-1.130757934e-04,5.068310626e-04,1.262816088e-03,1.957915208e-04,1.458607609e-03,1.764246726e-03,-3.017623655e-05,1.734070489e-03,1.829197134e-03,2.577594695e-04,2.086956603e-03,1.792673497e-03,7.480275869e-05,1.867476256e-03,1.710352140e-03,-3.609222963e-05,1.674259911e-03,1.730458813e-03,-1.791612350e-05,1.712542690e-03,9.845746454e-04,-1.701619232e-04,8.144127222e-04,9.922643552e-04,-8.652537261e-05,9.057389826e-04,1.132560372e-03,-2.927093274e-05,1.103289439e-03,4.678758780e-04,5.098266546e-06,4.729741446e-04,9.768518238e-04,9.187380390e-05,1.068725628e-03,3.463854427e-04,-7.134990940e-05,2.750355333e-04,5.762187083e-04,1.979343052e-04,7.741530135e-04,1.913686168e-03,1.151938389e-04,2.028880007e-03,2.220438965e-03,3.844549285e-04,2.604893894e-03,1.468193649e-03,-7.261811633e-05,1.395575533e-03,1.049858284e-03,2.915337079e-04,1.341391992e-03,1.321064208e-03,6.996079245e-05,1.391025001e-03,1.530548278e-03,-1.242214024e-04,1.406326876e-03,1.322825190e-03,1.185489144e-06,1.324010679e-03,1.380948021e-03,5.926061362e-07,1.381540627e-03,1.204252775e-03,4.437478144e-05,1.248627557e-03,1.335710391e-03,1.280432127e-04,1.463753604e-03,1.372649040e-03,2.475777135e-05,1.397406811e-03,1.346293292e-03,-1.580408335e-04,1.188252458e-03
-9.6,-3.073646604e-05,2.986044492e-04,2.678679832e-04,1.957637247e-03,4.686974805e-04,2.426334727e-03,5.866693175e-05,-2.004353906e-05,3.862339269e-05,8.338550020e-04,1.192963743e-04,9.531513762e-04,9.245219571e-04,-4.049752427e-05,8.840244328e-04,1.481136287e-03,3.850293582e-05,1.519639222e-03,1.734776707e-03,2.226191737e-05,1.757038624e-03,1.363745330e-03,-7.749865073e-05,1.286246680e-03,1.374022447e-03,9.265373931e-05,1.466676186e-03,5.744982236e-04,-5.669911628e-05,5.177991074e-04,5.020699047e-04,-1.162425215e-04,3.858273832e-04,1.259944767e-03,1.897744097e-04,1.449719176e-03,1.752655774e-03,-1.064403433e-05,1.742011739e-03,1.803844775e-03,2.525423444e-04,2.056387119e-03,1.807397150e-03,7.116778378e-05,1.878564934e-03,1.663441780e-03,-3.893288590e-05,1.624508894e-03,1.685239416e-03,-2.266538372e-05,1.662574032e-03,9.354817403e-04,-1.722853508e-04,7.631963895e-04,9.436874858e-04,-9.296237995e-05,8.507251058e-04,1.041162971e-03,-3.195611834e-05,1.009206853e-03,3.802180260e-04,3.114679317e-06,3.833327054e-04,9.139953442e-04,8.179035787e-05,9.957857020e-04,3.385940253e-04,-7.330114594e-05,2.652928794e-04,5.911650259e-04,1.920054400e-04,7.831704660e-04,1.848493218e-03,1.059690962e-04,1.954462314e-03,2.195054316e-03,3.697657934e-04,2.564820109e-03,1.411248524e-03,-7.782446685e-05,1.333424058e-03,1.022070779e-03,2.983160359e-04,1.320386814e-03,1.309474727e-03,6.000859012e-05,1.369483318e-03,1.478011917e-03,-1.326932329e-04,1.345318684e-03,1.297311633e-03,-3.425537967e-06,1.293886095e-03,1.329660748e-03,-7.726860290e-06,1.321933888e-03,1.133960258e-03,4.796443933e-05,1.181924697e-03,1.269815703e-03,1.177985335e-04,1.387614237e-03,1.313293789e-03,2.430719234e-05,1.337600981e-03,1.274634330e-03,-1.640009762e-04,1.110633354e-03
-9.5,-5.489279886e-05,2.920173337e-04,2.371245349e-04,1.844547945e-03,4.423413752e-04,2.286889320e-03,5.834535136e-05,-1.935926378e-05,3.898608758e-05,7.744222976e-04,1.144928661e-04,8.889151637e-04,8.745094411e-04,-4.152584095e-05,8.329836002e-04,1.401826131e-03,3.058934751e-05,1.432415478e-03,1.676223197e-03,1.879187643e-05,1.695015074e-03,1.277229196e-03,-8.146828406e-05,1.195760912e-03,1.296929837e-03,8.249301785e-05,1.379422855e-03,4.570807137e-04,-5.983949452e-05,3.972412192e-04,3.854069553e-04,-1.189089849e-04,2.664979704e-04,1.253002802e-03,1.832487251e-04,1.436251527e-03,1.735133283e-03,8.427685750e-06,1.743560968e-03,1.772125226e-03,2.467731485e-04,2.018898374e-03,1.814626752e-03,6.706456737e-05,1.881691320e-03,1.612535155e-03,-4.220696192e-05,1.570328193e-03,1.634885202e-03,-2.745902197e-05,1.607426180e-03,8.835659625e-04,-1.743093870e-04,7.092565754e-04,8.914694769e-04,-9.896890626e-05,7.925005706e-04,9.461843751e-04,-3.438163386e-05,9.118027412e-04,2.972759446e-04,9.021331205e-07,2.981780778e-04,8.496640047e-04,7.097927410e-05,9.206432788e-04,3.344129391e-04,-7.502691540e-05,2.593860237e-04,6.035080211e-04,1.856430236e-04,7.891510447e-04,1.778051519e-03,9.690114199e-05,1.874952661e-03,2.161890794e-03,3.549856423e-04,2.516876436e-03,1.346254461e-03,-8.149574852e-05,1.264758712e-03,9.915028046e-04,3.030316550e-04,1.294534460e-03,1.293995343e-03,4.990240636e-05,1.343897750e-03,1.422002780e-03,-1.403599410e-04,1.281642839e-03,1.267727269e-03,-8.176884604e-06,1.259550384e-03,1.274678111e-03,-1.614229445e-05,1.258535816e-03,1.059510798e-03,5.142941543e-05,1.110940214e-03,1.197502240e-03,1.068146242e-04,1.304316864e-03,1.248983931e-03,2.390640591e-05,1.272890337e-03,1.198490575e-03,-1.691040510e-04,1.029386524e-03
-9.4,-8.081178261e-05,2.848391456e-04,2.040273630e-04,1.727030265e-03,4.151066372e-04,2.142136902e-03,5.766024639e-05,-1.915888838e-05,3.850135801e-05,7.143128514e-04,1.091346991e-04,8.234475505e-04,8.243186576e-04,-4.258096097e-05,7.817376967e-04,1.319821708e-03,2.251215335e-05,1.342333862e-03,1.612257191e-03,1.536006647e-05,1.627617257e-03,1.186347190e-03,-8.530864172e-05,1.101038548e-03,1.213169775e-03,7.236602478e-05,1.285535800e-03,3.378106777e-04,-6.261968113e-05,2.751909966e-04,2.706129206e-04,-1.210666847e-04,1.495462360e-04,1.242170577e-03,1.762476238e-04,1.418418201e-03,1.712003287e-03,2.682253233e-05,1.738825820e-03,1.734346565e-03,2.404589575e-04,1.974805523e-03,1.814434055e-03,6.252851339e-05,1.876962569e-03,1.557999720e-03,-4.589424757e-05,1.512105473e-03,1.579808857e-03,-3.227358364e-05,1.547535273e-03,8.291973285e-04,-1.762490505e-04,6.529482781e-04,8.360450398e-04,-1.045260316e-04,7.315190082e-04,8.482651439e-04,-3.655502122e-05,8.117101227e-04,2.195602251e-04,-1.523929348e-06,2.180362958e-04,7.842828923e-04,5.951845847e-05,8.438013508e-04,3.339187961e-04,-7.650569240e-05,2.574131037e-04,6.132967296e-04,1.788777442e-04,7.921744738e-04,1.703013597e-03,8.800230863e-05,1.791015906e-03,2.121369815e-03,3.401492609e-04,2.461519076e-03,1.273754248e-03,-8.362290611e-05,1.190131342e-03,9.585534799e-04,3.055475763e-04,1.264101056e-03,1.274797149e-03,3.971366319e-05,1.314510812e-03,1.363016823e-03,-1.472157906e-04,1.215801033e-03,1.234359307e-03,-1.306651168e-05,1.221292795e-03,1.216390586e-03,-2.458242112e-05,1.191808165e-03,9.815376212e-04,5.470868642e-05,1.036246308e-03,1.119367165e-03,9.516720750e-05,1.214534372e-03,1.180215572e-03,2.349028142e-05,1.203705853e-03,1.118375363e-03,-1.732657571e-04,9.451096057e-04
-9.3,-1.081417329e-04,2.770815911e-04,1.689398583e-04,1.605807370e-03,3.871294860e-04,1.992936856e-03,5.671892262e-05,-1.943373825e-05,3.728518438e-05,6.539865535e-04,1.032583349e-04,7.572448884e-04,7.742648962e-04,-4.365891580e-05,7.306059804e-04,1.235637403e-03,1.432033671e-05,1.249957740e-03,1.543257635e-03,1.197621058e-05,1.555233845e-03,1.091701047e-03,-8.899615791e-05,1.002704889e-03,1.123317812e-03,6.232163417e-05,1.185639446e-03,2.174485331e-04,-6.503091715e-05,1.524176159e-04,1.583516807e-04,-1.227115607e-04,3.564011995e-05,1.227619820e-03,1.688111150e-04,1.396430935e-03,1.683585195e-03,4.433350766e-05,1.727918703e-03,1.690823789e-03,2.336053430e-04,1.924429132e-03,1.806907418e-03,5.759974673e-05,1.864507164e-03,1.500195265e-03,-4.996841247e-05,1.450226852e-03,1.520431118e-03,-3.708619252e-05,1.483344926e-03,7.727443439e-04,-1.781034717e-04,5.946408722e-04,7.778599385e-04,-1.096179930e-04,6.682419455e-04,7.480543861e-04,-3.848853435e-05,7.095658517e-04,1.475201904e-04,-4.146795983e-06,1.433733944e-04,7.182656012e-04,4.748904321e-05,7.657546445e-04,3.371452710e-04,-7.771956979e-05,2.594257012e-04,6.205856029e-04,1.717406970e-04,7.923262998e-04,1.624031497e-03,7.927701429e-05,1.703308511e-03,2.073917659e-03,3.252867010e-04,2.399204360e-03,1.194331680e-03,-8.421424303e-05,1.110117437e-03,9.235892014e-04,3.057584815e-04,1.229347683e-03,1.252050542e-03,2.951297097e-05,1.281563513e-03,1.301556652e-03,-1.532753655e-04,1.148281287e-03,1.197504093e-03,-1.809364382e-05,1.179410449e-03,1.155187757e-03,-3.297825098e-05,1.122209506e-03,9.006766788e-04,5.773849359e-05,9.584151724e-04,1.036025738e-03,8.293903562e-05,1.118964774e-03,1.107497493e-03,2.299231616e-05,1.130489809e-03,1.034805088e-03,-1.764113035e-04,8.583937850e-04
-9.2,-1.365436774e-04,2.687579034e-04,1.322142260e-04,1.481612835e-03,3.585485961e-04,1.840161431e-03,5.561485619e-05,-2.017178669e-05,3.544306950e-05,5.938775369e-04,9.690123738e-05,6.907787743e-04,7.246370973e-04,-4.475571878e-05,6.798813785e-04,1.149781211e-03,6.062109114e-06,1.155843320e-03,1.469605233e-03,8.648347301e-06,1.478253581e-03,9.938962189e-04,-9.250755741e-05,9.013886615e-04,1.027959233e-03,5.240568994e-05,1.080364923e-03,9.673625187e-05,-6.706654787e-05,2.966970401e-05,4.924598008e-05,-1.238436915e-04,-7.459771137e-05,1.209505013e-03,1.609857704e-04,1.370490783e-03,1.650176671e-03,6.076806578e-05,1.710944737e-03,1.641866667e-03,2.262162962e-04,1.868082963e-03,1.792143160e-03,5.232165834e-05,1.844464818e-03,1.439463501e-03,-5.439759806e-05,1.385065903e-03,1.457168744e-03,-4.187413903e-05,1.415294604e-03,7.145682663e-04,-1.798567758e-04,5.347114905e-04,7.173614677e-04,-1.142314575e-04,6.031300102e-04,6.461988331e-04,-4.019844275e-05,6.060003903e-04,8.153439289e-05,-6.948784775e-06,7.458560811e-05,6.520065186e-04,3.497404295e-05,6.869805616e-04,3.440769000e-04,-7.865451183e-05,2.654223881e-04,6.254296920e-04,1.642630412e-04,7.896927332e-04,1.541741107e-03,7.072209731e-05,1.612463205e-03,2.019949475e-03,3.104234003e-04,2.330372876e-03,1.108600480e-03,-8.329620618e-05,1.025304274e-03,8.869329732e-04,3.035894198e-04,1.190522393e-03,1.225918166e-03,1.937015881e-05,1.245288325e-03,1.238119807e-03,-1.585725541e-04,1.079547253e-03,1.157458220e-03,-2.325829340e-05,1.134199927e-03,1.091450935e-03,-4.126401035e-05,1.050186925e-03,8.175531266e-04,6.045369970e-05,8.780068263e-04,9.481006498e-04,7.021840793e-05,1.018319058e-03,1.031340542e-03,2.234838857e-05,1.053688930e-03,9.482922282e-04,-1.784774468e-04,7.698147814e-04
-9.1,-1.656947897e-04,2.598831980e-04,9.418840830e-05,1.355182958e-03,3.295038041e-04,1.684686763e-03,5.442473026e-05,-2.135737660e-05,3.306735366e-05,5.343880872e-04,9.010168582e-05,6.244897730e-04,6.756925429e-04,-4.586715634e-05,6.298253866e-04,1.062748385e-03,-2.215377445e-06,1.060533008e-03,1.391676303e-03,5.383118578e-06,1.397059422e-03,8.935336009e-04,-9.582000739e-05,7.977135935e-04,9.276824134e-04,4.266088999e-05,9.703433034e-04,-2.361114066e-05,-6.872190349e-05,-9.233304415e-05,-5.613075390e-05,-1.244670325e-04,-1.805977864e-04,1.187959341e-03,1.528245756e-04,1.340783917e-03,1.612043539e-03,7.595204756e-05,1.687995587e-03,1.587773917e-03,2.182947627e-04,1.806068680e-03,1.770241862e-03,4.673961059e-05,1.816981472e-03,1.376122189e-03,-5.914500233e-05,1.316977186e-03,1.390425794e-03,-4.661420485e-05,1.343811589e-03,6.550195498e-04,-1.814794926e-04,4.735400572e-04,6.549902299e-04,-1.183546015e-04,5.366356284e-04,5.433340092e-04,-4.170425596e-05,5.016297532e-04,2.190417400e-05,-9.911522869e-06,1.199265113e-05,5.858757873e-04,2.205716775e-05,6.079329550e-04,3.546459227e-04,-7.930046467e-05,2.753454581e-04,6.278824270e-04,1.564758342e-04,7.843582612e-04,1.456751323e-03,6.232744853e-05,1.519078772e-03,1.959860064e-03,2.955808090e-04,2.255440873e-03,1.017195072e-03,-8.091426265e-05,9.362808096e-04,8.488584854e-04,2.989978137e-04,1.147856299e-03,1.196551715e-03,9.354473412e-06,1.205906188e-03,1.173190242e-03,-1.631585530e-04,1.010031689e-03,1.114511971e-03,-2.856014552e-05,1.085951826e-03,1.025548471e-03,-4.937768795e-05,9.761707827e-04,7.327712309e-04,6.278949438e-05,7.955607253e-04,8.562148887e-04,5.709819825e-05,9.133130869e-04,9.522496433e-04,2.149980285e-05,9.737494461e-04,8.593420016e-04,-1.794146280e-04,6.799273736e-04
-9,-1.952897555e-04,2.504749339e-04,5.518517840e-05,1.227250054e-03,3.001348147e-04,1.527384868e-03,5.320818346e-05,-2.297093096e-05,3.023725250e-05,4.758853987e-04,8.289866366e-05,5.587840624e-04,6.276551772e-04,-4.698855673e-05,5.806666204e-04,9.750178930e-04,-1.046626980e-05,9.645516232e-04,1.309841561e-03,2.186144954e-06,1.312027706e-03,7.912045516e-04,-9.891138291e-05,6.922931687e-04,8.230758730e-04,3.312668682e-05,8.562025599e-04,-1.429106346e-04,-6.999429017e-05,-2.129049248e-04,-1.572593947e-04,-1.245891894e-04,-2.818485841e-04,1.163097051e-03,1.443866223e-04,1.307483673e-03,1.569418704e-03,8.973299416e-05,1.659151698e-03,1.528835412e-03,2.098439313e-04,1.738679343e-03,1.741311464e-03,4.090005709e-05,1.782211521e-03,1.310465653e-03,-6.416938812e-05,1.246296264e-03,1.320590261e-03,-5.128200903e-05,1.269308252e-03,5.944379002e-04,-1.829303588e-04,4.115075414e-04,5.911745087e-04,-1.219759991e-04,4.691985097e-04,4.400785032e-04,-4.302771987e-05,3.970507834e-04,-3.114857614e-05,-1.301606225e-05,-4.416463839e-05,5.202176061e-04,8.822030890e-06,5.290396370e-04,3.687329987e-04,-7.965131410e-05,2.890816846e-04,6.279964713e-04,1.484100241e-04,7.764064955e-04,1.369640351e-03,5.407697855e-05,1.423717329e-03,1.894024025e-03,2.807776304e-04,2.174801655e-03,9.207652901e-04,-7.713375714e-05,8.436315330e-04,8.095902667e-04,2.919750986e-04,1.101565365e-03,1.164093506e-03,-4.653556056e-07,1.163628150e-03,1.107233875e-03,-1.670989650e-04,9.401349100e-04,1.068946592e-03,-3.399692939e-05,1.034949662e-03,9.578346052e-04,-5.726116844e-05,9.005734368e-04,6.469089091e-04,6.468361698e-05,7.115925261e-04,7.609898628e-04,4.367502965e-05,8.046648924e-04,8.707198719e-04,2.039543443e-05,8.911153064e-04,7.684527503e-04,-1.791889096e-04,5.892638407e-04
-8.9,-2.250398452e-04,2.405534643e-04,1.551361909e-05,1.098537082e-03,2.705798677e-04,1.369116950e-03,5.201032004e-05,-2.498870222e-05,2.702161783e-05,4.187012271e-04,7.533178413e-05,4.940330112e-04,5.807176381e-04,-4.811460333e-05,5.326030348e-04,8.870516705e-04,-1.864625819e-05,8.684054123e-04,1.224469495e-03,-9.375671464e-07,1.223531928e-03,6.874892708e-04,-1.017606171e-04,5.857286537e-04,7.147288140e-04,2.383923045e-05,7.385680445e-04,-2.605128788e-04,-7.088305959e-05,-3.313959384e-04,-2.536767087e-04,-1.242211683e-04,-3.778978770e-04,1.135021523e-03,1.357362816e-04,1.270757804e-03,1.522508724e-03,1.019836470e-04,1.624492371e-03,1.465340720e-03,2.008690473e-04,1.666209767e-03,1.705476113e-03,3.485006019e-05,1.740326173e-03,1.242771225e-03,-6.942558285e-05,1.173345643e-03,1.248036166e-03,-5.585161979e-05,1.192184546e-03,5.331556869e-04,-1.841581979e-04,3.489974890e-04,5.263278325e-04,-1.250835858e-04,4.012442467e-04,3.370311853e-04,-4.419159648e-05,2.928395888e-04,-7.747970291e-05,-1.624282762e-05,-9.372253053e-05,4.553511072e-04,-4.648158809e-06,4.507029484e-04,3.861711585e-04,-7.970476082e-05,3.064663977e-04,6.258268083e-04,1.400965239e-04,7.659233321e-04,1.280958443e-03,4.595002677e-05,1.326908469e-03,1.822804203e-03,2.660314759e-04,2.088835678e-03,8.199761407e-04,-7.204104583e-05,7.479350949e-04,7.693087182e-04,2.825485286e-04,1.051857247e-03,1.128681724e-03,-1.002159853e-05,1.118660126e-03,1.040697086e-03,-1.704700883e-04,8.702269981e-04,1.021035126e-03,-3.956261914e-05,9.814725064e-04,8.886515800e-04,-6.486022790e-05,8.237913521e-04,5.605166296e-04,6.607886954e-05,6.265954992e-04,6.630480221e-04,3.004873820e-05,6.930967603e-04,7.872363843e-04,1.899327973e-05,8.062296640e-04,6.761190284e-04,-1.777835778e-04,4.983354506e-04
-8.8,-2.546702906e-04,2.301426155e-04,-2.452767515e-05,9.697532069e-04,2.409744143e-04,1.210727621e-03,5.086586052e-05,-2.738259221e-05,2.348326831e-05,3.631333177e-04,6.744123189e-05,4.305745496e-04,5.350454819e-04,-4.923921937e-05,4.858062625e-04,7.992952256e-04,-2.671280924e-05,7.725824163e-04,1.135931687e-03,-3.983246330e-06,1.131948440e-03,5.829568635e-04,-1.043480140e-04,4.786088496e-04,6.032332047e-04,1.483135467e-05,6.180645594e-04,-3.758018981e-04,-7.138971416e-05,-4.471916123e-04,-3.449747241e-04,-1.233770791e-04,-4.683518032e-04,1.103835624e-03,1.269416329e-04,1.230777257e-03,1.471503874e-03,1.126056825e-04,1.584109556e-03,1.397588989e-03,1.913790909e-04,1.588968080e-03,1.662886557e-03,2.863700371e-05,1.691523561e-03,1.173308084e-03,-7.486495406e-05,1.098443130e-03,1.173128664e-03,-6.029547794e-05,1.112833186e-03,4.715027258e-04,-1.851036868e-04,2.863990390e-04,4.608490494e-04,-1.276640408e-04,3.331850086e-04,2.347698821e-04,-4.521838796e-05,1.895514942e-04,-1.170188663e-04,-1.957157013e-05,-1.365904365e-04,3.915719598e-04,-1.827063183e-05,3.733013280e-04,4.067511094e-04,-7.946219023e-05,3.272889192e-04,6.214341134e-04,1.315663023e-04,7.530004157e-04,1.191233111e-03,3.792305706e-05,1.229156168e-03,1.746563140e-03,2.513605151e-04,1.997923655e-03,7.155110993e-04,-6.574490905e-05,6.497661902e-04,7.281568350e-04,2.707831273e-04,9.989399624e-04,1.090456626e-03,-1.924876231e-05,1.071207863e-03,9.740057272e-04,-1.733546850e-04,8.006510422e-04,9.710447436e-04,-4.524591299e-05,9.257988307e-04,8.183333988e-04,-7.212486593e-05,7.462085329e-04,4.741186064e-04,6.692542498e-05,5.410440314e-04,5.630157518e-04,1.632299354e-05,5.793387453e-04,7.022760360e-04,1.726184572e-05,7.195378817e-04,5.828353768e-04,-1.752005166e-04,4.076348603e-04
-8.7,-2.839171805e-04,2.192702263e-04,-6.464695413e-05,8.415893608e-04,2.114499503e-04,1.053039311e-03,4.980312675e-05,-3.012008070e-05,1.968304605e-05,3.094469108e-04,5.926770510e-05,3.687146159e-04,4.907813264e-04,-5.035551210e-05,4.404258143e-04,7.121776825e-04,-3.462536080e-05,6.775523217e-04,1.044606870e-03,-6.946063097e-06,1.037660807e-03,4.781648869e-04,-1.066554512e-04,3.715094358e-04,4.891850039e-04,6.132581253e-06,4.953175852e-04,-4.881948982e-04,-7.151801442e-05,-5.597129126e-04,-4.307996329e-04,-1.220738185e-04,-5.528734514e-04,1.069650243e-03,1.180722022e-04,1.187722445e-03,1.416587730e-03,1.215325804e-04,1.538120310e-03,1.325895080e-03,1.813877228e-04,1.507282803e-03,1.613727526e-03,2.230827746e-05,1.636035804e-03,1.102344095e-03,-8.043578626e-05,1.021908309e-03,1.096228455e-03,-6.458450411e-05,1.031643951e-03,4.098096315e-04,-1.857009634e-04,2.241086681e-04,3.951232559e-04,-1.297027404e-04,2.654205156e-04,1.338495554e-04,-4.612908245e-05,8.772047293e-05,-1.497655915e-04,-2.298147654e-05,-1.727470680e-04,3.291528836e-04,-3.196311511e-05,2.971897685e-04,4.302258900e-04,-7.892854604e-05,3.512973440e-04,6.148864970e-04,1.228504595e-04,7.377369565e-04,1.100972316e-03,2.997128791e-05,1.130943604e-03,1.665671321e-03,2.367846908e-04,1.902456012e-03,6.080750628e-04,-5.837753571e-05,5.496975270e-04,6.862456469e-04,2.567831308e-04,9.430287777e-04,1.049564956e-03,-2.808534436e-05,1.021479612e-03,9.075624609e-04,-1.758377190e-04,7.317247418e-04,9.192381502e-04,-5.102935060e-05,8.682087996e-04,7.472089178e-04,-7.901001900e-05,6.681988988e-04,3.882136718e-04,6.718257974e-05,4.553962515e-04,4.615216047e-04,2.607510562e-06,4.641291152e-04,6.163081251e-04,1.518160146e-05,6.314897265e-04,4.890986307e-04,-1.714615070e-04,3.176371237e-04
-8.6,-3.125250630e-04,2.079686039e-04,-1.045564591e-04,7.147131230e-04,1.821331400e-04,8.968462630e-04,4.884632951e-05,-3.316430349e-05,1.568202601e-05,2.578750225e-04,5.085232663e-05,3.087273492e-04,4.480471754e-04,-5.145576956e-05,3.965914058e-04,6.261100571e-04,-4.234547366e-05,5.837645835e-04,9.508817921e-04,-9.820966711e-06,9.410608254e-04,3.736569094e-04,-1.086664121e-04,2.649904973e-04,3.731830410e-04,-2.230865772e-06,3.709521752e-04,-5.971435616e-04,-7.127403933e-05,-6.684176009e-04,-5.108515653e-04,-1.203307499e-04,-6.311823152e-04,1.032588559e-03,1.091963906e-04,1.141784950e-03,1.357944056e-03,1.287305121e-04,1.486674568e-03,1.250589759e-03,1.709133770e-04,1.421503136e-03,1.558219771e-03,1.591087100e-05,1.574130642e-03,1.030148169e-03,-8.608366954e-05,9.440644998e-04,1.017692951e-03,-6.868831858e-05,9.490046325e-04,3.484075816e-04,-1.858791151e-04,1.625284665e-04,3.295219057e-04,-1.311841867e-04,1.983377190e-04,3.479872700e-05,-4.694184836e-05,-1.214312136e-05,-1.757867328e-04,-2.645139296e-05,-2.022381257e-04,2.683421133e-04,-4.564400767e-05,2.226981056e-04,4.563136952e-04,-7.811217171e-05,3.782015235e-04,6.062586053e-04,1.139803050e-04,7.202389103e-04,1.010663223e-03,2.206997764e-05,1.032733201e-03,1.580508725e-03,2.223262238e-04,1.802834948e-03,4.983933317e-04,-5.009428831e-05,4.482990433e-04,6.436573242e-04,2.406920799e-04,8.843494041e-04,1.006161136e-03,-3.647562754e-05,9.696855085e-04,8.417414479e-04,-1.780024734e-04,6.637389745e-04,8.658728535e-04,-5.688923712e-05,8.089836164e-04,6.756025148e-04,-8.547623631e-05,5.901262785e-04,3.032742400e-04,6.681991197e-05,3.700941519e-04,3.591877666e-04,-1.097873950e-05,3.482090271e-04,5.297926445e-04,1.274633326e-05,5.425389778e-04,3.954073373e-04,-1.666092636e-04,2.287980737e-04
-8.5,-3.402458926e-04,1.962748426e-04,-1.439710500e-04,5.897627265e-04,1.531452449e-04,7.429079714e-04,4.801552162e-05,-3.647429647e-05,1.154122515e-05,2.086170881e-04,4.223649373e-05,2.508535818e-04,4.069443146e-04,-5.253151625e-05,3.544127984e-04,5.414815291e-04,-4.983690447e-05,4.916446246e-04,8.551486185e-04,-1.260266496e-05,8.425459536e-04,2.699576573e-04,-1.103657910e-04,1.595918663e-04,2.558252968e-04,-1.023600381e-05,2.455892930e-04,-7.021372815e-04,-7.066611027e-05,-7.728033918e-04,-5.848857709e-04,-1.181693427e-04,-7.030551136e-04,9.927857556e-04,1.003790632e-04,1.093164819e-03,1.295760275e-03,1.341971709e-04,1.429957445e-03,1.172014617e-03,1.599787420e-04,1.331993359e-03,1.496616946e-03,9.490956148e-06,1.506107902e-03,9.569880572e-04,-9.175213272e-05,8.652359245e-04,9.378737077e-04,-7.257566574e-05,8.652980420e-04,2.876241602e-04,-1.855637955e-04,1.020603647e-04,2.644012101e-04,-1.320927583e-04,1.323084518e-04,-6.188589456e-05,-4.767072806e-05,-1.095566226e-04,-1.952157340e-04,-2.996003887e-05,-2.251757729e-04,2.093597860e-04,-5.923259932e-05,1.501271867e-04,4.846987035e-04,-7.702460751e-05,4.076740960e-04,5.956280611e-04,1.049874803e-04,7.006155415e-04,9.207665205e-04,1.419535769e-05,9.349618782e-04,1.491459686e-03,2.080093523e-04,1.699469038e-03,3.872054260e-04,-4.107205556e-05,3.461333704e-04,6.004461655e-04,2.226911503e-04,8.231373158e-04,9.604053643e-04,-4.437118955e-05,9.160341748e-04,7.768805213e-04,-1.799271203e-04,5.969534010e-04,8.111984050e-04,-6.279629828e-05,7.484021067e-04,6.038319906e-04,-9.149005417e-05,5.123419364e-04,2.197431566e-04,6.581795968e-05,2.855611162e-04,2.566160589e-04,-2.430427644e-05,2.323117825e-04,4.431755648e-04,9.964049860e-06,4.531396147e-04,3.022577013e-04,-1.607074892e-04,1.415502121e-04
-8.4,-3.668393747e-04,1.842309751e-04,-1.826083996e-04,4.673405323e-04,1.246017357e-04,5.919422681e-04,4.732449211e-05,-4.000539112e-05,7.319100984e-06,1.618363639e-04,3.346166633e-05,1.952980302e-04,3.675511762e-04,-5.357360705e-05,3.139775691e-04,4.586541549e-04,-5.706550593e-05,4.015886489e-04,7.577997424e-04,-1.528569616e-05,7.425140462e-04,1.675662758e-04,-1.117395362e-04,5.582673958e-05,1.377032064e-04,-1.786295829e-05,1.198402481e-04,-8.027079639e-04,-6.970451727e-05,-8.724124811e-04,-6.527150177e-04,-1.156127360e-04,-7.683277537e-04,9.503854918e-04,9.167959548e-05,1.042065087e-03,1.230227344e-03,1.379594699e-04,1.368186814e-03,1.090514000e-03,1.486099432e-04,1.239123943e-03,1.429199100e-03,3.093521048e-06,1.432292621e-03,8.831248702e-04,-9.738356023e-05,7.857413099e-04,8.571111315e-04,-7.621509874e-05,7.808960327e-04,2.277763935e-04,-1.846792948e-04,4.309709872e-05,2.000988855e-04,-1.324137114e-04,6.768517404e-05,-1.557457614e-04,-4.832461334e-05,-2.040703747e-04,-2.082531748e-04,-3.348619316e-05,-2.417393680e-04,1.523929571e-04,-7.264929310e-05,7.974366400e-05,5.150305351e-04,-7.568036696e-05,4.393501682e-04,5.830700618e-04,9.590411120e-05,6.789741730e-04,8.317076224e-04,6.325495651e-06,8.380331181e-04,1.398903285e-03,1.938594768e-04,1.592762762e-03,2.752549528e-04,-3.150639600e-05,2.437485568e-04,5.566377830e-04,2.029959698e-04,7.596337528e-04,9.124598747e-04,-5.173206538e-05,8.607278093e-04,7.132721777e-04,-1.816816814e-04,5.315904963e-04,7.554523788e-04,-6.871674011e-05,6.867356387e-04,5.322045718e-04,-9.702420751e-05,4.351803643e-04,1.380290561e-04,6.416856105e-05,2.021976172e-04,1.543716868e-04,-3.722259695e-05,1.171490899e-04,3.568817364e-04,6.857258836e-06,3.637389952e-04,2.101364888e-04,-1.538393835e-04,5.629710523e-05
-8.3,-3.920743872e-04,1.718839778e-04,-2.201904094e-04,3.480066371e-04,9.661191488e-05,4.446185520e-04,4.677749904e-05,-4.370972890e-05,3.067770141e-06,1.176569854e-04,2.456912843e-05,1.422261138e-04,3.299202310e-04,-5.457230120e-05,2.753479298e-04,3.779569392e-04,-6.399892029e-05,3.139580189e-04,6.592215113e-04,-1.786450085e-05,6.413570105e-04,6.694900447e-05,-1.127743431e-04,-4.582533859e-05,1.939513931e-05,-2.509476565e-05,-5.699626340e-06,-8.984353976e-04,-6.840109785e-05,-9.668364955e-04,-7.142124643e-04,-1.126852533e-04,-8.268977177e-04,9.055352604e-04,8.315044942e-05,9.886857098e-04,1.161536139e-03,1.400711753e-04,1.301607314e-03,1.006426830e-03,1.368357369e-04,1.143262567e-03,1.356265324e-03,-3.237951751e-06,1.353027373e-03,8.088062130e-04,-1.029201191e-04,7.058860939e-04,7.757281136e-04,-7.957582050e-05,6.961522931e-04,1.691623131e-04,-1.831510693e-04,-1.398875616e-05,1.369299400e-04,-1.321343497e-04,4.795590319e-06,-2.463666830e-04,-4.890671654e-05,-2.952733995e-04,-2.151674606e-04,-3.700892468e-05,-2.521763853e-04,9.759049560e-05,-8.581585518e-05,1.177464042e-05,5.469235232e-04,-7.409669575e-05,4.728268274e-04,5.686516655e-04,8.676287861e-05,6.554145442e-04,7.438668054e-04,-1.558562459e-06,7.423082429e-04,1.303202626e-03,1.799020643e-04,1.483104691e-03,1.632777130e-04,-2.160764004e-05,1.416700729e-04,5.122273394e-04,1.818523768e-04,6.940797162e-04,8.624850079e-04,-5.852759821e-05,8.039574097e-04,6.511557136e-04,-1.833254766e-04,4.678302370e-04,6.988561303e-04,-7.461330362e-05,6.242428267e-04,4.610123712e-04,-1.020578756e-04,3.589544956e-04,5.850134749e-05,6.187490167e-05,1.203762492e-04,5.296851860e-05,-4.957115014e-05,3.397368458e-06,2.713070027e-04,3.462683950e-06,2.747696867e-04,1.195125622e-04,-1.461049296e-04,-2.659236737e-05
-8.2,-4.157308945e-04,1.592856997e-04,-2.564451948e-04,2.322733069e-04,6.927848370e-05,3.015517906e-04,4.636606118e-05,-4.753686347e-05,-1.170802292e-06,7.616177280e-05,1.559975643e-05,9.176152923e-05,2.940753117e-04,-5.551727312e-05,2.385580386e-04,2.996806258e-04,-7.060619097e-05,2.290744349e-04,5.597887596e-04,-2.033343893e-05,5.394553207e-04,-3.146702473e-05,-1.134576248e-04,-1.449246495e-04,-9.853943474e-05,-3.191717418e-05,-1.304566089e-04,-9.889517832e-04,-6.676881059e-05,-1.055720594e-03,-7.693138234e-04,-1.094119533e-04,-8.787257767e-04,8.583829442e-04,7.483626978e-05,9.332192139e-04,1.089872178e-03,1.406105932e-04,1.230482771e-03,9.200813332e-04,1.246870383e-04,1.044768371e-03,1.278128267e-03,-9.461816636e-06,1.268666451e-03,7.342601011e-04,-1.083043289e-04,6.259557721e-04,6.940245033e-04,-8.262853016e-05,6.113959731e-04,1.120524419e-04,-1.809083723e-04,-6.885593041e-05,7.518258910e-05,-1.312452072e-04,-5.606261814e-05,-3.333836623e-04,-4.941448680e-05,-3.827981491e-04,-2.162941476e-04,-4.050785982e-05,-2.568020074e-04,4.505936790e-05,-9.865560803e-05,-5.359624013e-05,5.799573295e-04,-7.229326053e-05,5.076640690e-04,5.524276687e-04,7.759691832e-05,6.300245870e-04,6.575708314e-04,-9.471249992e-06,6.480995814e-04,1.204696801e-03,1.661617624e-04,1.370858563e-03,5.198994751e-05,-1.159597236e-05,4.039397516e-05,4.671789739e-04,1.595312271e-04,6.267102011e-04,8.106368019e-04,-6.473692812e-05,7.458998738e-04,5.907129388e-04,-1.849051527e-04,4.058077861e-04,6.416116640e-04,-8.044602186e-05,5.611656422e-04,3.905286521e-04,-1.065768968e-04,2.839517554e-04,-1.851342654e-05,5.895106640e-05,4.043763986e-05,-4.714062139e-05,-6.117260899e-05,-1.083132304e-04,1.868117066e-04,-1.694580666e-07,1.866422485e-04,3.082948232e-05,-1.376178483e-04,-1.067883660e-04
-8.1,-4.376015160e-04,1.464927407e-04,-2.911087753e-04,1.206007795e-04,4.269710366e-05,1.632978832e-04,4.606711684e-05,-5.143443019e-05,-5.367313350e-06,3.739188463e-05,6.593791770e-06,4.398567640e-05,2.600108699e-04,-5.639758309e-05,2.036132868e-04,2.240747335e-04,-7.685747177e-05,1.472172617e-04,4.598621360e-04,-2.268676072e-05,4.371753753e-04,-1.272972282e-04,-1.137778535e-04,-2.410750817e-04,-2.155635114e-04,-3.831849364e-05,-2.538820050e-04,-1.073943946e-03,-6.482143816e-05,-1.138765384e-03,-8.180174390e-04,-1.058182723e-04,-9.238357113e-04,8.090765931e-04,6.677351544e-05,8.758501085e-04,1.015413034e-03,1.396776059e-04,1.155090640e-03,8.317952034e-04,1.121970369e-04,9.439922403e-04,1.195113012e-03,-1.553864266e-05,1.179574369e-03,6.596920886e-04,-1.134791354e-04,5.462129533e-04,6.122743426e-04,-8.534613822e-05,5.269282043e-04,5.668319607e-05,-1.778867100e-04,-1.212035139e-04,1.511559757e-05,-1.297411217e-04,-1.146255241e-04,-4.164831097e-04,-4.983983647e-05,-4.663229461e-04,-2.120323562e-04,-4.396334723e-05,-2.559957035e-04,-5.136300564e-06,-1.110933920e-04,-1.162296926e-04,6.136804498e-04,-7.029170816e-05,5.433887416e-04,5.344397714e-04,6.843958566e-05,6.028793571e-04,5.730890539e-04,-1.742073549e-05,5.556683184e-04,1.103699008e-03,1.526621583e-04,1.256361167e-03,-5.792192065e-05,-1.695432342e-06,-5.961735300e-05,4.214291800e-04,1.363220999e-04,5.577512798e-04,7.570676360e-04,-7.034901033e-05,6.867186256e-04,5.320690672e-04,-1.864531183e-04,3.456159489e-04,5.839010134e-04,-8.617251328e-05,4.977285001e-04,3.210061756e-04,-1.105737094e-04,2.104324662e-04,-9.273180488e-05,5.542084676e-05,-3.731095812e-05,-1.455663122e-04,-7.183881184e-05,-2.174051240e-04,1.037175747e-04,-3.976515003e-06,9.974105974e-05,-5.549875379e-05,-1.285028066e-04,-1.840015604e-04
-8,-4.574918691e-04,1.335662187e-04,-3.239256504e-04,1.339481077e-05,1.695599304e-05,3.035080381e-05,4.584361940e-05,-5.534884847e-05,-9.505229070e-06,1.349143682e-06,-2.409399206e-06,-1.060255524e-06,2.276943040e-04,-5.720167445e-05,1.704926296e-04,1.513478098e-04,-8.272391590e-05,6.862389387e-05,3.597894234e-04,-2.491854933e-05,3.348708740e-04,-2.201993392e-04,-1.137251690e-04,-3.339245082e-04,-3.311629201e-04,-4.428949330e-05,-3.754524134e-04,-1.153152359e-03,-6.257347208e-05,-1.215725831e-03,-8.603812839e-04,-1.019297444e-04,-9.623110283e-04,7.577683730e-04,5.899062767e-05,8.167590007e-04,9.383320803e-04,1.373898607e-04,1.075721941e-03,7.418819050e-04,9.940192889e-05,8.412838339e-04,1.107561342e-03,-2.143162536e-05,1.086129716e-03,5.852874169e-04,-1.183876135e-04,4.668998034e-04,5.307272986e-04,-8.770423450e-05,4.430230641e-04,3.254339109e-06,-1.740302756e-04,-1.707759365e-04,-4.304193265e-05,-1.276221175e-04,-1.706640501e-04,-4.954016409e-04,-5.016965625e-05,-5.455712971e-04,-2.028373730e-04,-4.735640064e-05,-2.501937736e-04,-5.297267836e-05,-1.230553332e-04,-1.760280116e-04,6.476174040e-04,-6.811511106e-05,5.795022929e-04,5.147196954e-04,5.932418739e-05,5.740438827e-04,4.906363017e-04,-2.540732118e-05,4.652289806e-04,1.000503019e-03,1.394263764e-04,1.139929395e-03,-1.658088624e-04,7.873043657e-06,-1.579358187e-04,3.748957453e-04,1.125259516e-04,4.874216969e-04,7.019305556e-04,-7.536218926e-05,6.265683663e-04,4.752988755e-04,-1.879861657e-04,2.873127097e-04,5.258888032e-04,-9.174777146e-05,4.341410318e-04,2.526784699e-04,-1.140469151e-04,1.386315548e-04,-1.639091465e-04,5.131594158e-05,-1.125932049e-04,-2.419772414e-04,-8.137682370e-05,-3.233540651e-04,2.230888005e-05,-7.884667357e-06,1.442421269e-05,-1.390883497e-04,-1.188926987e-04,-2.579810484e-04
-7.9,-4.752193304e-04,1.205713505e-04,-3.546479799e-04,-8.899396499e-05,-7.864462232e-06,-9.685842722e-05,4.564780390e-05,-5.922599262e-05,-1.357818872e-05,-3.199899486e-05,-1.137155560e-05,-4.337055046e-05,1.970713309e-04,-5.791743806e-05,1.391538928e-04,8.167056280e-05,-8.817773595e-05,-6.507173149e-06,2.599101321e-04,-2.702264004e-05,2.328874921e-04,-3.098700859e-04,-1.132920008e-04,-4.231620866e-04,-4.448440823e-04,-4.982332218e-05,-4.946674045e-04,-1.226367433e-03,-6.004014032e-05,-1.286407573e-03,-8.965170097e-04,-9.777176091e-05,-9.942887706e-04,7.046215677e-04,5.150860191e-05,7.561301696e-04,8.588081284e-04,1.338786829e-04,9.926868114e-04,6.506604911e-04,8.634197739e-05,7.370024685e-04,1.015839524e-03,-2.710708021e-05,9.887324440e-04,5.112177679e-04,-1.229725144e-04,3.882452535e-04,4.496142804e-04,-8.968132783e-05,3.599329526e-04,-4.806871323e-05,-1.692946267e-04,-2.173633399e-04,-9.908825519e-05,-1.248939682e-04,-2.239822234e-04,-5.699219075e-04,-5.038669836e-05,-6.203086058e-04,-1.892100217e-04,-5.066848167e-05,-2.398785034e-04,-9.846075593e-05,-1.344687860e-04,-2.329295419e-04,6.812788561e-04,-6.578739109e-05,6.154914650e-04,4.932951486e-04,5.028372324e-05,5.435788718e-04,4.103821447e-04,-3.342228181e-05,3.769598629e-04,8.953968364e-04,1.264782748e-04,1.021875111e-03,-2.710635542e-04,1.689910877e-05,-2.541644455e-04,3.274912729e-04,8.844710872e-05,4.159383817e-04,6.453859854e-04,-7.978350940e-05,5.656024760e-04,4.204362360e-04,-1.895043761e-04,2.309318600e-04,4.677271512e-04,-9.712365700e-05,3.706034942e-04,1.857636245e-04,-1.170006669e-04,6.876295767e-05,-2.318320356e-04,4.667404471e-05,-1.851579909e-04,-3.360893394e-04,-8.959599014e-05,-4.256853296e-04,-5.716281641e-05,-1.181041251e-05,-6.897322892e-05,-2.195841718e-04,-1.089253635e-04,-3.285095352e-04
-7.8,-4.906108062e-04,1.075768647e-04,-3.830339415e-04,-1.862692897e-04,-3.169209253e-05,-2.179613822e-04,4.542608471e-05,-6.301177885e-05,-1.758569414e-05,-6.271305852e-05,-2.025569207e-05,-8.296875059e-05,1.680728522e-04,-5.853233085e-05,1.095405213e-04,1.518026823e-05,-9.319242740e-05,-7.801215916e-05,1.605608281e-04,-2.899255690e-05,1.315682712e-04,-3.960407293e-04,-1.124735088e-04,-5.085142381e-04,-5.561311104e-04,-5.491544112e-05,-6.110465516e-04,-1.293424713e-03,-5.723748599e-05,-1.350662199e-03,-9.265823900e-04,-9.336937112e-05,-1.019951761e-03,6.498176639e-04,4.434161591e-05,6.941592799e-04,7.770368204e-04,1.292852402e-04,9.063220606e-04,5.584640579e-04,7.306237941e-05,6.315264373e-04,9.203456115e-04,-3.253515299e-05,8.878104585e-04,4.376495856e-04,-1.271759272e-04,3.104736585e-04,3.691552584e-04,-9.125903369e-05,2.778962247e-04,-9.714931930e-05,-1.636493673e-04,-2.607986866e-04,-1.528451757e-04,-1.215683372e-04,-2.744135129e-04,-6.398671450e-04,-5.047086037e-05,-6.903380053e-04,-1.716847925e-04,-5.388130180e-05,-2.255660943e-04,-1.416396372e-04,-1.452628480e-04,-2.869024852e-04,7.141725755e-04,-6.333280370e-05,6.508397718e-04,4.701962121e-04,4.135062236e-05,5.115468345e-04,3.324629629e-04,-4.144735969e-05,2.910156033e-04,7.886785173e-04,1.138436400e-04,9.025221573e-04,-3.731225021e-04,2.519058326e-05,-3.479319188e-04,2.791380853e-04,6.438507357e-05,3.435231589e-04,5.876079599e-04,-8.362785964e-05,5.039801003e-04,3.674838302e-04,-1.909905977e-04,1.764932325e-04,4.095608638e-04,-1.022484721e-04,3.073123917e-04,1.204687909e-04,-1.194441331e-04,1.024657756e-06,-2.963102042e-04,4.153712709e-05,-2.547730771e-04,-4.276528816e-04,-9.631514066e-05,-5.239680222e-04,-1.344722612e-04,-1.566250473e-05,-1.501347659e-04,-2.966584073e-04,-9.873935955e-05,-3.953977668e-04
-7.7,-5.035007445e-04,9.465435092e-05,-4.088463936e-04,-2.781879131e-04,-5.446324858e-05,-3.326511617e-04,4.512373669e-05,-6.665267654e-05,-2.152893986e-05,-9.087558480e-05,-2.902619054e-05,-1.199017753e-04,1.406210692e-04,-5.903352645e-05,8.158754280e-05,-4.801544786e-05,-9.774316642e-05,-1.457586143e-04,6.207842435e-05,-3.082154631e-05,3.125687804e-05,-4.784735339e-04,-1.112678679e-04,-5.897414018e-04,-6.645643086e-04,-5.956356337e-05,-7.241278720e-04,-1.354200869e-03,-5.418239805e-05,-1.408383267e-03,-9.507739232e-04,-8.874713258e-05,-1.039521056e-03,5.935603998e-04,3.749739143e-05,6.310577912e-04,6.932395353e-04,1.237569479e-04,8.169964832e-04,4.656427414e-04,5.961352826e-05,5.252562696e-04,8.215126380e-04,-3.769078893e-05,7.838218491e-04,3.647502698e-04,-1.309394559e-04,2.338108139e-04,2.895662625e-04,-9.242234884e-05,1.971439136e-04,-1.438739196e-04,-1.570800882e-04,-3.009540078e-04,-2.041542674e-04,-1.176625888e-04,-3.218168562e-04,-7.050964015e-04,-5.040072389e-05,-7.554971254e-04,-1.508189846e-04,-5.697673126e-05,-2.077957158e-04,-1.825704781e-04,-1.553695233e-04,-3.379400014e-04,7.458130522e-04,-6.077548900e-05,6.850375632e-04,4.454599474e-04,3.255647171e-05,4.780164191e-04,2.569922880e-04,-4.945499472e-05,2.075372933e-04,6.806679602e-04,1.015508212e-04,7.822187814e-04,-4.714680551e-04,3.258062461e-05,-4.388874305e-04,2.297810040e-04,4.062661681e-05,2.704076209e-04,5.287872268e-04,-8.691683715e-05,4.418703896e-04,3.164202805e-04,-1.924106403e-04,1.240096403e-04,3.515309574e-04,-1.070669155e-04,2.444640419e-04,5.699307220e-05,-1.213909377e-04,-6.439786545e-05,-3.571706727e-04,3.594974877e-05,-3.212209239e-04,-5.164409145e-04,-1.013695654e-04,-6.178104799e-04,-2.094146368e-04,-1.934457186e-05,-2.287592086e-04,-3.700111689e-04,-8.846913887e-05,-4.584803078e-04
-7.6,-5.137304822e-04,8.187762795e-05,-4.318528543e-04,-3.645582607e-04,-7.612290906e-05,-4.406811697e-04,4.468781476e-05,-7.009619318e-05,-2.540837842e-05,-1.165869220e-04,-3.764884474e-05,-1.542357667e-04,1.146332009e-04,-5.940811253e-05,5.522508840e-05,-1.078366454e-04,-1.018073652e-04,-2.096440105e-04,-3.520012629e-05,-3.250274297e-05,-6.770286926e-05,-5.569603703e-04,-1.096764293e-04,-6.666367996e-04,-7.697012122e-04,-6.376757326e-05,-8.334687854e-04,-1.408611605e-03,-5.089251096e-05,-1.459504116e-03,-9.693209420e-04,-8.392897223e-05,-1.053249914e-03,5.360750116e-04,3.097733509e-05,5.670523467e-04,6.076677410e-04,1.174436408e-04,7.251113818e-04,3.725599040e-04,4.605060834e-05,4.186105124e-04,7.198060832e-04,-4.255482311e-05,6.772512601e-04,2.926901850e-04,-1.342052937e-04,1.584848912e-04,2.110631839e-04,-9.315999408e-05,1.179031898e-04,-1.881487195e-04,-1.495889697e-04,-3.377376892e-04,-2.528743262e-04,-1.131994884e-04,-3.660738147e-04,-7.655017123e-04,-5.015508426e-05,-8.156567965e-04,-1.271843412e-04,-5.993674859e-05,-1.871210898e-04,-2.213323379e-04,-1.647252640e-04,-3.860576019e-04,7.757284282e-04,-5.813905860e-05,7.175893696e-04,4.191322890e-04,2.393172054e-05,4.430640095e-04,1.840665074e-04,-5.740911643e-05,1.266573910e-04,5.717111215e-04,8.963056352e-05,6.613416850e-04,-5.656313564e-04,3.893345824e-05,-5.266978981e-04,1.793955847e-04,1.743881970e-05,1.968344044e-04,4.691300977e-04,-8.967720621e-05,3.794528915e-04,2.672035258e-04,-1.937141250e-04,7.348940079e-05,2.937755880e-04,-1.115205606e-04,1.822550274e-04,-4.472757319e-06,-1.228582401e-04,-1.273309974e-04,-4.142555572e-04,2.995725164e-05,-3.842983056e-04,-6.022411065e-04,-1.046174614e-04,-7.068585680e-04,-2.818018844e-04,-2.275832778e-05,-3.045602122e-04,-4.393734349e-04,-7.824051483e-05,-5.176139497e-04
-7.5,-5.211493719e-04,6.932207896e-05,-4.518272929e-04,-4.452394798e-04,-9.662453294e-05,-5.418640127e-04,4.406774692e-05,-7.329137429e-05,-2.922362738e-05,-1.399631853e-04,-4.609089612e-05,-1.860540815e-04,9.002234695e-05,-5.964335652e-05,3.037899043e-05,-1.642311047e-04,-1.053653076e-04,-2.695964123e-04,-1.309418319e-04,-3.402941098e-05,-1.649712429e-04,-6.313237017e-04,-1.077036003e-04,-7.390273020e-04,-8.711202287e-04,-6.752937306e-05,-9.386496018e-04,-1.456611745e-03,-4.738593095e-05,-1.503997676e-03,-9.824818313e-04,-7.893798786e-05,-1.061419819e-03,4.776027046e-04,2.477677874e-05,5.023794834e-04,5.206021555e-04,1.104932817e-04,6.310954372e-04,2.795827211e-04,3.243268818e-05,3.120154093e-04,6.157159227e-04,-4.711500010e-05,5.686009226e-04,2.216404550e-04,-1.369182285e-04,8.472222657e-05,1.338615361e-04,-9.346474973e-05,4.039678641e-05,-2.298992218e-04,-1.411940975e-04,-3.710933192e-04,-2.988806598e-04,-1.082069657e-04,-4.070876254e-04,-8.210074460e-04,-4.971431097e-05,-8.707217570e-04,-1.013615678e-04,-6.274337650e-05,-1.641049443e-04,-2.580202565e-04,-1.732725584e-04,-4.312928150e-04,8.034644334e-04,-5.544622218e-05,7.480182112e-04,3.912674135e-04,1.550530742e-05,4.067727209e-04,1.137653478e-04,-6.526615755e-05,4.849919027e-05,4.621765856e-04,7.811504305e-05,5.402916286e-04,-6.551957032e-04,4.414738598e-05,-6.110483172e-04,1.279908473e-04,-4.936254249e-06,1.230545930e-04,4.088534550e-04,-9.193902922e-05,3.169144258e-04,2.197708371e-04,-1.948358875e-04,2.493494952e-05,2.364285271e-04,-1.155489025e-04,1.208796246e-04,-6.374973853e-05,-1.238654297e-04,-1.876151682e-04,-4.674239560e-04,2.360428782e-05,-4.438196681e-04,-6.848515940e-04,-1.059457442e-04,-7.907973382e-04,-3.514618745e-04,-2.580707256e-05,-3.772689471e-04,-5.045117521e-04,-6.816721048e-05,-5.726789626e-04
-7.4,-5.256174910e-04,5.706382451e-05,-4.685536665e-04,-5.201408898e-04,-1.159297077e-04,-6.360705975e-04,4.321393593e-05,-7.618933300e-05,-3.297539707e-05,-1.611359578e-04,-5.432106131e-05,-2.154570191e-04,6.669602684e-05,-5.972701196e-05,6.969014880e-06,-2.171757918e-04,-1.084007374e-04,-3.255765292e-04,-2.248243535e-04,-3.539517764e-05,-2.602195312e-04,-7.014194954e-04,-1.053562429e-04,-8.067757383e-04,-9.684261554e-04,-7.085264913e-05,-1.039278805e-03,-1.498197011e-03,-4.368082513e-05,-1.541877837e-03,-9.905422153e-04,-7.379617184e-05,-1.064338387e-03,4.183919177e-04,1.888552960e-05,4.372774473e-04,4.323464035e-04,1.030481252e-04,5.353945287e-04,1.870699062e-04,1.882148726e-05,2.058913935e-04,5.097450357e-04,-5.136675488e-05,4.583782808e-04,1.517675932e-04,-1.390280911e-04,1.273950215e-05,5.817274819e-05,-9.333374512e-05,-3.516099693e-05,-2.690716480e-04,-1.319280243e-04,-4.009996723e-04,-3.420662259e-04,-1.027179871e-04,-4.447842130e-04,-8.715712627e-04,-4.906152734e-05,-9.206327900e-04,-7.393717446e-05,-6.537868029e-05,-1.393158548e-04,-2.927449512e-04,-1.809614395e-04,-4.737063906e-04,8.285859175e-04,-5.271848860e-05,7.758674289e-04,3.619253756e-04,7.304222398e-06,3.692295980e-04,4.614832208e-05,-7.297603447e-05,-2.682771240e-05,3.524467186e-04,6.703620172e-05,4.194829203e-04,-7.397996212e-04,4.815467468e-05,-6.916449465e-04,7.560719571e-05,-2.628516515e-05,4.932203056e-05,3.481773283e-04,-9.373369716e-05,2.544436312e-04,1.740370223e-04,-1.956978684e-04,-2.166084610e-05,1.796159955e-04,-1.190909314e-04,6.052506415e-05,-1.206760885e-04,-1.244328041e-04,-2.451088926e-04,-5.165573931e-04,1.693437745e-05,-4.996230157e-04,-7.640801640e-04,-1.052756121e-04,-8.693557761e-04,-4.182399887e-04,-2.839917669e-05,-4.466391654e-04,-5.652338266e-04,-5.834868385e-05,-6.235825105e-04
-7.3,-5.270094012e-04,4.517868751e-05,-4.818307137e-04,-5.892215779e-04,-1.340077105e-04,-7.232292884e-04,4.207524503e-05,-7.874380136e-05,-3.666855633e-05,-1.802528734e-04,-6.230951617e-05,-2.425623896e-04,4.455351587e-05,-5.964759550e-05,-1.509407963e-05,-2.666788247e-04,-1.109012770e-04,-3.775801016e-04,-3.165436993e-04,-3.659422509e-05,-3.531379244e-04,-7.671410478e-04,-1.026425813e-04,-8.697836291e-04,-1.061256331e-03,-7.374261915e-05,-1.134998950e-03,-1.533406434e-03,-3.979499592e-05,-1.573201430e-03,-9.938143524e-04,-6.852413223e-05,-1.062338485e-03,3.586888283e-04,1.328868379e-05,3.719775121e-04,3.432158849e-04,9.524280432e-05,4.384586893e-04,9.535983855e-05,5.279974117e-06,1.006398127e-04,4.023966444e-04,-5.531355142e-05,3.470830929e-04,8.322658014e-05,-1.404918934e-04,-5.726531328e-05,-1.580148916e-05,-9.276864636e-05,-1.085701355e-04,-3.056349614e-04,-1.218361069e-04,-4.274710684e-04,-3.823441196e-04,-9.677046116e-05,-4.791145808e-04,-9.171857569e-04,-4.818357719e-05,-9.653693341e-04,-4.550144046e-05,-6.782491343e-05,-1.133263539e-04,-3.256330160e-04,-1.877508868e-04,-5.133839028e-04,8.506772254e-04,-4.997594146e-05,8.007012839e-04,3.311691952e-04,-6.468857309e-07,3.305223095e-04,-1.875049797e-05,-8.048309087e-05,-9.923358885e-05,2.429068037e-04,5.642356178e-05,2.993303655e-04,-8.191396552e-04,5.091922714e-05,-7.682204281e-04,2.231156882e-05,-4.642547773e-05,-2.411390891e-05,2.873169812e-04,-9.509204755e-05,1.922249337e-04,1.298930632e-04,-1.962115802e-04,-6.631851705e-05,1.234531251e-04,-1.220871389e-04,1.365986196e-06,-1.751126761e-04,-1.245805058e-04,-2.996931819e-04,-5.615670925e-04,9.990555391e-06,-5.515765371e-04,-8.397453465e-04,-1.025682068e-04,-9.423135533e-04,-4.820019444e-04,-3.045141023e-05,-5.124533546e-04,-6.213938335e-04,-4.886905334e-05,-6.702628869e-04
-7.2,-5.252183296e-04,3.374102568e-05,-4.914773039e-04,-6.524896541e-04,-1.508350768e-04,-8.033247308e-04,4.059649872e-05,-8.091168779e-05,-4.031518907e-05,-1.974779863e-04,-7.002782108e-05,-2.675058074e-04,2.348342223e-05,-5.939458635e-05,-3.591116413e-05,-3.127807725e-04,-1.128586451e-04,-4.256394176e-04,-4.058208404e-04,-3.762144233e-05,-4.434422827e-04,-8.284221852e-04,-9.957089351e-05,-9.279930787e-04,-1.149285848e-03,-7.620584320e-05,-1.225491691e-03,-1.562323957e-03,-3.574559200e-05,-1.598069549e-03,-9.926364869e-04,-6.314091190e-05,-1.055777399e-03,2.987296941e-04,7.967550607e-06,3.066972447e-04,2.535250833e-04,8.720458806e-05,3.407296714e-04,4.762317742e-06,-8.128990168e-06,-3.366672426e-06,2.941637805e-04,-5.896654539e-05,2.351972351e-04,1.615469126e-05,-1.412751612e-04,-1.251204700e-04,-8.787478609e-05,-9.177562640e-05,-1.796504125e-04,-3.395820820e-04,-1.109749737e-04,-4.505570558e-04,-4.196504144e-04,-9.040704635e-05,-5.100574607e-04,-9.578796176e-04,-4.707170414e-05,-1.004951322e-03,-1.664593958e-05,-7.006474495e-05,-8.671068453e-05,-3.568264304e-04,-1.936099097e-04,-5.504363402e-04,8.693430514e-04,-4.723703081e-05,8.221060206e-04,2.990629549e-04,-8.325984278e-06,2.907369706e-04,-8.092639732e-05,-8.772715468e-05,-1.686535520e-04,1.339359952e-04,4.630184872e-05,1.802378439e-04,-8.929725485e-04,5.243316285e-05,-8.405393857e-04,-3.180773475e-05,-6.520728600e-05,-9.701502075e-05,2.264766628e-04,-9.604263380e-05,1.304340290e-04,8.720756048e-05,-1.962813409e-04,-1.090737804e-04,6.804159149e-05,-1.244817619e-04,-5.644017039e-05,-2.269471070e-04,-1.243276326e-04,-3.512747396e-04,-6.024004746e-04,2.816523411e-06,-5.995839512e-04,-9.116771851e-04,-9.783001270e-05,-1.009507198e-03,-5.426363465e-04,-3.189213863e-05,-5.745284852e-04,-6.728958889e-04,-3.979685554e-05,-7.126927444e-04
-7.1,-5.201600636e-04,2.282250662e-05,-4.973375570e-04,-7.100005049e-04,-1.663952288e-04,-8.763957337e-04,3.871723733e-05,-8.265363959e-05,-4.393640227e-05,-2.129907079e-04,-7.744882702e-05,-2.904395350e-04,3.363125354e-06,-5.895855752e-05,-5.559543217e-05,-3.555538542e-04,-1.142687276e-04,-4.698225818e-04,-4.924049833e-04,-3.847252327e-05,-5.308775065e-04,-8.852378974e-04,-9.614842748e-05,-9.813863249e-04,-1.232230123e-03,-7.825012413e-05,-1.310480247e-03,-1.585077627e-03,-3.154904489e-05,-1.616626672e-03,-9.873706163e-04,-5.766394114e-05,-1.045034557e-03,2.387372871e-04,2.900667037e-06,2.416379541e-04,1.635787149e-04,7.905456103e-05,2.426332759e-04,-8.444315157e-05,-2.134363946e-05,-1.057867910e-04,1.855235962e-04,-6.234341467e-05,1.231801815e-04,-4.933111841e-05,-1.413524239e-04,-1.906835423e-04,-1.578792868e-04,-9.036501269e-05,-2.482442995e-04,-3.709285799e-04,-9.941143192e-05,-4.703400118e-04,-4.539460037e-04,-8.367480605e-05,-5.376208097e-04,-9.937168141e-04,-4.572198480e-05,-1.039438799e-03,1.204112227e-05,-7.208141669e-05,-6.004029442e-05,-3.864800820e-04,-1.985179896e-04,-5.849980716e-04,8.842114496e-04,-4.451832490e-05,8.396931247e-04,2.656724398e-04,-1.571382782e-05,2.499586120e-04,-1.404036036e-04,-9.464467740e-05,-2.350482810e-04,2.590387868e-05,3.668890722e-05,6.259278589e-05,-9.611151506e-04,5.271278591e-05,-9.084023646e-04,-8.664431621e-05,-8.251378019e-05,-1.691580964e-04,1.658470568e-04,-9.661018803e-05,6.923686877e-05,4.583279717e-05,-1.958082091e-04,-1.499754119e-04,1.346984791e-05,-1.262248416e-04,-1.127549936e-04,-2.760950169e-04,-1.236914146e-04,-3.997864315e-04,-6.390442670e-04,-4.542186499e-06,-6.435864535e-04,-9.797147698e-04,-9.111713998e-05,-1.070831910e-03,-6.000552477e-04,-3.266428977e-05,-6.327195375e-04,-7.196941646e-04,-3.118517555e-05,-7.508793402e-04
-7,-5.117757683e-04,1.249083883e-05,-4.992849295e-04,-7.618533348e-04,-1.806782412e-04,-9.425315759e-04,3.637283097e-05,-8.393462574e-05,-4.756179477e-05,-2.269822528e-04,-8.454661854e-05,-3.115288714e-04,-1.593852025e-05,-5.833127369e-05,-7.426979394e-05,-3.950978061e-04,-1.151315490e-04,-5.102293550e-04,-5.760717616e-04,-3.914397002e-05,-6.152157317e-04,-9.376008362e-04,-9.238082539e-05,-1.029981662e-03,-1.309843566e-03,-7.988446357e-05,-1.389728029e-03,-1.601835102e-03,-2.722121545e-05,-1.629056317e-03,-9.783973185e-04,-5.210909319e-05,-1.030506412e-03,1.789226723e-04,-1.934938090e-06,1.769877342e-04,7.367170306e-05,7.090815186e-05,1.445798549e-04,-1.720010030e-04,-3.430361406e-05,-2.063046170e-04,7.693817047e-05,-6.546634806e-05,1.147182241e-05,-1.131310554e-04,-1.407070993e-04,-2.538381548e-04,-2.256646997e-04,-8.855060092e-05,-3.142153006e-04,-3.997076189e-04,-8.722190089e-05,-4.869295198e-04,-4.852160542e-04,-7.662475355e-05,-5.618408077e-04,-1.024792523e-03,-4.413566531e-05,-1.068928188e-03,3.998318052e-05,-7.385878589e-05,-3.387560536e-05,-4.147561523e-04,-2.024648369e-04,-6.172209892e-04,8.949400445e-04,-4.183422880e-05,8.531058157e-04,2.310689845e-04,-2.279402408e-05,2.082749604e-04,-1.972283710e-04,-1.011697059e-04,-2.983980769e-04,-8.082458204e-05,2.759436188e-05,-5.323022016e-05,-1.023440286e-03,5.179431976e-05,-9.716459665e-04,-1.420733070e-04,-9.826064248e-05,-2.403339495e-04,1.056074829e-04,-9.681444564e-05,8.793037284e-06,5.615717224e-06,-1.946941431e-04,-1.890784259e-04,-4.018332507e-05,-1.272736066e-04,-1.674569317e-04,-3.224973791e-04,-1.226866652e-04,-4.451840443e-04,-6.715225369e-04,-1.203712929e-05,-6.835596661e-04,-1.043698590e-03,-8.253748277e-05,-1.126236073e-03,-6.541913541e-04,-3.272763787e-05,-6.869189920e-04,-7.617888272e-04,-2.307160195e-05,-7.848604292e-04
-6.9,-5.000331934e-04,2.808469664e-06,-4.972247237e-04,-8.081856461e-04,-1.936808082e-04,-1.001866454e-03,3.349830555e-05,-8.472453272e-05,-5.122622717e-05,-2.396493540e-04,-9.129651012e-05,-3.309458641e-04,-3.455492379e-05,-5.750577566e-05,-9.206069944e-05,-4.315324478e-04,-1.154511292e-04,-5.469835770e-04,-6.566165468e-04,-3.963299454e-05,-6.962495413e-04,-9.855537447e-04,-8.827204292e-05,-1.073825788e-03,-1.381914524e-03,-8.111904911e-05,-1.463033573e-03,-1.612795502e-03,-2.277767617e-05,-1.635573178e-03,-9.661073222e-04,-4.649081712e-05,-1.012598139e-03,1.194915821e-04,-6.562174353e-06,1.129294077e-04,-1.590075120e-05,6.287383109e-05,4.697307989e-05,-2.576669236e-04,-4.694964368e-05,-3.046165673e-04,-3.113922781e-05,-6.835942484e-05,-9.949865265e-05,-1.751535843e-04,-1.393311177e-04,-3.144847019e-04,-2.910928288e-04,-8.634869101e-05,-3.774415198e-04,-4.259617492e-04,-7.449192493e-05,-5.004536741e-04,-5.134663265e-04,-6.931132992e-05,-5.827776565e-04,-1.051225816e-03,-4.231944708e-05,-1.093545263e-03,6.662722562e-05,-7.538137412e-05,-8.754148502e-06,-4.418153546e-04,-2.054497882e-04,-6.472651428e-04,9.012250155e-04,-3.919672164e-05,8.620282938e-04,1.953356052e-04,-2.955293929e-05,1.657826660e-04,-2.514557376e-04,-1.072346633e-04,-3.586904009e-04,-1.858762938e-04,1.901919263e-05,-1.668571012e-04,-1.079868667e-03,4.973017910e-05,-1.030138488e-03,-1.979471673e-04,-1.123943504e-04,-3.103415177e-04,4.593192265e-05,-9.666960091e-05,-5.073767826e-05,-3.358819682e-05,-1.928458360e-04,-2.264340328e-04,-9.284251441e-05,-1.275930517e-04,-2.204355661e-04,-3.661138665e-04,-1.213259127e-04,-4.874397792e-04,-6.998898698e-04,-1.961593301e-05,-7.195058028e-04,-1.103458863e-03,-7.224982439e-05,-1.175708688e-03,-7.049920419e-04,-3.205987108e-05,-7.370519130e-04,-7.992182318e-04,-1.547788618e-05,-8.146961180e-04
-6.8,-4.849264869e-04,-6.168695919e-06,-4.910951829e-04,-8.491661208e-04,-2.054063487e-04,-1.054572469e-03,3.003391512e-05,-8.499873132e-05,-5.496481621e-05,-2.511863292e-04,-9.767508195e-05,-3.488614111e-04,-5.261337912e-05,-5.647646209e-05,-1.090898412e-04,-4.649886490e-04,-1.152352155e-04,-5.802238644e-04,-7.338455620e-04,-3.993739919e-05,-7.737829612e-04,-1.029159823e-03,-8.382466065e-05,-1.112984484e-03,-1.448258401e-03,-8.196528147e-05,-1.530223683e-03,-1.618179270e-03,-1.823405974e-05,-1.636413329e-03,-9.508910212e-04,-4.082235712e-05,-9.917133783e-04,6.065240113e-05,-1.100226814e-05,4.965013300e-05,-1.048273749e-04,5.505001459e-05,-4.977736028e-05,-3.411941086e-04,-5.922310315e-05,-4.004172117e-04,-1.382563406e-04,-7.104590089e-05,-2.093022415e-04,-2.353037787e-04,-1.372246172e-04,-3.725283959e-04,-3.540296610e-04,-8.377691991e-05,-4.378065810e-04,-4.497338889e-04,-6.131516371e-05,-5.110490526e-04,-5.387170188e-04,-6.179175200e-05,-6.005087708e-04,-1.073150841e-03,-4.028555761e-05,-1.113436399e-03,9.145741303e-05,-7.663455140e-05,1.482286163e-05,-4.678067730e-04,-2.074811873e-04,-6.752879603e-04,9.028108773e-04,-3.661514331e-05,8.661957340e-04,1.585731701e-04,-3.597939735e-05,1.225937728e-04,-3.031334749e-04,-1.127712380e-04,-4.159047129e-04,-2.888547817e-04,1.095609199e-05,-2.778986897e-04,-1.130358901e-03,4.658640615e-05,-1.083772495e-03,-2.540895367e-04,-1.248898465e-04,-3.789793833e-04,-1.300388240e-05,-9.618457360e-05,-1.091884560e-04,-7.190182183e-05,-1.901779840e-04,-2.620798058e-04,-1.444284233e-04,-1.271560793e-04,-2.715845026e-04,-4.069141038e-04,-1.196204017e-04,-5.265345054e-04,-7.242219813e-04,-2.722157392e-05,-7.514435552e-04,-1.158803759e-03,-6.045978470e-05,-1.219263544e-03,-7.524120352e-04,-3.065636841e-05,-7.830684037e-04,-8.320490389e-04,-8.409865767e-06,-8.404589046e-04
-6.7,-4.664755838e-04,-1.439249222e-05,-4.808680760e-04,-8.849870580e-04,-2.158650481e-04,-1.100852106e-03,2.593052438e-05,-8.473858268e-05,-5.880805830e-05,-2.617774643e-04,-1.036602597e-04,-3.654377240e-04,-7.022707672e-05,-5.523919575e-05,-1.254662725e-04,-4.956000629e-04,-1.144949605e-04,-6.100950234e-04,-8.075683929e-04,-4.005556022e-05,-8.476239531e-04,-1.068493758e-03,-7.904047699e-05,-1.147534235e-03,-1.508711539e-03,-8.243582822e-05,-1.591147367e-03,-1.618218436e-03,-1.360640561e-05,-1.631824842e-03,-9.331280464e-04,-3.511604719e-05,-9.682440936e-04,2.622056068e-06,-1.527347475e-05,-1.265141868e-05,-1.927672718e-04,4.752217836e-05,-1.452450934e-04,-4.223241445e-04,-7.106598614e-05,-4.933901307e-04,-2.439570505e-04,-7.354592804e-05,-3.175029786e-04,-2.934733866e-04,-1.343958960e-04,-4.278692826e-04,-4.143382889e-04,-8.085306167e-05,-4.951913505e-04,-4.710599983e-04,-4.779184013e-05,-5.188518384e-04,-5.609960238e-04,-5.412517275e-05,-6.151211966e-04,-1.090708975e-03,-3.805136925e-05,-1.128760345e-03,1.140074348e-04,-7.760483001e-05,3.640260477e-05,-4.928588923e-04,-2.085758309e-04,-7.014347232e-04,8.994985601e-04,-3.409602103e-05,8.654025391e-04,1.209042794e-04,-4.206419387e-05,7.884008554e-05,-3.522885524e-04,-1.177115755e-04,-4.700001279e-04,-3.893296925e-04,3.390320425e-06,-3.859393721e-04,-1.174898237e-03,4.244127717e-05,-1.132456960e-03,-3.102900575e-04,-1.357481440e-04,-4.460382015e-04,-7.101730115e-05,-9.536401362e-05,-1.663813148e-04,-1.094171915e-04,-1.866160766e-04,-2.960332681e-04,-1.948518762e-04,-1.259436485e-04,-3.207955247e-04,-4.448696028e-04,-1.175816319e-04,-5.624512347e-04,-7.446067601e-04,-3.479236456e-05,-7.793991246e-04,-1.209511693e-03,-4.741353127e-05,-1.256925224e-03,-7.964069526e-04,-2.852912974e-05,-8.249360824e-04,-8.603664305e-04,-1.858458973e-06,-8.622248895e-04
-6.6,-4.447262621e-04,-2.182358778e-05,-4.665498499e-04,-9.158575285e-04,-2.250737063e-04,-1.140931235e-03,2.115302006e-05,-8.393188479e-05,-6.277886473e-05,-2.715914748e-04,-1.092314613e-04,-3.808229362e-04,-8.748968893e-05,-5.379146539e-05,-1.412811543e-04,-5.234973237e-04,-1.132446621e-04,-6.367419858e-04,-8.775943205e-04,-3.998658438e-05,-9.175809049e-04,-1.103635425e-03,-7.392119725e-05,-1.177556622e-03,-1.563127674e-03,-8.254463606e-05,-1.645672310e-03,-1.613149251e-03,-8.911396461e-06,-1.622060647e-03,-9.131788291e-04,-2.938360168e-05,-9.425624308e-04,-5.437256054e-05,-1.939041210e-05,-7.376297265e-05,-2.793450591e-04,4.036265178e-05,-2.389824073e-04,-5.007853850e-04,-8.242147986e-05,-5.832068649e-04,-3.477819674e-04,-7.587492059e-05,-4.236568880e-04,-3.495359457e-04,-1.308616280e-04,-4.803975737e-04,-4.718751648e-04,-7.759413645e-05,-5.494693012e-04,-4.899649109e-04,-3.402717815e-05,-5.239920891e-04,-5.803336063e-04,-4.637173623e-05,-6.267053425e-04,-1.104043787e-03,-3.563849277e-05,-1.139682280e-03,1.338693261e-04,-7.828014325e-05,5.558918286e-05,-5.170737581e-04,-2.087583944e-04,-7.258321525e-04,8.911499612e-04,-3.164293844e-05,8.595070228e-04,8.247362448e-05,-4.779953969e-05,3.467408479e-05,-3.989200574e-04,-1.219898387e-04,-5.209098961e-04,-4.868358303e-04,-3.699263933e-06,-4.905350942e-04,-1.213496069e-03,3.738457722e-05,-1.176111492e-03,-3.663026793e-04,-1.449941074e-04,-5.112967867e-04,-1.279175478e-04,-9.420976272e-05,-2.221273105e-04,-1.461914629e-04,-1.820988254e-04,-3.282902883e-04,-2.440107379e-04,-1.239450196e-04,-3.679557575e-04,-4.799488572e-04,-1.152227173e-04,-5.951715745e-04,-7.611379717e-04,-4.226293760e-05,-8.034009093e-04,-1.255330518e-03,-3.339003361e-05,-1.288720552e-03,-8.369293125e-04,-2.570531835e-05,-8.626346309e-04,-8.842662817e-04,4.197870395e-06,-8.800684114e-04
-6.5,-4.197514530e-04,-2.843249989e-05,-4.481839529e-04,-9.419979320e-04,-2.330554182e-04,-1.175053350e-03,1.568095515e-05,-8.257325416e-05,-6.689229901e-05,-2.807788946e-04,-1.143698055e-04,-3.951487001e-04,-1.044735652e-04,-5.213259249e-05,-1.566061577e-04,-5.488053396e-04,-1.115016147e-04,-6.603069543e-04,-9.437331694e-04,-3.973059895e-05,-9.834637684e-04,-1.134667008e-03,-6.846906947e-05,-1.203136077e-03,-1.611377633e-03,-8.230682674e-05,-1.693684460e-03,-1.603208107e-03,-4.166374860e-06,-1.607374482e-03,-8.913792991e-04,-2.363631174e-05,-9.150156108e-04,-1.100979764e-04,-2.336412953e-05,-1.334621060e-04,-3.641565319e-04,3.363338243e-05,-3.305231495e-04,-5.762985687e-04,-9.323498719e-05,-6.695335559e-04,-4.492746335e-04,-7.804253907e-05,-5.273171726e-04,-4.033479199e-04,-1.266472346e-04,-5.299951544e-04,-5.264905774e-04,-7.401616662e-05,-6.005067440e-04,-5.064617936e-04,-2.013021020e-05,-5.265920038e-04,-5.967596890e-04,-3.859166390e-05,-6.353513529e-04,-1.113299347e-03,-3.307155590e-05,-1.146370902e-03,1.506977053e-04,-7.865006479e-05,7.204764050e-05,-5.405249578e-04,-2.080608322e-04,-7.485857900e-04,8.776882819e-04,-2.925649844e-05,8.484317835e-04,4.344484308e-05,-5.317858723e-05,-9.733744151e-06,-4.429995992e-04,-1.255442931e-04,-5.685438923e-04,-5.808824925e-04,-1.033926953e-05,-5.912217621e-04,-1.246181129e-03,3.151695637e-05,-1.214664172e-03,-4.218489583e-04,-1.526740897e-04,-5.745230480e-04,-1.835086030e-04,-9.272250370e-05,-2.762311067e-04,-1.822479994e-04,-1.765801723e-04,-3.588281717e-04,-2.917904869e-04,-1.211579249e-04,-4.129484119e-04,-5.121168511e-04,-1.125590653e-04,-6.246759165e-04,-7.739126683e-04,-4.956612186e-05,-8.234787901e-04,-1.295984947e-03,-1.869168108e-05,-1.314676628e-03,-8.739280169e-04,-2.222548168e-05,-8.961534986e-04,-9.038501673e-04,9.789338134e-06,-8.940608292e-04
-6.4,-3.916537497e-04,-3.420050802e-05,-4.258542578e-04,-9.636361748e-04,-2.398391420e-04,-1.203475317e-03,9.506637726e-06,-8.066439955e-05,-7.115776182e-05,-2.894723149e-04,-1.190583310e-04,-4.085306459e-04,-1.212314405e-04,-5.026391822e-05,-1.714953587e-04,-5.716435116e-04,-1.092859941e-04,-6.809295058e-04,-1.005800111e-03,-3.928905375e-05,-1.045089165e-03,-1.161673248e-03,-6.268750335e-05,-1.224360751e-03,-1.653351962e-03,-8.173846660e-05,-1.735090429e-03,-1.588630700e-03,6.108586645e-07,-1.588019842e-03,-8.680389857e-04,-1.788514159e-05,-8.859241273e-04,-1.643212731e-04,-2.720281753e-05,-1.915240907e-04,-4.467828348e-04,2.738948056e-05,-4.193933543e-04,-6.485876357e-04,-1.034553503e-04,-7.520429859e-04,-5.479918610e-04,-8.005228131e-05,-6.280441423e-04,-4.547549720e-04,-1.217872012e-04,-5.765421733e-04,-5.780329565e-04,-7.013464828e-05,-6.481676048e-04,-5.205550529e-04,-6.212837072e-06,-5.267678900e-04,-6.103040062e-04,-3.084440756e-05,-6.411484138e-04,-1.118621332e-03,-3.037702778e-05,-1.148998360e-03,1.642096354e-04,-7.870604466e-05,8.550359076e-05,-5.632591438e-04,-2.065217927e-04,-7.697809365e-04,8.590945078e-04,-2.693443848e-05,8.321600694e-04,3.994695999e-06,-5.819509923e-05,-5.420040323e-05,-4.844781076e-04,-1.283199439e-04,-6.127980515e-04,-6.709710722e-04,-1.656102013e-05,-6.875320924e-04,-1.273002241e-03,2.494907022e-05,-1.248053170e-03,-4.766265746e-04,-1.588527673e-04,-6.354793419e-04,-2.375953638e-04,-9.090342900e-05,-3.284987928e-04,-2.175817041e-04,-1.700307361e-04,-3.876124402e-04,-3.380681992e-04,-1.175885809e-04,-4.556567801e-04,-5.413386512e-04,-1.096084480e-04,-6.509470992e-04,-7.830323200e-04,-5.663527758e-05,-8.396675975e-04,-1.331191704e-03,-3.632953097e-06,-1.334824657e-03,-9.073514928e-04,-1.814135561e-05,-9.254928484e-04,-9.192229752e-04,1.495021510e-05,-9.042727601e-04
-6.3,-3.605686298e-04,-3.912035315e-05,-3.996889829e-04,-9.810053404e-04,-2.454591446e-04,-1.226464485e-03,2.631489265e-06,-7.821422338e-05,-7.558273412e-05,-2.977887658e-04,-1.232821771e-04,-4.210709429e-04,-1.378007612e-04,-4.818890178e-05,-1.859896630e-04,-5.921281106e-04,-1.066206631e-04,-6.987487737e-04,-1.063623043e-03,-3.866492160e-05,-1.102287965e-03,-1.184743710e-03,-5.658184560e-05,-1.241325556e-03,-1.688965523e-03,-8.085627279e-05,-1.769821796e-03,-1.569653574e-03,5.402340874e-06,-1.564251233e-03,-8.434420243e-04,-1.214079888e-05,-8.555828232e-04,-2.168191878e-04,-3.091293754e-05,-2.477321253e-04,-5.268089616e-04,2.168092893e-05,-5.051280326e-04,-7.173928369e-04,-1.130360796e-04,-8.304289165e-04,-6.435157636e-04,-8.190169851e-05,-7.254174621e-04,-5.036015922e-04,-1.163251007e-04,-6.199266929e-04,-6.263557878e-04,-6.596553736e-05,-6.923213251e-04,-5.322458673e-04,7.611146686e-06,-5.246347206e-04,-6.209987093e-04,-2.318778450e-05,-6.441864938e-04,-1.120159889e-03,-2.758232389e-05,-1.147742213e-03,1.741811677e-04,-7.844171704e-05,9.573945066e-05,-5.853002495e-04,-2.041859497e-04,-7.894861992e-04,8.354011582e-04,-2.467190122e-05,8.107292570e-04,-3.569413808e-05,-6.284320775e-05,-9.853734583e-05,-5.232969322e-04,-1.302713519e-04,-6.535682841e-04,-7.566174553e-04,-2.239985767e-05,-7.790173129e-04,-1.294031718e-03,1.780030180e-05,-1.276231416e-03,-5.303216494e-04,-1.636089057e-04,-6.939305551e-04,-2.899913934e-04,-8.875572877e-05,-3.787471222e-04,-2.521669317e-04,-1.624385715e-04,-4.146055032e-04,-3.827188305e-04,-1.132516087e-04,-4.959704392e-04,-5.675855611e-04,-1.063908068e-04,-6.739763679e-04,-7.886068469e-04,-6.340654448e-05,-8.520133914e-04,-1.360679702e-03,1.147212083e-05,-1.349207581e-03,-9.371532715e-04,-1.351345266e-05,-9.506667242e-04,-9.304925177e-04,1.971402300e-05,-9.107784947e-04
-6.2,-3.266676494e-04,-4.319658021e-05,-3.698642297e-04,-9.943424262e-04,-2.499543301e-04,-1.244296756e-03,-4.938219585e-06,-7.523871102e-05,-8.017693060e-05,-3.058331668e-04,-1.270287163e-04,-4.328618831e-04,-1.542092484e-04,-4.591311936e-05,-2.001223677e-04,-6.103755620e-04,-1.035308552e-04,-7.139064172e-04,-1.117050575e-03,-3.786276094e-05,-1.154913336e-03,-1.203975608e-03,-5.016040007e-05,-1.254136008e-03,-1.718162615e-03,-7.967732702e-05,-1.797839942e-03,-1.546516716e-03,1.019020606e-05,-1.536326510e-03,-8.178499812e-04,-6.413836549e-06,-8.242638177e-04,-2.673871143e-04,-3.450054619e-05,-3.018876605e-04,-6.038415087e-04,1.655135669e-05,-5.872901520e-04,-7.824829184e-04,-1.219363887e-04,-9.044193071e-04,-7.354647197e-04,-8.358307349e-05,-8.190477932e-04,-5.497418826e-04,-1.103131706e-04,-6.600550533e-04,-6.713254402e-04,-6.152649180e-05,-7.328519320e-04,-5.415389933e-04,2.122720401e-05,-5.203117893e-04,-6.288825445e-04,-1.567700049e-05,-6.445595450e-04,-1.118072993e-03,-2.471516995e-05,-1.142788163e-03,1.804421808e-04,-7.785321167e-05,1.025889692e-04,-6.066550783e-04,-2.011030440e-04,-8.077581223e-04,8.066848793e-04,-2.246180115e-05,7.842230782e-04,-7.544007407e-05,-6.711723049e-05,-1.425573046e-04,-5.594005206e-04,-1.313651225e-04,-6.907656430e-04,-8.373750157e-04,-2.789428882e-05,-8.652693045e-04,-1.309369898e-03,1.019665760e-05,-1.299173241e-03,-5.826221445e-04,-1.670306531e-04,-7.496527976e-04,-3.405264585e-04,-8.628562529e-05,-4.268120837e-04,-2.859658630e-04,-1.538091241e-04,-4.397749871e-04,-4.256221848e-04,-1.081698839e-04,-5.337920687e-04,-5.908419421e-04,-1.029280125e-04,-6.937699546e-04,-7.907599431e-04,-6.982061736e-05,-8.605805605e-04,-1.384210813e-03,2.632206611e-05,-1.357888746e-03,-9.632979914e-04,-8.408714962e-06,-9.717067064e-04,-9.377708185e-04,2.410946318e-05,-9.136613553e-04
-6.1,-2.901606618e-04,-4.644545899e-05,-3.366061208e-04,-1.003887509e-03,-2.533674992e-04,-1.257255008e-03,-1.319499765e-05,-7.176062066e-05,-8.495561831e-05,-3.137015854e-04,-1.302876664e-04,-4.439892518e-04,-1.704800199e-04,-4.344420040e-05,-2.139242203e-04,-6.265050753e-04,-1.000437552e-04,-7.265488305e-04,-1.165958246e-03,-3.688865090e-05,-1.202846897e-03,-1.219475560e-03,-4.343548558e-05,-1.262911046e-03,-1.740920881e-03,-7.821881423e-05,-1.819139695e-03,-1.519465550e-03,1.495684912e-05,-1.504508701e-03,-7.915049852e-04,-7.147703497e-07,-7.922197556e-04,-3.158458851e-04,-3.797252540e-05,-3.538184105e-04,-6.775213014e-04,1.203482401e-05,-6.654864774e-04,-8.436631358e-04,-1.301217414e-04,-9.737848772e-04,-8.235005010e-04,-8.508416797e-05,-9.085846689e-04,-5.930488688e-04,-1.038114148e-04,-6.968602836e-04,-7.128279638e-04,-5.683809536e-05,-7.696660591e-04,-5.484494109e-04,3.452149058e-05,-5.139279203e-04,-6.340053549e-04,-8.363580440e-06,-6.423689353e-04,-1.112528834e-03,-2.180306477e-05,-1.134331899e-03,1.828714323e-04,-7.693934717e-05,1.059320851e-04,-6.273184336e-04,-1.973265554e-04,-8.246449890e-04,7.730597028e-04,-2.029522232e-05,7.527644805e-04,-1.150677976e-04,-7.101158551e-05,-1.860793831e-04,-5.927474327e-04,-1.315817141e-04,-7.243291468e-04,-9.128536304e-04,-3.308487171e-05,-9.459385022e-04,-1.319148829e-03,2.267676001e-06,-1.316881153e-03,-6.332293903e-04,-1.692112186e-04,-8.024406089e-04,-3.890519230e-04,-8.350277362e-05,-4.725546966e-04,-3.189350736e-04,-1.441644516e-04,-4.630995252e-04,-4.666687207e-04,-1.023742320e-04,-5.690429527e-04,-6.111108809e-04,-9.924359935e-05,-7.103544802e-04,-7.896333592e-04,-7.582395006e-05,-8.654573093e-04,-1.401596194e-03,4.063823493e-05,-1.360957959e-03,-9.857661588e-04,-2.898160444e-06,-9.886643192e-04,-9.411766120e-04,2.815796971e-05,-9.130186423e-04
-6,-2.512959731e-04,-4.889450551e-05,-3.001904786e-04,-1.009882591e-03,-2.557445742e-04,-1.265627165e-03,-2.213182710e-05,-6.780900864e-05,-8.994083574e-05,-3.214829772e-04,-1.330511856e-04,-4.545341627e-04,-1.866344982e-04,-4.079171825e-05,-2.274262164e-04,-6.406390066e-04,-9.618801489e-05,-7.368270215e-04,-1.210250612e-03,-3.574999184e-05,-1.246000604e-03,-1.231358747e-03,-3.642414187e-05,-1.267782889e-03,-1.757252266e-03,-7.649778108e-05,-1.833750047e-03,-1.488750564e-03,1.968495176e-05,-1.469065613e-03,-7.646314537e-04,4.945826320e-06,-7.596856274e-04,-3.620443612e-04,-4.133733253e-05,-4.033816937e-04,-7.475281997e-04,8.152635344e-06,-7.393755643e-04,-9.007762340e-04,-1.375636284e-04,-1.038339862e-03,-9.073290623e-04,-8.638865367e-05,-9.937177160e-04,-6.334194204e-04,-9.688625841e-05,-7.303056788e-04,-7.507728149e-04,-5.192465845e-05,-8.026974734e-04,-5.530074152e-04,4.738268388e-05,-5.056247314e-04,-6.364313919e-04,-1.294322752e-06,-6.377257147e-04,-1.103705698e-03,-1.887273420e-05,-1.122578432e-03,1.813937701e-04,-7.570166268e-05,1.056921074e-04,-6.472757493e-04,-1.929121791e-04,-8.401879284e-04,7.346727641e-04,-1.816182220e-05,7.165109419e-04,-1.544101870e-04,-7.452083357e-05,-2.289310206e-04,-6.233162651e-04,-1.309163584e-04,-7.542326235e-04,-9.827302183e-04,-3.801281151e-05,-1.020743030e-03,-1.323532971e-03,-5.857189944e-06,-1.329390161e-03,-6.818652857e-04,-1.702452567e-04,-8.521105424e-04,-4.354421348e-04,-8.042005284e-05,-5.158621877e-04,-3.510280112e-04,-1.335421029e-04,-4.845701141e-04,-5.057622660e-04,-9.590291416e-05,-6.016651801e-04,-6.284171128e-04,-9.536230017e-05,-7.237794130e-04,-7.853877754e-04,-8.136936491e-05,-8.667571403e-04,-1.412704059e-03,5.417274819e-05,-1.358531310e-03,-1.004556308e-03,2.945497608e-06,-1.001610811e-03,-9.408376238e-04,3.187322105e-05,-9.089644027e-04
-5.9,-2.103575475e-04,-5.058161612e-05,-2.609391636e-04,-1.012569469e-03,-2.571337724e-04,-1.269703241e-03,-3.174096719e-05,-6.341858959e-05,-9.515955678e-05,-3.292583847e-04,-1.353139128e-04,-4.645722975e-04,-2.026918041e-04,-3.796700978e-05,-2.406588139e-04,-6.528999407e-04,-9.199328203e-05,-7.448932227e-04,-1.249857880e-03,-3.445518398e-05,-1.284313064e-03,-1.239744575e-03,-2.914830827e-05,-1.268892883e-03,-1.767199986e-03,-7.453095426e-05,-1.841730941e-03,-1.454623427e-03,2.435733783e-05,-1.430266090e-03,-7.374350840e-04,1.055724106e-05,-7.268778429e-04,-4.058567914e-04,-4.460503594e-05,-4.504618274e-04,-8.135772262e-04,4.911645126e-06,-8.086655811e-04,-9.536954643e-04,-1.442385480e-04,-1.097934012e-03,-9.866939803e-04,-8.747617522e-05,-1.074170156e-03,-6.707727819e-04,-8.960877227e-05,-7.603815542e-04,-7.850919841e-04,-4.681421122e-05,-8.319061953e-04,-5.552607118e-04,5.970406179e-05,-4.955566500e-04,-6.362400557e-04,5.489638710e-06,-6.307504170e-04,-1.091788520e-03,-1.594958771e-05,-1.107738108e-03,1.759807519e-04,-7.414433781e-05,1.018364141e-04,-6.665020164e-04,-1.879163676e-04,-8.544183841e-04,6.917034940e-04,-1.605023228e-05,6.756532617e-04,-1.933064530e-04,-7.763979442e-05,-2.709462474e-04,-6.511040691e-04,-1.293790218e-04,-7.804830909e-04,-1.046747963e-03,-4.271818721e-05,-1.089466151e-03,-1.322715436e-03,-1.405210363e-05,-1.336767539e-03,-7.282736413e-04,-1.702259627e-04,-8.984996040e-04,-4.795910535e-04,-7.705290310e-05,-5.566439566e-04,-3.821922803e-04,-1.219940623e-04,-5.041863426e-04,-5.428184367e-04,-8.880096737e-05,-6.316194041e-04,-6.428063242e-04,-9.130916250e-05,-7.341154867e-04,-7.781991933e-04,-8.641598508e-05,-8.646151784e-04,-1.417457692e-03,6.671421989e-05,-1.350743472e-03,-1.019683443e-03,9.049740344e-06,-1.010633703e-03,-9.368907095e-04,3.526223831e-05,-9.016284712e-04
-5.8,-1.676591412e-04,-5.155377995e-05,-2.192129212e-04,-1.012186388e-03,-2.575847162e-04,-1.269771105e-03,-4.200992294e-05,-5.862890418e-05,-1.006388271e-04,-3.370975469e-04,-1.370729241e-04,-4.741704710e-04,-2.186647218e-04,-3.498292160e-05,-2.536476434e-04,-6.634049468e-04,-8.748984646e-05,-7.508947933e-04,-1.284728158e-03,-3.301330126e-05,-1.317741459e-03,-1.244749407e-03,-2.163467510e-05,-1.266384082e-03,-1.770832147e-03,-7.233468860e-05,-1.843166836e-03,-1.417329962e-03,2.895668596e-05,-1.388373276e-03,-7.100990160e-04,1.610851453e-05,-6.939905014e-04,-4.471760177e-04,-4.778682414e-05,-4.949628419e-04,-8.754082191e-04,2.304469823e-06,-8.731037493e-04,-1.002312416e-03,-1.501266088e-04,-1.152439024e-03,-1.061364719e-03,-8.832238377e-05,-1.149687103e-03,-7.050433760e-04,-8.205252925e-05,-7.870959053e-04,-8.157347593e-04,-4.153768725e-05,-8.572724466e-04,-5.552727647e-04,7.138549525e-05,-4.838872695e-04,-6.335235307e-04,1.195364251e-05,-6.215698882e-04,-1.076962711e-03,-1.305723952e-05,-1.090019950e-03,1.666542132e-04,-7.227404768e-05,9.438016554e-05,-6.849577140e-04,-1.823950737e-04,-8.673527878e-04,6.443656352e-04,-1.394843186e-05,6.304172033e-04,-2.315976503e-04,-8.036364169e-05,-3.119612920e-04,-6.761178367e-04,-1.269935610e-04,-8.031113978e-04,-1.104705540e-03,-4.723787672e-05,-1.151943417e-03,-1.316910167e-03,-2.219790443e-05,-1.339108072e-03,-7.722159485e-04,-1.692431390e-04,-9.414590875e-04,-5.214055961e-04,-7.341842923e-05,-5.948240254e-04,-4.123633778e-04,-1.095857721e-04,-5.219491499e-04,-5.777594887e-04,-8.111953578e-05,-6.588790245e-04,-6.543413305e-04,-8.710830766e-05,-7.414496382e-04,-7.682518572e-04,-9.092862735e-05,-8.591804846e-04,-1.415826438e-03,7.809128226e-05,-1.337735156e-03,-1.031174146e-03,1.534313635e-05,-1.015831010e-03,-9.294793379e-04,3.832747250e-05,-8.911518653e-04
-5.7,-1.235363137e-04,-5.186539463e-05,-1.754017083e-04,-1.008963927e-03,-2.571475157e-04,-1.266111443e-03,-5.291595191e-05,-5.348331770e-05,-1.063992696e-04,-3.450541986e-04,-1.383276395e-04,-4.833818381e-04,-2.345539852e-04,-3.185355316e-05,-2.664075384e-04,-6.722590366e-04,-8.270843950e-05,-7.549674761e-04,-1.314818542e-03,-3.143391845e-05,-1.346252461e-03,-1.246478485e-03,-1.391449095e-05,-1.260392976e-03,-1.768234161e-03,-6.992504951e-05,-1.838159211e-03,-1.377101959e-03,3.346522322e-05,-1.343636735e-03,-6.827784924e-04,2.158831196e-05,-6.611901804e-04,-4.859057079e-04,-5.089444031e-05,-5.368001482e-04,-9.327747850e-04,3.114856251e-07,-9.324632993e-04,-1.046525198e-03,-1.552104376e-04,-1.201735636e-03,-1.131124684e-03,-8.889930510e-05,-1.220023989e-03,-7.361713986e-04,-7.429141466e-05,-8.104628133e-04,-8.426606225e-04,-3.612770651e-05,-8.787883290e-04,-5.531183417e-04,8.233520691e-05,-4.707831348e-04,-6.283821645e-04,1.807010987e-05,-6.103120547e-04,-1.059407187e-03,-1.021712016e-05,-1.069624307e-03,1.534906214e-04,-7.009973974e-05,8.339088167e-05,-7.025840674e-04,-1.764026524e-04,-8.789867198e-04,5.929099912e-04,-1.184408866e-05,5.810659025e-04,-2.691220253e-04,-8.268792940e-05,-3.518099547e-04,-6.983632355e-04,-1.237963708e-04,-8.221596063e-04,-1.156442328e-03,-5.160365454e-05,-1.208045983e-03,-1.306342520e-03,-3.018439828e-05,-1.336526918e-03,-8.134642248e-04,-1.673826109e-04,-9.808468357e-04,-5.607987761e-04,-6.953455222e-05,-6.303333283e-04,-4.414585711e-04,-9.639498060e-05,-5.378535517e-04,-6.105081951e-04,-7.291525019e-05,-6.834234452e-04,-6.630968998e-04,-8.278176894e-05,-7.458786687e-04,-7.557302571e-04,-9.487712398e-05,-8.506073810e-04,-1.407814376e-03,8.817329249e-05,-1.319641083e-03,-1.039060771e-03,2.175540950e-05,-1.017305361e-03,-9.187500168e-04,4.106937370e-05,-8.776806431e-04
-5.6,-7.833787953e-05,-5.157636932e-05,-1.299142488e-04,-1.003120984e-03,-2.558719350e-04,-1.258992919e-03,-6.442114344e-05,-4.802794963e-05,-1.124490931e-04,-3.531620136e-04,-1.390797404e-04,-4.922417540e-04,-2.503433559e-04,-2.859408034e-05,-2.789374363e-04,-6.795502862e-04,-7.768008854e-05,-7.572303748e-04,-1.340088541e-03,-2.972712381e-05,-1.369815665e-03,-1.245019561e-03,-6.023367241e-06,-1.251042928e-03,-1.759502400e-03,-6.731793566e-05,-1.826820336e-03,-1.334150233e-03,3.786457094e-05,-1.296285662e-03,-6.555959646e-04,2.698484519e-05,-6.286111194e-04,-5.219552225e-04,-5.393975257e-05,-5.758949751e-04,-9.854386159e-04,-1.095979028e-06,-9.865345950e-04,-1.086231861e-03,-1.594748552e-04,-1.245706716e-03,-1.195763841e-03,-8.917614225e-05,-1.284939984e-03,-7.640955268e-04,-6.639787872e-05,-8.304934055e-04,-8.658336373e-04,-3.061745124e-05,-8.964510886e-04,-5.488783411e-04,9.247126504e-05,-4.564070761e-04,-6.209194054e-04,2.381880103e-05,-5.971006044e-04,-1.039288798e-03,-7.448152359e-06,-1.046736951e-03,1.366237181e-04,-6.763232867e-05,6.899138944e-05,-7.192999950e-04,-1.699908802e-04,-8.892908752e-04,5.376256875e-04,-9.724905366e-06,5.279007821e-04,-3.057124045e-04,-8.460858901e-05,-3.903209935e-04,-7.178359805e-04,-1.198348219e-04,-8.376708024e-04,-1.201826927e-03,-5.584108497e-05,-1.257668012e-03,-1.291241099e-03,-3.791173246e-05,-1.329152831e-03,-8.517948781e-04,-1.647269362e-04,-1.016521814e-03,-5.976853039e-04,-6.541947183e-05,-6.631047758e-04,-4.693740920e-04,-8.251031734e-05,-5.518844093e-04,-6.409835025e-04,-6.424958858e-05,-7.052330911e-04,-6.691552891e-04,-7.834880144e-05,-7.475040905e-04,-7.408129928e-04,-9.823590694e-05,-8.390488997e-04,-1.393450473e-03,9.686751492e-05,-1.296582958e-03,-1.043377366e-03,2.821718783e-05,-1.015160178e-03,-9.048498213e-04,4.348896275e-05,-8.613608585e-04
-5.5,-3.241816165e-05,-5.075028862e-05,-8.316845027e-05,-9.948616671e-04,-2.538067596e-04,-1.248668427e-03,-7.646964595e-05,-4.231063607e-05,-1.187802820e-04,-3.614326827e-04,-1.393331093e-04,-5.007657920e-04,-2.659973358e-04,-2.522066267e-05,-2.912179985e-04,-6.853481632e-04,-7.243587984e-05,-7.577840431e-04,-1.360497879e-03,-2.790359433e-05,-1.388401473e-03,-1.240439915e-03,1.999062235e-06,-1.238440852e-03,-1.744740589e-03,-6.452913731e-05,-1.809269726e-03,-1.288660643e-03,4.213584811e-05,-1.246524795e-03,-6.286382380e-04,3.228590557e-05,-5.963523325e-04,-5.552391885e-04,-5.693429723e-05,-6.121734857e-04,-1.033172167e-03,-1.952202918e-06,-1.035124370e-03,-1.121331014e-03,-1.629073196e-04,-1.284238334e-03,-1.255077996e-03,-8.912050696e-05,-1.344198503e-03,-7.887506216e-04,-5.844179791e-05,-8.471924195e-04,-8.852205209e-04,-2.503995914e-05,-9.102604800e-04,-5.426356672e-04,1.017226331e-04,-4.409130341e-04,-6.112380281e-04,2.918659922e-05,-5.820514289e-04,-1.016759583e-03,-4.766454460e-06,-1.021526038e-03,1.162438857e-04,-6.488439871e-05,5.135948697e-05,-7.350020088e-04,-1.632081744e-04,-8.982101832e-04,4.788386420e-04,-7.579020597e-06,4.712596214e-04,-3.411965340e-04,-8.612199193e-05,-4.273185259e-04,-7.345192937e-04,-1.151657212e-04,-8.496850150e-04,-1.240753447e-03,-5.996944755e-05,-1.300722895e-03,-1.271832610e-03,-4.529092497e-05,-1.317123535e-03,-8.869866869e-04,-1.613568217e-04,-1.048343509e-03,-6.319807224e-04,-6.109155582e-05,-6.930722782e-04,-4.959869829e-04,-6.802963936e-05,-5.640166222e-04,-6.690994607e-04,-5.518815911e-05,-7.242876198e-04,-6.726039372e-04,-7.382564639e-05,-7.464295836e-04,-7.236703304e-04,-1.009837329e-04,-8.246540633e-04,-1.372782118e-03,1.041133308e-04,-1.268668787e-03,-1.044158464e-03,3.465962825e-05,-1.009498836e-03,-8.879261758e-04,4.559004334e-05,-8.423361325e-04
-5.4,1.386921739e-05,-4.945284514e-05,-3.558362775e-05,-9.843734421e-04,-2.509994018e-04,-1.235372844e-03,-8.898762252e-05,-3.637996869e-05,-1.253675912e-04,-3.698566021e-04,-1.390937432e-04,-5.089503453e-04,-2.814621625e-04,-2.175035499e-05,-3.032125175e-04,-6.897052302e-04,-6.700657357e-05,-7.567118037e-04,-1.376008948e-03,-2.597459500e-05,-1.401983543e-03,-1.232787221e-03,1.010966898e-05,-1.222677552e-03,-1.724059337e-03,-6.157431126e-05,-1.785633648e-03,-1.240793578e-03,4.625997789e-05,-1.194533600e-03,-6.019564526e-04,3.747898355e-05,-5.644774691e-04,-5.856815723e-04,-5.988870986e-05,-6.455702821e-04,-1.075769555e-03,-2.294067821e-06,-1.078063623e-03,-1.151728872e-03,-1.654988755e-04,-1.317227748e-03,-1.308874091e-03,-8.870006720e-05,-1.397574158e-03,-8.100711238e-04,-5.048960250e-05,-8.605607263e-04,-9.007927159e-04,-1.942788541e-05,-9.202206013e-04,-5.344731479e-04,1.100297124e-04,-4.244434355e-04,-5.994385751e-04,3.416689447e-05,-5.652716806e-04,-9.919571646e-04,-2.185047241e-06,-9.941422119e-04,9.259387527e-05,-6.187003360e-05,3.072384166e-05,-7.495672489e-04,-1.560990914e-04,-9.056663402e-04,4.169070283e-04,-5.395460235e-06,4.115115680e-04,-3.754001261e-04,-8.722516017e-05,-4.626252862e-04,-7.483880035e-04,-1.098539499e-04,-8.582419534e-04,-1.273146049e-03,-6.400244297e-05,-1.337148492e-03,-1.248340479e-03,-5.224359825e-05,-1.300584077e-03,-9.188239735e-04,-1.573524491e-04,-1.076176423e-03,-6.636037736e-04,-5.656953787e-05,-7.201733115e-04,-5.211614470e-04,-5.305809181e-05,-5.742195388e-04,-6.947675677e-04,-4.579989837e-05,-7.405674661e-04,-6.735357380e-04,-6.922547516e-05,-7.427612132e-04,-7.044657836e-04,-1.031032918e-04,-8.075690754e-04,-1.345872799e-03,1.098753010e-04,-1.235997498e-03,-1.041440454e-03,4.101390230e-05,-1.000426551e-03,-8.681287212e-04,4.738079740e-05,-8.207479238e-04
-5.3,6.017581221e-05,-4.775061816e-05,1.242519405e-05,-9.718266138e-04,-2.474956596e-04,-1.219322273e-03,-1.018857085e-04,-3.028442962e-05,-1.321701381e-04,-3.784057987e-04,-1.383696037e-04,-5.167754025e-04,-2.966697035e-04,-1.820094775e-05,-3.148706512e-04,-6.926613954e-04,-6.142214254e-05,-7.540835379e-04,-1.386592849e-03,-2.395187636e-05,-1.410544726e-03,-1.222093567e-03,1.826239097e-05,-1.203831176e-03,-1.697578268e-03,-5.846892265e-05,-1.756047190e-03,-1.190686455e-03,5.021803215e-05,-1.140468423e-03,-5.755688426e-04,4.255139328e-05,-5.330174493e-04,-6.132224753e-04,-6.281225677e-05,-6.760347320e-04,-1.113062738e-03,-2.158989551e-06,-1.115221728e-03,-1.177350232e-03,-1.672453251e-04,-1.344595557e-03,-1.356979404e-03,-8.788442514e-05,-1.444863829e-03,-8.279990207e-04,-4.260320472e-05,-8.706022254e-04,-9.125314806e-04,-1.381355038e-05,-9.263450310e-04,-5.244738444e-04,1.173446177e-04,-4.071292266e-04,-5.856200919e-04,3.875881595e-05,-5.468612759e-04,-9.650076520e-04,2.864534996e-07,-9.647211985e-04,6.596149310e-05,-5.860477269e-05,7.356720411e-06,-7.628590129e-04,-1.487040236e-04,-9.115630366e-04,3.522143928e-04,-3.164573174e-06,3.490498196e-04,-4.081516674e-04,-8.791613705e-05,-4.960678044e-04,-7.594177708e-04,-1.039713007e-04,-8.633890715e-04,-1.298969388e-03,-6.794926161e-05,-1.366918650e-03,-1.220987216e-03,-5.870099942e-05,-1.279688216e-03,-9.471042530e-04,-1.527940532e-04,-1.099898306e-03,-6.924809166e-04,-5.187271079e-05,-7.443536274e-04,-5.447583502e-04,-3.770588773e-05,-5.824642379e-04,-7.179016599e-04,-3.615620788e-05,-7.540578678e-04,-6.720513722e-04,-6.455832266e-05,-7.366096949e-04,-6.833607207e-04,-1.045807135e-04,-7.879414342e-04,-1.312804394e-03,1.141368143e-04,-1.198667579e-03,-1.035264739e-03,4.721071774e-05,-9.880540210e-04,-8.456121668e-04,4.887444262e-05,-7.967377242e-04
-5.2,1.061612719e-04,-4.571019947e-05,6.045107241e-05,-9.573750552e-04,-2.433395004e-04,-1.200714556e-03,-1.150632516e-04,-2.407166146e-05,-1.391349131e-04,-3.870382157e-04,-1.371704279e-04,-5.242086436e-04,-3.115431603e-04,-1.459073294e-05,-3.261338932e-04,-6.942493726e-04,-5.571135401e-05,-7.499607266e-04,-1.392237059e-03,-2.184753461e-05,-1.414084594e-03,-1.208381208e-03,2.640865925e-05,-1.181972549e-03,-1.665429567e-03,-5.522818613e-05,-1.720657753e-03,-1.138458042e-03,5.399149905e-05,-1.084466543e-03,-5.494654840e-04,4.749035466e-05,-5.019751294e-04,-6.378255295e-04,-6.571260320e-05,-7.035381327e-04,-1.144937682e-03,-1.584414653e-06,-1.146522097e-03,-1.198150086e-03,-1.681483682e-04,-1.366298454e-03,-1.399251909e-03,-8.664691405e-05,-1.485898823e-03,-8.424941233e-04,-3.483854091e-05,-8.773326643e-04,-9.204343935e-04,-8.229075695e-06,-9.286634692e-04,-5.127232280e-04,1.236313288e-04,-3.890918991e-04,-5.698825595e-04,4.296653925e-05,-5.269160203e-04,-9.360297798e-04,2.642124001e-06,-9.333876558e-04,3.667051504e-05,-5.510555024e-05,-1.843503520e-05,-7.747334209e-04,-1.410589788e-04,-9.157923997e-04,2.851616903e-04,-8.783788601e-07,2.842833115e-04,-4.392876310e-04,-8.819447229e-05,-5.274821033e-04,-7.675968457e-04,-9.759531579e-05,-8.651921615e-04,-1.318241261e-03,-7.181567528e-05,-1.390056937e-03,-1.189999389e-03,-6.460266138e-05,-1.254602050e-03,-9.716482982e-04,-1.477615879e-04,-1.119409886e-03,-7.185514455e-04,-4.702082871e-05,-7.655722742e-04,-5.666455116e-04,-2.208604137e-05,-5.887315529e-04,-7.384237417e-04,-2.633013016e-05,-7.647538719e-04,-6.682625357e-04,-5.983095393e-05,-7.280934897e-04,-6.605201283e-04,-1.054052704e-04,-7.659253986e-04,-1.273683770e-03,1.168954513e-04,-1.156788319e-03,-1.025681667e-03,5.318003134e-05,-9.725016360e-04,-8.205389754e-04,5.008888614e-05,-7.704500892e-04
-5.1,1.514951679e-04,-4.339764124e-05,1.080975267e-04,-9.411578537e-04,-2.385728056e-04,-1.179730659e-03,-1.284132403e-04,-1.778791462e-05,-1.462011549e-04,-3.957021829e-04,-1.355075525e-04,-5.312097354e-04,-3.260030475e-04,-1.093824101e-05,-3.369412885e-04,-6.944998543e-04,-4.990143306e-05,-7.444012874e-04,-1.392952352e-03,-1.967386590e-05,-1.412626218e-03,-1.191668373e-03,3.449769410e-05,-1.157170679e-03,-1.627761376e-03,-5.186699109e-05,-1.679628367e-03,-1.084213071e-03,5.756246989e-05,-1.026650601e-03,-5.236137210e-04,5.228304563e-05,-4.713306754e-04,-6.594838697e-04,-6.859560524e-05,-7.280794750e-04,-1.171345350e-03,-6.090711707e-07,-1.171954422e-03,-1.214122386e-03,-1.682164409e-04,-1.382338827e-03,-1.435588768e-03,-8.496613631e-05,-1.520554904e-03,-8.535438139e-04,-2.724385964e-05,-8.807876735e-04,-9.245214062e-04,-2.706490984e-06,-9.272278972e-04,-4.993119930e-04,1.288656030e-04,-3.704463900e-04,-5.523299894e-04,4.679871022e-05,-5.055312792e-04,-9.051386877e-04,4.879854699e-06,-9.002588330e-04,5.071537546e-06,-5.139050343e-05,-4.631896588e-05,-7.850454059e-04,-1.331954585e-04,-9.182408643e-04,2.161598446e-04,1.469198096e-06,2.176290427e-04,-4.686565556e-04,-8.806179453e-05,-5.567183501e-04,-7.729371787e-04,-9.080780052e-05,-8.637449792e-04,-1.331043264e-03,-7.560490844e-05,-1.406648172e-03,-1.155612810e-03,-6.989517533e-05,-1.225507986e-03,-9.923095763e-04,-1.423339413e-04,-1.134643518e-03,-7.417712888e-04,-4.203369566e-05,-7.838049845e-04,-5.867060535e-04,-6.312241066e-06,-5.930182945e-04,-7.562689227e-04,-1.639565426e-05,-7.726645770e-04,-6.622945720e-04,-5.504662482e-05,-7.173411968e-04,-6.361173309e-04,-1.055694909e-04,-7.416868218e-04,-1.228651601e-03,1.181608946e-04,-1.110490706e-03,-1.012753714e-03,5.885077319e-05,-9.539029406e-04,-7.930811676e-04,5.104593163e-05,-7.420352360e-04
-5,1.958584589e-04,-4.087814963e-05,1.549803093e-04,-9.233012076e-04,-2.332350867e-04,-1.156536294e-03,-1.418265308e-04,-1.147767042e-05,-1.533042012e-04,-4.043397691e-04,-1.333937622e-04,-5.377335313e-04,-3.399717067e-04,-7.261965225e-06,-3.472336719e-04,-6.934449197e-04,-4.401772727e-05,-7.374626469e-04,-1.388776574e-03,-1.744317672e-05,-1.406219751e-03,-1.171973443e-03,4.247681273e-05,-1.129496630e-03,-1.584739359e-03,-4.839980904e-05,-1.633139168e-03,-1.028045458e-03,6.091375628e-05,-9.671317013e-04,-4.979627042e-04,5.691663557e-05,-4.410460686e-04,-6.782225374e-04,-7.146477772e-05,-7.496873151e-04,-1.192304220e-03,7.245537764e-07,-1.191579666e-03,-1.225302851e-03,-1.674649593e-04,-1.392767810e-03,-1.465929933e-03,-8.282722566e-05,-1.548757158e-03,-8.611692007e-04,-1.985801156e-05,-8.810272122e-04,-9.248384646e-04,2.722374104e-06,-9.221160905e-04,-4.843381520e-04,1.330346557e-04,-3.513034963e-04,-5.330729319e-04,5.026792497e-05,-4.828050069e-04,-8.724476835e-04,7.001117758e-06,-8.654465657e-04,-2.846537109e-05,-4.747869089e-05,-7.594406198e-05,-7.936523315e-04,-1.251405275e-04,-9.187928591e-04,1.456244296e-04,3.882191929e-06,1.495066216e-04,-4.961206439e-04,-8.752246299e-05,-5.836431069e-04,-7.754813385e-04,-8.369288475e-05,-8.591742232e-04,-1.337525257e-03,-7.931809414e-05,-1.416843351e-03,-1.118074949e-03,-7.453140900e-05,-1.192606358e-03,-1.008979790e-03,-1.365882563e-04,-1.145568046e-03,-7.621136256e-04,-3.693063554e-05,-7.990442612e-04,-6.048425105e-04,9.503157578e-06,-5.953393529e-04,-7.713880077e-04,-6.427011632e-06,-7.778150193e-04,-6.542869373e-04,-5.020476016e-05,-7.044916975e-04,-6.103357527e-04,-1.050694866e-04,-7.154052393e-04,-1.177889703e-03,1.179554377e-04,-1.059934265e-03,-9.965563319e-04,6.415042316e-05,-9.324059088e-04,-7.634205386e-04,5.177084257e-05,-7.116496961e-04
-4.9,2.389453653e-04,-3.821588150e-05,2.007294838e-04,-9.039197345e-04,-2.273631780e-04,-1.131282912e-03,-1.551940775e-04,-5.183390561e-06,-1.603774681e-04,-4.128879239e-04,-1.308431212e-04,-5.437310450e-04,-3.533749089e-04,-3.580048914e-06,-3.569549578e-04,-6.911185007e-04,-3.808332885e-05,-7.292018296e-04,-1.379773550e-03,-1.516753603e-05,-1.394941086e-03,-1.149316173e-03,5.029186938e-05,-1.099024304e-03,-1.536545214e-03,-4.484064259e-05,-1.581385857e-03,-9.700388466e-04,6.402891059e-05,-9.060099360e-04,-4.724457091e-04,6.137826830e-05,-4.110674408e-04,-6.940956869e-04,-7.432025401e-05,-7.684159409e-04,-1.207893216e-03,2.367355087e-06,-1.205525861e-03,-1.231764098e-03,-1.659158097e-04,-1.397679907e-03,-1.490255016e-03,-8.022281419e-05,-1.570477830e-03,-8.654252850e-04,-1.270898598e-05,-8.781342710e-04,-9.214570856e-04,8.026424862e-06,-9.134306607e-04,-4.679073039e-04,1.361369929e-04,-3.317703110e-04,-5.122291631e-04,5.339025322e-05,-4.588389099e-04,-8.380669589e-04,9.010319444e-06,-8.290566395e-04,-6.355490105e-05,-4.338982596e-05,-1.069447270e-04,-8.004144481e-04,-1.169170583e-04,-9.173315064e-04,7.397336004e-05,6.362550805e-06,8.033591084e-05,-5.215544377e-04,-8.658420279e-05,-6.081386405e-04,-7.753023417e-04,-7.633478790e-05,-8.516371296e-04,-1.337900566e-03,-8.295417363e-05,-1.420854740e-03,-1.077642339e-03,-7.847032108e-05,-1.156112660e-03,-1.021588354e-03,-1.305994213e-04,-1.152187776e-03,-7.795656807e-04,-3.173000865e-05,-8.112956893e-04,-6.209759170e-04,2.525100965e-05,-5.957249073e-04,-7.837470960e-04,3.502292034e-06,-7.802448040e-04,-6.443905591e-04,-4.530067039e-05,-6.896912295e-04,-5.833665592e-04,-1.039051665e-04,-6.872717257e-04,-1.121623644e-03,1.163157792e-04,-1.005307865e-03,-9.771755953e-04,6.900472399e-05,-9.081708713e-04,-7.317465676e-04,5.229265855e-05,-6.794539091e-04
-4.8,2.804660159e-04,-3.547371397e-05,2.449923019e-04,-8.831167264e-04,-2.209908997e-04,-1.104107626e-03,-1.684067602e-04,1.054661809e-06,-1.673520984e-04,-4.212772129e-04,-1.278707682e-04,-5.491479811e-04,-3.661402872e-04,9.005215397e-08,-3.660502351e-04,-6.875537803e-04,-3.211879208e-05,-7.196725724e-04,-1.366027359e-03,-1.285854673e-05,-1.378885906e-03,-1.123715907e-03,5.788789683e-05,-1.065828011e-03,-1.483372267e-03,-4.120308040e-05,-1.524575348e-03,-9.102644727e-04,6.689215979e-05,-8.433723129e-04,-4.469798991e-04,6.565497217e-05,-3.813249269e-04,-7.071791375e-04,-7.715732606e-05,-7.843364636e-04,-1.218237350e-03,4.261449703e-06,-1.213975900e-03,-1.233604622e-03,-1.635962833e-04,-1.397200906e-03,-1.508574582e-03,-7.715366724e-05,-1.585728250e-03,-8.663951477e-04,-5.813007926e-06,-8.722081556e-04,-9.144697779e-04,1.317618931e-05,-9.012935886e-04,-4.501307407e-04,1.381829390e-04,-3.119478017e-04,-4.899218739e-04,5.618481754e-05,-4.337370564e-04,-8.020997059e-04,1.091391623e-05,-7.911857896e-04,-9.979779232e-05,-3.914402765e-05,-1.389418200e-04,-8.051929114e-04,-1.085440393e-04,-9.137369508e-04,1.627071288e-06,8.910188072e-06,1.053725936e-05,-5.448415701e-04,-8.525856341e-05,-6.301001335e-04,-7.724964697e-04,-6.881549041e-05,-8.413119601e-04,-1.332432388e-03,-8.650926939e-05,-1.418941658e-03,-1.034573050e-03,-8.167736335e-05,-1.116250414e-03,-1.030096077e-03,-1.244395281e-04,-1.154535605e-03,-7.941231386e-04,-2.644882748e-05,-8.205719660e-04,-6.350414675e-04,4.082696594e-05,-5.942145015e-04,-7.933247402e-04,1.332073370e-05,-7.800040065e-04,-6.327626533e-04,-4.032535326e-05,-6.730880066e-04,-5.554023028e-04,-1.020804418e-04,-6.574827446e-04,-1.060119777e-03,1.132943067e-04,-9.468254707e-04,-9.547033901e-04,7.333816322e-05,-8.813652269e-04,-6.982522139e-04,5.264500694e-05,-6.456072070e-04
-4.7,3.201494815e-04,-3.271295710e-05,2.874365244e-04,-8.609836280e-04,-2.141487512e-04,-1.075132379e-03,-1.813537657e-04,7.198548019e-06,-1.741552177e-04,-4.294292282e-04,-1.244927155e-04,-5.539219437e-04,-3.781939983e-04,3.731846130e-06,-3.744621522e-04,-6.827789581e-04,-2.614213732e-05,-7.089210955e-04,-1.347634663e-03,-1.052723932e-05,-1.358161902e-03,-1.095188702e-03,6.521003923e-05,-1.029978663e-03,-1.425419897e-03,-3.750043449e-05,-1.462920331e-03,-8.487778817e-04,6.948834478e-05,-7.792895369e-04,-4.214645766e-04,6.973355362e-05,-3.517310230e-04,-7.175614153e-04,-7.996492495e-05,-7.975263403e-04,-1.223491514e-03,6.339535843e-06,-1.217151978e-03,-1.230936488e-03,-1.605379658e-04,-1.391474454e-03,-1.520919982e-03,-7.362899947e-05,-1.594548982e-03,-8.641812484e-04,8.254233399e-07,-8.633558250e-04,-9.039833524e-04,1.814465153e-05,-8.858387009e-04,-4.311221917e-04,1.391958964e-04,-2.919262952e-04,-4.662759261e-04,5.867339008e-05,-4.076025361e-04,-7.646375192e-04,1.271961313e-05,-7.519179060e-04,-1.367809663e-04,-3.476150995e-05,-1.715424762e-04,-8.078472597e-04,-1.000368927e-04,-9.078841524e-04,-7.099052214e-05,1.152310721e-05,-5.946741494e-05,-5.658715811e-04,-8.356114690e-05,-6.494327280e-04,-7.671729933e-04,-6.121253425e-05,-8.283855276e-04,-1.321416707e-03,-8.997585680e-05,-1.411392564e-03,-9.891166127e-04,-8.412542465e-05,-1.073242037e-03,-1.034485780e-03,-1.181774132e-04,-1.152663193e-03,-8.057848871e-04,-2.110254568e-05,-8.268874328e-04,-6.469839085e-04,5.613255653e-05,-5.908513520e-04,-8.001084219e-04,2.296013631e-05,-7.771482856e-04,-6.195608370e-04,-3.526535768e-05,-6.548261947e-04,-5.266283875e-04,-9.960385202e-05,-6.262322395e-04,-9.936788781e-04,1.089591100e-04,-8.847197682e-04,-9.292327928e-04,7.707588590e-05,-8.521569069e-04,-6.631289421e-04,5.286669065e-05,-6.102622515e-04
-4.6,3.577463267e-04,-2.999306859e-05,3.277532581e-04,-8.375994989e-04,-2.068637508e-04,-1.044463250e-03,-1.939212171e-04,1.321271128e-05,-1.807085058e-04,-4.372543923e-04,-1.207257027e-04,-5.579800950e-04,-3.894578242e-04,7.329940222e-06,-3.821278839e-04,-6.768136113e-04,-2.016914389e-05,-6.969827552e-04,-1.324698594e-03,-8.184101012e-06,-1.332882695e-03,-1.063745950e-03,7.220483054e-05,-9.915411196e-04,-1.362889100e-03,-3.374586010e-05,-1.396634960e-03,-7.856166726e-04,7.180296746e-05,-7.138137052e-04,-3.957797384e-04,7.360058079e-05,-3.221791576e-04,-7.253369924e-04,-8.272452667e-05,-8.080615191e-04,-1.223827813e-03,8.525586217e-06,-1.215302227e-03,-1.223877003e-03,-1.567760338e-04,-1.380653037e-03,-1.527336243e-03,-6.966649137e-05,-1.597002735e-03,-8.588980389e-04,7.212418849e-06,-8.516856200e-04,-8.901132227e-04,2.290772901e-05,-8.672054936e-04,-4.109945272e-04,1.392135111e-04,-2.717810161e-04,-4.414138077e-04,6.087991400e-05,-3.805338938e-04,-7.257572350e-04,1.443584983e-05,-7.113213852e-04,-1.740787044e-04,-3.026221731e-05,-2.043409217e-04,-8.082342634e-04,-9.140783426e-05,-8.996420977e-04,-1.434521342e-04,1.419753842e-05,-1.292545958e-04,-5.845385835e-04,-8.151169735e-05,-6.660502808e-04,-7.594458498e-04,-5.359737016e-05,-8.130432200e-04,-1.305168578e-03,-9.334223896e-05,-1.398510816e-03,-9.415046703e-04,-8.579634002e-05,-1.027301010e-03,-1.034753584e-03,-1.118786004e-04,-1.146632184e-03,-8.145503019e-04,-1.570519066e-05,-8.302554926e-04,-6.567554364e-04,7.107572068e-05,-5.856797157e-04,-8.040923681e-04,3.235696354e-05,-7.717354045e-04,-6.049384063e-04,-3.010282658e-05,-6.350412329e-04,-4.972151877e-04,-9.648972176e-05,-5.937049095e-04,-9.226300262e-04,1.033929734e-04,-8.192370527e-04,-9.008565683e-04,8.014727985e-05,-8.207092885e-04,-6.265625723e-04,5.300133713e-05,-5.735612351e-04
-4.5,3.930299377e-04,-2.737143725e-05,3.656585004e-04,-8.130311423e-04,-1.991594574e-04,-1.012190600e-03,-2.059923555e-04,1.906395767e-05,-1.869283979e-04,-4.446514475e-04,-1.165871051e-04,-5.612385526e-04,-3.998483818e-04,1.087004599e-05,-3.889783358e-04,-6.696672693e-04,-1.421374395e-05,-6.838810132e-04,-1.297326435e-03,-5.839164682e-06,-1.303165600e-03,-1.029395924e-03,7.882169258e-05,-9.505742317e-04,-1.295980769e-03,-2.995238588e-05,-1.325933154e-03,-7.208008472e-04,7.382237640e-05,-6.469784708e-04,-3.697864772e-04,7.724250877e-05,-2.925439685e-04,-7.306037016e-04,-8.540980412e-05,-8.160135057e-04,-1.219429479e-03,1.073616371e-05,-1.208693315e-03,-1.212546899e-03,-1.523491021e-04,-1.364896001e-03,-1.527880327e-03,-6.529202228e-05,-1.593172349e-03,-8.506686184e-04,1.336281170e-05,-8.373058067e-04,-8.729810428e-04,2.744448622e-05,-8.455365566e-04,-3.898575727e-04,1.382877349e-04,-2.515698378e-04,-4.154529680e-04,6.282985764e-05,-3.526231103e-04,-6.855204680e-04,1.607151623e-05,-6.694489518e-04,-2.112562432e-04,-2.566555535e-05,-2.369217986e-04,-8.062092231e-04,-8.266633332e-05,-8.888755564e-04,-2.153293670e-04,1.692803319e-05,-1.984013339e-04,-6.007425883e-04,-7.913415023e-05,-6.798767385e-04,-7.494302687e-04,-4.603459625e-05,-7.954648650e-04,-1.284015807e-03,-9.659268336e-05,-1.380608490e-03,-8.919448759e-04,-8.668285175e-05,-9.786277276e-04,-1.030903775e-03,-1.056056661e-04,-1.136509441e-03,-8.204199087e-04,-1.026996266e-05,-8.306898713e-04,-6.643173744e-04,8.557107021e-05,-5.787463042e-04,-8.052777966e-04,4.145334543e-05,-7.638244512e-04,-5.890419727e-04,-2.481588062e-05,-6.138578533e-04,-4.673131857e-04,-9.275945563e-05,-5.600726413e-04,-8.473273337e-04,9.669126672e-05,-7.506360669e-04,-8.696698556e-04,8.249064178e-05,-7.871792138e-04,-5.887310926e-04,5.309587534e-05,-5.356352173e-04
-4.4,4.257963580e-04,-2.490326086e-05,4.008930972e-04,-7.873342473e-04,-1.910560953e-04,-9.783903426e-04,-2.174496971e-04,2.472138213e-05,-1.927283150e-04,-4.515090584e-04,-1.120948453e-04,-5.636039038e-04,-4.092790110e-04,1.433893220e-05,-3.949400788e-04,-6.613406580e-04,-8.288360516e-06,-6.696290185e-04,-1.265631444e-03,-3.502102783e-06,-1.269133547e-03,-9.921480757e-04,8.501435699e-05,-9.071337188e-04,-1.224897014e-03,-2.613286619e-05,-1.251029881e-03,-6.543362641e-04,7.553405098e-05,-5.788022131e-04,-3.433299342e-04,8.064589730e-05,-2.626840369e-04,-7.334642318e-04,-8.798699758e-05,-8.214512294e-04,-1.210491974e-03,1.288190692e-05,-1.197610067e-03,-1.197074456e-03,-1.472995252e-04,-1.344373981e-03,-1.522624519e-03,-6.053921067e-05,-1.583163729e-03,-8.396259904e-04,1.929798177e-05,-8.203280086e-04,-8.527164087e-04,3.173727328e-05,-8.209791354e-04,-3.678178917e-04,1.364834932e-04,-2.313343985e-04,-3.885054859e-04,6.454941535e-05,-3.239560705e-04,-6.439760096e-04,1.763569249e-05,-6.263403171e-04,-2.478760087e-04,-2.099033790e-05,-2.688663466e-04,-8.016298740e-04,-7.381965659e-05,-8.754495306e-04,-2.861972544e-04,1.970751742e-05,-2.664897369e-04,-6.143932835e-04,-7.645664077e-05,-6.908499243e-04,-7.372448715e-04,-3.858191017e-05,-7.758267817e-04,-1.258300240e-03,-9.970823591e-05,-1.358008476e-03,-8.406190242e-04,-8.679058339e-05,-9.274096076e-04,-1.022948508e-03,-9.941870956e-05,-1.122367217e-03,-8.233992049e-04,-4.810161061e-06,-8.282093659e-04,-6.696453441e-04,9.954028512e-05,-5.701050590e-04,-8.036755194e-04,5.019763701e-05,-7.534778824e-04,-5.720119218e-04,-1.937932277e-05,-5.913912445e-04,-4.370520546e-04,-8.844253766e-05,-5.254945922e-04,-7.681502469e-04,8.895827391e-05,-6.791919730e-04,-8.357759129e-04,8.405774132e-05,-7.517181715e-04,-5.498049895e-04,5.319826735e-05,-4.966067221e-04
-4.3,4.558628266e-04,-2.264150901e-05,4.332213175e-04,-7.605555279e-04,-1.825707481e-04,-9.431262760e-04,-2.281788472e-04,3.015626470e-05,-1.980225825e-04,-4.577092254e-04,-1.072672760e-04,-5.649765014e-04,-4.176639711e-04,1.772438311e-05,-3.999395880e-04,-6.518290994e-04,-2.404211037e-06,-6.542333104e-04,-1.229737773e-03,-1.182338775e-06,-1.230920112e-03,-9.520189618e-04,9.074191498e-05,-8.612770469e-04,-1.149844905e-03,-2.229990283e-05,-1.172144808e-03,-5.862206714e-04,7.692692419e-05,-5.092937473e-04,-3.162446286e-04,8.379764108e-05,-2.324469876e-04,-7.340303414e-04,-9.041573491e-05,-8.244460763e-04,-1.197229818e-03,1.486908771e-05,-1.182360731e-03,-1.177603174e-03,-1.416739792e-04,-1.319277154e-03,-1.511663174e-03,-5.544888152e-05,-1.567112056e-03,-8.259178479e-04,2.504370246e-05,-8.008741454e-04,-8.294618687e-04,3.577178044e-05,-7.936900883e-04,-3.449808454e-04,1.338763749e-04,-2.111044705e-04,-3.606801448e-04,6.606471683e-05,-2.946154279e-04,-6.011644294e-04,1.913729079e-05,-5.820271386e-04,-2.835058668e-04,-1.625487689e-05,-2.997607437e-04,-7.943623223e-04,-6.487336733e-05,-8.592356896e-04,-3.556404373e-04,2.252734116e-05,-3.331130962e-04,-6.254153028e-04,-7.351138522e-05,-6.989266880e-04,-7.230181175e-04,-3.129025343e-05,-7.543083709e-04,-1.228384417e-03,-1.026680105e-04,-1.331052427e-03,-7.876851126e-04,-8.613952896e-05,-8.738246415e-04,-1.010911818e-03,-9.337547506e-05,-1.104287294e-03,-8.235047979e-04,6.599539163e-07,-8.228448440e-04,-6.727362661e-04,1.129126171e-04,-5.598236490e-04,-7.993101902e-04,5.854452155e-05,-7.407656687e-04,-5.539853028e-04,-1.376556555e-05,-5.677508683e-04,-4.065430939e-04,-8.357710062e-05,-4.901201945e-04,-6.855068362e-04,8.030232482e-05,-6.052045114e-04,-7.992928663e-04,8.481721643e-05,-7.144756498e-04,-5.099499113e-04,5.335525763e-05,-4.565946537e-04
-4.2,4.830655338e-04,-2.063693683e-05,4.624285970e-04,-7.327355444e-04,-1.737177065e-04,-9.064532509e-04,-2.380731225e-04,3.534194753e-05,-2.027311749e-04,-4.631316647e-04,-1.021230448e-04,-5.652547095e-04,-4.249238720e-04,2.101516843e-05,-4.039087036e-04,-6.411268700e-04,3.428299872e-06,-6.376985701e-04,-1.189786597e-03,1.110822599e-06,-1.188675775e-03,-9.090383894e-04,9.596938517e-05,-8.130690042e-04,-1.071041308e-03,-1.846575101e-05,-1.089507059e-03,-5.164510342e-04,7.799170634e-05,-4.384593279e-04,-2.883612861e-04,8.668518235e-05,-2.016761038e-04,-7.324277260e-04,-9.265007645e-05,-8.250778024e-04,-1.179886066e-03,1.660149279e-05,-1.163284573e-03,-1.154299735e-03,-1.355240733e-04,-1.289823808e-03,-1.495120226e-03,-5.006844572e-05,-1.545188672e-03,-8.097126382e-04,3.062806801e-05,-7.790845702e-04,-8.033795269e-04,3.953697315e-05,-7.638425537e-04,-3.214544138e-04,1.305500148e-04,-1.909043990e-04,-3.320861839e-04,6.740119834e-05,-2.646849855e-04,-5.571236389e-04,2.058462057e-05,-5.365390183e-04,-3.177281847e-04,-1.147703722e-05,-3.292052219e-04,-7.842877603e-04,-5.583163373e-05,-8.401193940e-04,-4.232597806e-04,2.537734642e-05,-3.978824342e-04,-6.337535369e-04,-7.033437413e-05,-7.040879111e-04,-7.068966436e-04,-2.420386927e-05,-7.311005129e-04,-1.194659881e-03,-1.054507978e-04,-1.300110679e-03,-7.332823749e-04,-8.476463704e-05,-8.180470120e-04,-9.948359767e-04,-8.753070680e-05,-1.082366684e-03,-8.207713463e-04,6.124694053e-06,-8.146466522e-04,-6.736146594e-04,1.256251043e-04,-5.479895551e-04,-7.922250290e-04,6.645480733e-05,-7.257702216e-04,-5.350998668e-04,-7.945787613e-06,-5.430456544e-04,-3.758833990e-04,-7.821004663e-05,-4.540934456e-04,-5.998385291e-04,7.083102428e-05,-5.290075049e-04,-7.603593738e-04,8.475619538e-05,-6.756031785e-04,-4.693305829e-04,5.361057258e-05,-4.157200104e-04
-4.1,5.072572889e-04,-1.893809516e-05,4.883191937e-04,-7.039117053e-04,-1.645090407e-04,-8.684207460e-04,-2.470377739e-04,4.025371128e-05,-2.067840626e-04,-4.676579453e-04,-9.668096526e-05,-5.643389106e-04,-4.309907970e-04,2.420102378e-05,-4.067897732e-04,-6.292309540e-04,9.199054459e-06,-6.200318996e-04,-1.145941095e-03,3.368110968e-06,-1.142572984e-03,-8.632542871e-04,1.006679633e-04,-7.625863239e-04,-9.887171287e-04,-1.464219915e-05,-1.003359328e-03,-4.450304123e-04,7.872118216e-05,-3.663092301e-04,-2.595137960e-04,8.929671520e-05,-1.702170808e-04,-7.287990998e-04,-9.463974043e-05,-8.234388402e-04,-1.158740011e-03,1.798279874e-05,-1.140757213e-03,-1.127358799e-03,-1.289065931e-04,-1.256265392e-03,-1.473154546e-03,-4.445100914e-05,-1.517605555e-03,-7.912039853e-04,3.607949046e-05,-7.551244949e-04,-7.746570728e-04,4.302503696e-05,-7.316320359e-04,-2.973536548e-04,1.265938069e-04,-1.707598478e-04,-3.028373870e-04,6.858307999e-05,-2.342543070e-04,-5.118937608e-04,2.198492058e-05,-4.899088402e-04,-3.501480068e-04,-6.674200457e-06,-3.568222073e-04,-7.713081550e-04,-4.669737595e-05,-8.180055310e-04,-4.886779334e-04,2.824595112e-05,-4.604319822e-04,-6.393768256e-04,-6.696491811e-05,-7.063417437e-04,-6.890521040e-04,-1.736035923e-05,-7.064124632e-04,-1.157552660e-03,-1.080368773e-04,-1.265589537e-03,-6.775381461e-04,-8.271481184e-05,-7.602529580e-04,-9.747874043e-04,-8.193470924e-05,-1.056722114e-03,-8.152570580e-04,1.156687369e-05,-8.036901843e-04,-6.723357787e-04,1.376223814e-04,-5.347133973e-04,-7.824853230e-04,7.389498125e-05,-7.085903418e-04,-5.154973389e-04,-1.891396633e-06,-5.173887355e-04,-3.451597434e-04,-7.239662396e-05,-4.175563674e-04,-5.116238085e-04,6.064787127e-05,-4.509759372e-04,-7.191373594e-04,8.388003923e-05,-6.352573202e-04,-4.281140818e-04,5.400333781e-05,-3.741107440e-04
-4,5.283058982e-04,-1.759127006e-05,5.107146282e-04,-6.741207682e-04,-1.549553634e-04,-8.290761315e-04,-2.549924715e-04,4.486869007e-05,-2.101237815e-04,-4.711740561e-04,-9.095988943e-05,-5.621339456e-04,-4.358114150e-04,2.727267420e-05,-4.085387408e-04,-6.161426398e-04,1.489764888e-05,-6.012449909e-04,-1.098387932e-03,5.580320854e-06,-1.092807611e-03,-8.147347421e-04,1.048151978e-04,-7.099195443e-04,-9.031191153e-04,-1.084044925e-05,-9.139595646e-04,-3.719725209e-04,7.911041895e-05,-2.928621020e-04,-2.295446785e-04,9.162136415e-05,-1.379233143e-04,-7.233031922e-04,-9.633150630e-05,-8.196346985e-04,-1.134107952e-03,1.891883415e-05,-1.115189117e-03,-1.097001665e-03,-1.218829375e-04,-1.218884603e-03,-1.445960282e-03,-3.865401033e-05,-1.484614293e-03,-7.706106200e-04,4.142487861e-05,-7.291857414e-04,-7.435109891e-04,4.623148773e-05,-6.972795014e-04,-2.728042612e-04,1.221012914e-04,-1.507029698e-04,-2.730549130e-04,6.963276706e-05,-2.034221459e-04,-4.655195213e-04,2.334383203e-05,-4.421756893e-04,-3.803984151e-04,-1.863236110e-06,-3.822616512e-04,-7.553490296e-04,-3.747242942e-05,-7.928214590e-04,-5.515423492e-04,3.112027395e-05,-5.204220752e-04,-6.422785278e-04,-6.344509435e-05,-7.057236221e-04,-6.696829588e-04,-1.079082454e-05,-6.804737834e-04,-1.117521653e-03,-1.104096772e-04,-1.227931331e-03,-6.205750002e-04,-8.004956564e-05,-7.006245658e-04,-9.508593603e-04,-7.663156914e-05,-1.027490929e-03,-8.070453216e-04,1.696793860e-05,-7.900773830e-04,-6.689839342e-04,1.488564527e-04,-5.201274816e-04,-7.701788504e-04,8.083658273e-05,-6.893422677e-04,-4.953239026e-04,4.424180222e-06,-4.908997223e-04,-3.144502362e-04,-6.619934574e-05,-3.806495819e-04,-4.213779019e-04,4.985088982e-05,-3.715270121e-04,-6.758104636e-04,8.221063775e-05,-5.935998259e-04,-3.864703014e-04,5.456630968e-05,-3.319039917e-04
-3.9,5.460940255e-04,-1.664027918e-05,5.294537463e-04,-6.434000201e-04,-1.450667366e-04,-7.884667567e-04,-2.618710106e-04,4.916586467e-05,-2.127051459e-04,-4.735704050e-04,-8.497856101e-05,-5.585489661e-04,-4.393467643e-04,3.022192831e-05,-4.091248359e-04,-6.018659827e-04,2.051286990e-05,-5.813531128e-04,-1.047333685e-03,7.738439852e-06,-1.039595245e-03,-7.635659623e-04,1.083951269e-04,-6.551708354e-04,-8.145079234e-04,-7.071068119e-06,-8.215789915e-04,-2.973025997e-04,7.915679421e-05,-2.181458055e-04,-1.983076832e-04,9.364927972e-05,-1.046584035e-04,-7.161084887e-04,-9.767074108e-05,-8.137792298e-04,-1.106333443e-03,1.931882235e-05,-1.087014621e-03,-1.063467484e-03,-1.145176000e-04,-1.177985084e-03,-1.413760618e-03,-3.273726168e-05,-1.446497880e-03,-7.481700294e-04,4.668819116e-05,-7.014818382e-04,-7.101851304e-04,4.915542976e-05,-6.610297007e-04,-2.479434802e-04,1.171691210e-04,-1.307743592e-04,-2.428675514e-04,7.057018352e-05,-1.722973679e-04,-4.180490153e-04,2.466483199e-05,-3.933841833e-04,-4.081417298e-04,2.939452318e-06,-4.052022775e-04,-7.363582919e-04,-2.815781640e-05,-7.645161083e-04,-6.115249394e-04,3.398635987e-05,-5.775385795e-04,-6.424733627e-04,-5.981902317e-05,-7.022923859e-04,-6.490088417e-04,-4.519961630e-06,-6.535288034e-04,-1.075047413e-03,-1.125567187e-04,-1.187604131e-03,-5.625160247e-04,-7.683337610e-05,-6.393494008e-04,-9.231697078e-04,-7.165749227e-05,-9.948272001e-04,-7.962412125e-04,2.230816592e-05,-7.739330466e-04,-6.636657012e-04,1.592867955e-04,-5.043789058e-04,-7.554122568e-04,8.725558352e-05,-6.681566732e-04,-4.747267039e-04,1.102351474e-05,-4.637031891e-04,-2.838226262e-04,-5.968621571e-05,-3.435088419e-04,-3.296465432e-04,3.853311953e-05,-2.911134237e-04,-6.305777332e-04,7.978391870e-05,-5.507938145e-04,-3.445681598e-04,5.532396177e-05,-2.892441980e-04
-3.8,5.605208432e-04,-1.612608541e-05,5.443947578e-04,-6.117866496e-04,-1.348537005e-04,-7.466403501e-04,-2.676181358e-04,5.312614693e-05,-2.144919888e-04,-4.747392171e-04,-7.875544736e-05,-5.534946645e-04,-4.415685974e-04,3.304179798e-05,-4.085267995e-04,-5.864034645e-04,2.603225402e-05,-5.603712105e-04,-9.929967710e-04,9.833770757e-06,-9.831630002e-04,-7.098464176e-04,1.113982520e-04,-5.984481656e-04,-7.231526889e-04,-3.344051721e-06,-7.264967406e-04,-2.210546331e-04,7.885980908e-05,-1.421948240e-04,-1.656672200e-04,9.537162818e-05,-7.029559182e-05,-7.073827299e-04,-9.860309332e-05,-8.059858232e-04,-1.075768545e-03,1.909581386e-05,-1.056672731e-03,-1.026999152e-03,-1.068760611e-04,-1.133875213e-03,-1.376796484e-03,-2.676041646e-05,-1.403556901e-03,-7.241263453e-04,5.188938703e-05,-6.722369583e-04,-6.749443896e-04,5.179976415e-05,-6.231446254e-04,-2.229173795e-04,1.118962580e-04,-1.110211215e-04,-2.124090036e-04,7.141229875e-05,-1.409967049e-04,-3.695293529e-04,2.594883685e-05,-3.435805160e-04,-4.330669189e-04,7.717882768e-06,-4.253490362e-04,-7.143017531e-04,-1.875403372e-05,-7.330557868e-04,-6.683189432e-04,3.682952580e-05,-6.314894174e-04,-6.399916058e-04,-5.613185646e-05,-6.961234623e-04,-6.272581588e-04,1.434082899e-06,-6.258240759e-04,-1.030612486e-03,-1.144695569e-04,-1.145082043e-03,-5.034865891e-04,-7.312902703e-05,-5.766156161e-04,-8.918542428e-04,-6.703950704e-05,-9.588937498e-04,-7.829640348e-04,2.756689639e-05,-7.553971384e-04,-6.564997602e-04,1.688808240e-04,-4.876189362e-04,-7.383042525e-04,9.313190942e-05,-6.451723431e-04,-4.538469026e-04,1.792322061e-05,-4.359236819e-04,-2.533299244e-04,-5.292838659e-05,-3.062583110e-04,-2.369949531e-04,2.678446127e-05,-2.102104918e-04,-5.836435791e-04,7.664696066e-05,-5.069966184e-04,-3.025678462e-04,5.629066444e-05,-2.462771817e-04
-3.7,5.715049861e-04,-1.608629516e-05,5.554186909e-04,-5.793156685e-04,-1.243283962e-04,-7.036440647e-04,-2.721846451e-04,5.673253050e-05,-2.154521146e-04,-4.745705365e-04,-7.230859072e-05,-5.468791272e-04,-4.424537752e-04,3.572654336e-05,-4.067272318e-04,-5.697506130e-04,3.144177093e-05,-5.383088421e-04,-9.355977884e-04,1.185795865e-05,-9.237398298e-04,-6.536793462e-04,1.138213050e-04,-5.398580413e-04,-6.293241063e-04,3.310396215e-07,-6.289930666e-04,-1.432666599e-04,7.822078106e-05,-6.504587880e-05,-1.314957985e-04,9.678054240e-05,-3.471525607e-05,-6.972813418e-04,-9.907647577e-05,-7.963578175e-04,-1.042753045e-03,1.816791388e-05,-1.024585131e-03,-9.878291105e-04,-9.902276337e-05,-1.086851874e-03,-1.335314665e-03,-2.078018859e-05,-1.356094854e-03,-6.987157757e-04,5.704356874e-05,-6.416722070e-04,-6.380653738e-04,5.417110445e-05,-5.838942693e-04,-1.978750465e-04,1.063829708e-04,-9.149207563e-05,-1.818130569e-04,7.217299850e-05,-1.096400584e-04,-3.200013600e-04,2.719422933e-05,-2.928071307e-04,-4.548853632e-04,1.245654570e-05,-4.424288175e-04,-6.891574636e-04,-9.261252406e-06,-6.984187160e-04,-7.216349188e-04,3.963475996e-05,-6.820001588e-04,-6.348730509e-04,-5.242851708e-05,-6.873015679e-04,-6.046531264e-04,7.060085005e-06,-5.975930414e-04,-9.846789257e-04,-1.161430262e-04,-1.100821952e-03,-4.436128529e-04,-6.899185337e-05,-5.126047063e-04,-8.570582008e-04,-6.279480360e-05,-9.198530044e-04,-7.673390568e-04,3.272272979e-05,-7.346163270e-04,-6.476068010e-04,1.776144561e-04,-4.699923449e-04,-7.189781116e-04,9.844908763e-05,-6.205290240e-04,-4.328112281e-04,2.513203600e-05,-4.076791921e-04,-2.230058008e-04,-4.599752002e-05,-2.690033208e-04,-1.439961191e-04,1.469441201e-05,-1.293017071e-04,-5.352066987e-04,7.285484742e-05,-4.623518513e-04,-2.606112393e-04,5.746892631e-05,-2.031423130e-04
-3.6,5.789877579e-04,-1.655469747e-05,5.624330604e-04,-5.460174215e-04,-1.135057173e-04,-6.595231388e-04,-2.755226323e-04,5.997026904e-05,-2.155523633e-04,-4.729486551e-04,-6.565551880e-05,-5.386041739e-04,-4.419790349e-04,3.827159260e-05,-4.037074423e-04,-5.518917961e-04,3.672572055e-05,-5.151660755e-04,-8.753517567e-04,1.380293018e-05,-8.615488265e-04,-5.951664589e-04,1.156668756e-04,-4.794995833e-04,-5.332885698e-04,3.944961036e-06,-5.293436087e-04,-6.397660941e-05,7.724257366e-05,1.326596426e-05,-9.567146009e-05,9.786913037e-05,2.197670285e-06,-6.859385053e-04,-9.904324772e-05,-7.849817530e-04,-1.007599432e-03,1.646148759e-05,-9.911379440e-04,-9.461701317e-04,-9.101968402e-05,-1.037189816e-03,-1.289559719e-03,-1.484786602e-05,-1.304407585e-03,-6.721541752e-04,6.216016339e-05,-6.099940118e-04,-5.998273018e-04,5.627927510e-05,-5.435480267e-04,-1.729615188e-04,1.007292495e-04,-7.223226935e-05,-1.512083616e-04,7.286310168e-05,-7.834525997e-05,-2.694957795e-04,2.839733128e-05,-2.410984482e-04,-4.733275168e-04,1.714050425e-05,-4.561870125e-04,-6.609111604e-04,3.204938464e-07,-6.605906665e-04,-7.711979534e-04,4.238707394e-05,-7.288108794e-04,-6.271628893e-04,-4.875243389e-05,-6.759153232e-04,-5.813976346e-04,1.235407334e-05,-5.690435613e-04,-9.376700475e-04,-1.175744165e-04,-1.055244464e-03,-3.830187688e-04,-6.446655306e-05,-4.474853218e-04,-8.189291585e-04,-5.893089753e-05,-8.778600560e-04,-7.494915463e-04,3.775360041e-05,-7.117379459e-04,-6.371026508e-04,1.854724321e-04,-4.516302187e-04,-6.975560923e-04,1.031939817e-04,-5.943621107e-04,-4.117242120e-04,3.264876519e-05,-3.790754468e-04,-1.928624934e-04,-3.896309831e-05,-2.318255917e-04,-5.122231263e-05,2.355108274e-06,-4.886720435e-05,-4.854510649e-04,6.846744271e-05,-4.169836222e-04,-2.188136128e-04,5.884778488e-05,-1.599658279e-04
-3.5,5.829356157e-04,-1.756093453e-05,5.653746812e-04,-5.119156663e-04,-1.024043890e-04,-6.143200553e-04,-2.775823929e-04,6.282706920e-05,-2.147553237e-04,-4.697504093e-04,-5.881319602e-05,-5.285636053e-04,-4.401180230e-04,4.067339053e-05,-3.994446324e-04,-5.327986708e-04,4.186687031e-05,-4.909318005e-04,-8.124645070e-04,1.566080483e-05,-7.968037022e-04,-5.344047488e-04,1.169429814e-04,-4.174617674e-04,-4.353051524e-04,7.488721157e-06,-4.278164312e-04,1.677946567e-05,7.592945119e-05,9.270891686e-05,-5.807692399e-05,9.863156528e-05,4.055464129e-05,-6.734632614e-04,-9.846233977e-05,-7.719256011e-04,-9.705866710e-04,1.391551016e-05,-9.566711608e-04,-9.022133331e-04,-8.292570508e-05,-9.851390382e-04,-1.239771780e-03,-9.007536093e-06,-1.248779316e-03,-6.446301503e-04,6.724218980e-05,-5.773879605e-04,-5.605057834e-04,5.813648129e-05,-5.023693021e-04,-1.483114266e-04,9.503258199e-05,-5.327884457e-05,-1.207145354e-04,7.349028346e-05,-4.722425199e-05,-2.180324323e-04,2.955312062e-05,-1.884793117e-04,-4.881420697e-04,2.175540604e-05,-4.663866636e-04,-6.295541838e-04,9.990944288e-06,-6.195632396e-04,-8.167473544e-04,4.507175408e-05,-7.716756003e-04,-6.169103788e-04,-4.514452887e-05,-6.620549077e-04,-5.576713511e-04,1.731931073e-05,-5.403520403e-04,-8.899609767e-04,-1.187630553e-04,-1.008724032e-03,-3.218231790e-04,-5.958726584e-05,-3.814104448e-04,-7.776133537e-04,-5.544649539e-05,-8.330598491e-04,-7.295445765e-04,4.263669115e-05,-6.869078854e-04,-6.250958777e-04,1.924481552e-04,-4.326477225e-04,-6.741570936e-04,1.073565670e-04,-5.668005266e-04,-3.906628080e-04,4.046016060e-05,-3.502026474e-04,-1.628926590e-04,-3.188992779e-05,-1.947825868e-04,4.075889312e-05,-1.013598855e-05,3.062290458e-05,-4.345409576e-04,6.354634289e-05,-3.709946147e-04,-1.772593820e-04,6.040197588e-05,-1.168574061e-04
