Time,S1D1HbO,S1D1HbR,S1D1HbT,S2D2HbO,S2D2HbR,S2D2HbT,S3D3HbO,S3D3HbR,S3D3HbT,S4D4HbO,S4D4HbR,S4D4HbT,S5D5HbO,S5D5HbR,S5D5HbT,S6D6HbO,S6D6HbR,S6D6HbT,S7D7HbO,S7D7HbR,S7D7HbT,S8D8HbO,S8D8HbR,S8D8HbT,S9D9HbO,S9D9HbR,S9D9HbT,S10D10HbO,S10D10HbR,S10D10HbT,S11D11HbO,S11D11HbR,S11D11HbT,S12D12HbO,S12D12HbR,S12D12HbT,S13D13HbO,S13D13HbR,S13D13HbT,S14D14HbO,S14D14HbR,S14D14HbT,S15D15HbO,S15D15HbR,S15D15HbT,S16D16HbO,S16D16HbR,S16D16HbT,S17D17HbO,S17D17HbR,S17D17HbT,S18D18HbO,S18D18HbR,S18D18HbT,S19D19HbO,S19D19HbR,S19D19HbT,S20D20HbO,S20D20HbR,S20D20HbT,S21D21HbO,S21D21HbR,S21D21HbT,S22D22HbO,S22D22HbR,S22D22HbT,S23D23HbO,S23D23HbR,S23D23HbT,S24D24HbO,S24D24HbR,S24D24HbT,S25D25HbO,S25D25HbR,S25D25HbT,S26D26HbO,S26D26HbR,S26D26HbT,S27D27HbO,S27D27HbR,S27D27HbT,S28D28HbO,S28D28HbR,S28D28HbT,S29D29HbO,S29D29HbR,S29D29HbT,S30D30HbO,S30D30HbR,S30D30HbT,S31D31HbO,S31D31HbR,S31D31HbT,S32D32HbO,S32D32HbR,S32D32HbT,S33D33HbO,S33D33HbR,S33D33HbT,S34D34HbO,S34D34HbR,S34D34HbT,S35D35HbO,S35D35HbR,S35D35HbT,S36D36HbO,S36D36HbR,S36D36HbT
0.0,-0.0001096488769,1.724878927e-05,-9.240008763e-05,-0.0002020709964,8.302484967e-05,-0.0001190461467,-0.0001661233344,0.0001897939391,2.367060463e-05,-0.0005225594943,0.0002492608684,-0.0002732986259,-0.0009910820798,0.000593089599,-0.0003979924808,-0.0005098768425,0.0005067542945,-3.122548019e-06,-0.0003417411072,0.0002567839564,-8.495715086e-05,2.204276731e-05,0.0001596301965,0.0001816729639,0.0003119217751,-9.818277317e-05,0.000213739002,0.0004847976208,-0.0002212012682,0.0002635963526,0.0002548763263,4.634217469e-05,0.000301218501,-0.001117353223,0.0006308979236,-0.0004864552993,1.992983059e-05,0.0001420029938,0.0001619328244,0.0005056759953,-4.334403128e-05,0.000462331964,0.0006933323269,-0.000155575278,0.000537757049,0.0008314026395,-0.0005578891414,0.000273513498,0.0007285499255,-0.0005992210478,0.0001293288777,-0.0001189804641,0.0001039276742,-1.505278982e-05,-0.000269931123,6.898315576e-05,-0.0002009479673,0.0006228591416,-0.000227276088,0.0003955830537,1.419492555e-05,1.421985244e-06,1.561691079e-05,0.0003150616017,-0.000104851418,0.0002102101838,0.0003306862723,-0.0002376512252,9.303504704e-05,1.380771066e-05,-0.0002898493114,-0.0002760416007,0.000327772169,5.738000515e-05,0.0003851521741,-0.0003067396111,0.0004073480166,0.0001006084055,-0.0002474586322,0.0003871894802,0.000139730848,7.920151928e-05,-3.633817859e-05,4.286334069e-05,0.0004448003509,-0.0002468520184,0.0001979483325,4.246155887e-05,-0.0003919561536,-0.0003494945947,-0.0001134166037,-0.0002106518272,-0.0003240684309,-0.0005804030424,-0.0005181758314,-0.001098578874,0.000545020911,4.755312207e-05,0.0005925740331,7.614328604e-05,-0.0001136795167,-3.753623065e-05,1.199965907e-05,-0.0001036195492,-9.161989011e-05,-0.0003221982189,-7.240101037e-05,-0.0003945992293
0.1,-9.281608455e-05,2.324843687e-05,-6.956764768e-05,-0.0001873546931,8.633923796e-05,-0.0001010154551,-0.0001627234446,0.0001988424192,3.611897462e-05,-0.0005470439902,0.000250936642,-0.0002961073481,-0.001028534755,0.0006093313794,-0.0004192033754,-0.000533573224,0.0005186148179,-1.495840605e-05,-0.0003739644333,0.0002602295944,-0.0001137348389,4.700715762e-06,0.000163008029,0.0001677087448,0.000331177079,-0.0001003766973,0.0002308003817,0.0004708672047,-0.0002296806952,0.0002411865095,0.0002737643363,3.719796636e-05,0.0003109623027,-0.001130026494,0.0006437047153,-0.000486321779,2.733455169e-05,0.0001268151879,0.0001541497396,0.0005273921142,-5.007385353e-05,0.0004773182607,0.000719311538,-0.0001651594735,0.0005541520645,0.0008108386203,-0.0005648396103,0.00024599901,0.0006563556311,-0.0005875499815,6.880564951e-05,-0.0002056723146,0.0001167989381,-8.887337648e-05,-0.0003477455204,6.93272756e-05,-0.0002784182448,0.000636073805,-0.000231655591,0.000404418214,3.815918091e-05,-7.91487131e-07,3.736769378e-05,0.0003235633041,-0.0001030437414,0.0002205195627,0.0003546266214,-0.0002413892503,0.0001132373711,1.128379693e-05,-0.0002920780438,-0.0002807942469,0.0002959078868,6.728858956e-05,0.0003631964763,-0.0003157473523,0.0004149990776,9.925172529e-05,-0.0003077487005,0.0004371067355,0.000129358035,6.523363668e-05,-3.410593839e-05,3.112769829e-05,0.0004338405471,-0.0002510074342,0.0001828331128,-5.66846257e-05,-0.0004006623272,-0.0004573469528,-0.000170040715,-0.000223593416,-0.0003936341311,-0.0007355654051,-0.0005351893225,-0.001270754728,0.0005030031417,4.946305154e-05,0.0005524661933,-5.211293909e-06,-0.0001172475451,-0.000122458839,-6.098291442e-05,-0.0001055830808,-0.0001665659952,-0.0003978483666,-9.309546981e-05,-0.0004909438364
0.2,-7.704226472e-05,2.88059774e-05,-4.823628733e-05,-0.0001731687668,8.895833919e-05,-8.421042763e-05,-0.0001598984064,0.0002065190315,4.662062513e-05,-0.0005724120276,0.0002509703541,-0.0003214416735,-0.001065723042,0.0006229554936,-0.0004427675484,-0.0005576674148,0.0005287769612,-2.88904536e-05,-0.0004077507524,0.0002623807099,-0.0001453700425,-1.308399637e-05,0.0001655287294,0.0001524447331,0.0003502971936,-0.0001032925595,0.0002470046341,0.0004556251132,-0.0002390220299,0.0002166030833,0.0002910985952,2.712769323e-05,0.0003182262884,-0.001136921964,0.0006540280085,-0.0004828939552,3.89242239e-05,0.0001094987197,0.0001484229436,0.0005499245432,-5.766959869e-05,0.0004922549445,0.0007463392931,-0.0001761990783,0.0005701402148,0.0007882908923,-0.0005702778103,0.000218013082,0.0005805434531,-0.000575386828,5.156625155e-06,-0.0002926031796,0.0001284462097,-0.00016415697,-0.0004255369962,6.801857074e-05,-0.0003575184255,0.0006501301618,-0.0002364007395,0.0004137294224,6.260348538e-05,-3.637851966e-06,5.896563342e-05,0.0003324333117,-0.0001014382471,0.0002309950646,0.0003783519531,-0.0002452471853,0.0001331047678,8.687819242e-06,-0.0002943032989,-0.0002856154797,0.0002664274493,7.523038022e-05,0.0003416578295,-0.0003208710625,0.0004201295964,9.925853392e-05,-0.0003641754881,0.0004842208159,0.0001200453278,5.322296051e-05,-3.261230706e-05,2.061065344e-05,0.0004238880278,-0.0002550307962,0.0001688572316,-0.0001545244804,-0.0004099161014,-0.0005644405817,-0.0002262658477,-0.0002371228124,-0.0004633886601,-0.0008931924929,-0.0005511706325,-0.001444363125,0.0004594605464,5.103630761e-05,0.000510496854,-8.627437258e-05,-0.000121380971,-0.0002076553436,-0.0001350135439,-0.000105545263,-0.0002405588069,-0.0004707733313,-0.0001138572522,-0.0005846305836
0.3,-6.243800842e-05,3.386467171e-05,-2.857333672e-05,-0.0001595951854,9.084244238e-05,-6.875274302e-05,-0.0001576682088,0.0002127866387,5.511842991e-05,-0.0005983340945,0.0002493794065,-0.000348954688,-0.001102528044,0.000633906407,-0.000468621637,-0.0005820278049,0.0005371715732,-4.485623173e-05,-0.0004429869189,0.0002632185287,-0.0001797683902,-3.121516327e-05,0.0001671473273,0.000135932164,0.0003691504377,-0.0001069603477,0.0002621900899,0.000439163174,-0.0002492431786,0.0001899199953,0.0003067492585,1.614823873e-05,0.0003228974972,-0.001137941295,0.0006617298074,-0.0004762114875,5.477855976e-05,9.015030403e-05,0.0001449288638,0.0005732393463,-6.616543766e-05,0.0005070739086,0.0007745373832,-0.0001887829634,0.0005857544198,0.0007640214374,-0.0005741652023,0.0001898562351,0.00050187295,-0.0005629904597,-6.111750972e-05,-0.000378968792,0.0001386732626,-0.0002402955295,-0.0005028559876,6.51386986e-05,-0.000437717289,0.0006650785168,-0.0002415761404,0.0004235023765,8.742158502e-05,-7.138252271e-06,8.028333275e-05,0.0003417125017,-0.0001000922901,0.0002416202117,0.0004017717753,-0.0002492412602,0.000152530515,6.005318875e-06,-0.0002965296747,-0.0002905243558,0.0002395459279,8.117550724e-05,0.0003207214352,-0.0003222549366,0.0004227902386,0.000100535302,-0.0004161746938,0.0005281152257,0.0001119405319,4.334594182e-05,-3.190909269e-05,1.143684913e-05,0.0004150835888,-0.0002589085252,0.0001561750637,-0.0002503685906,-0.0004196662031,-0.0006700347937,-0.0002816833041,-0.0002512214841,-0.0005329047882,-0.001052406739,-0.00056608517,-0.001618491909,0.0004148108951,5.224642269e-05,0.0004670573178,-0.0001663706559,-0.0001261112555,-0.0002924819115,-0.000209521645,-0.0001034483064,-0.0003129699514,-0.0005403818164,-0.000134502005,-0.0006748838213
0.4,-4.910343811e-05,3.836868633e-05,-1.073475178e-05,-0.000146708123,9.195586498e-05,-5.475225799e-05,-0.0001560373197,0.000217620581,6.158326125e-05,-0.0006244351805,0.0002461970264,-0.000378238154,-0.001138813302,0.0006421497257,-0.0004966635764,-0.0006064993561,0.0005437371612,-6.276219487e-05,-0.0004795266009,0.0002627389308,-0.0002167876701,-4.958686259e-05,0.0001678295233,0.0001182426607,0.0003876014054,-0.0001114034097,0.0002761979958,0.000421586122,-0.0002603499152,0.0001612362068,0.000320597228,4.280777456e-06,0.0003248780055,-0.001133064754,0.0006666973319,-0.0004663674224,7.491568576e-05,6.889592543e-05,0.0001438116112,0.0005973002797,-7.559493027e-05,0.0005217053494,0.0008040227313,-0.0002029844974,0.0006010382339,0.0007383162514,-0.0005764802488,0.0001618360026,0.0004211774612,-0.0005506197177,-0.0001294422565,-0.0004639205121,0.0001472978123,-0.0003166226998,-0.0005792325185,6.080366568e-05,-0.0005184288528,0.000680955502,-0.0002472445466,0.0004337109554,0.0001125002302,-1.131299478e-05,0.0001011872354,0.000351435734,-9.906282762e-05,0.0002523729064,0.0004247950626,-0.0002533875928,0.0001714074699,3.225074453e-06,-0.0002987622654,-0.000295537191,0.0002154284065,8.512430575e-05,0.0003005527123,-0.0003200959451,0.0004230507678,0.0001029548227,-0.0004632645358,0.0005684693826,0.0001052048468,3.575973743e-05,-3.203838932e-05,3.721348117e-06,0.000407556772,-0.0002626256341,0.0001449311378,-0.0003435550282,-0.0004298359482,-0.0007733909764,-0.0003358905443,-0.0002658525818,-0.0006017431261,-0.001212288404,-0.0005798970541,-0.001792185458,0.0003695008895,5.30727019e-05,0.0004225735914,-0.0002448161034,-0.0001314607804,-0.0003762768838,-0.0002838935435,-9.928406976e-05,-0.0003831776132,-0.0006061207652,-0.0001548483341,-0.0007609690993
0.5,-3.712548051e-05,4.226434556e-05,5.13886505e-06,-0.0001345732005,9.226774877e-05,-4.230545175e-05,-0.0001549933045,0.0002210093262,6.601602171e-05,-0.000650299391,0.0002414720579,-0.000408827333,-0.001174426091,0.000647672503,-0.0005267535878,-0.000630904674,0.0005484218978,-8.248277623e-05,-0.00051718998,0.000260953438,-0.000256236542,-6.808317025e-05,0.0001675522768,9.946910659e-05,0.0004055117275,-0.0001166378396,0.000288873888,0.0004030113073,-0.0002723358782,0.000130675429,0.0003325347082,-8.448702749e-06,0.0003240860055,-0.001122351642,0.0006688436942,-0.0004535079478,9.928891627e-05,4.589064592e-05,0.0001451795622,0.0006220673567,-8.598908576e-05,0.0005360782709,0.0008349044404,-0.0002188609575,0.0006160434828,0.0007114771434,-0.0005772174706,0.0001342596728,0.0003393487446,-0.0005385256722,-0.0001991769276,-0.0005465765223,0.0001541543455,-0.0003924221768,-0.000654177579,5.515975101e-05,-0.000599017828,0.0006977825371,-0.0002534650363,0.0004443175007,0.000137719406,-1.618106385e-05,0.0001215383422,0.0003616305606,-9.840544038e-05,0.0002632251202,0.0004473304897,-0.0002577019043,0.0001896285854,3.394995507e-07,-0.0003010064481,-0.0003006669485,0.0001941954445,8.710141399e-05,0.0002812968585,-0.0003146421174,0.000421000227,0.0001063581096,-0.0005050561251,0.0006050623536,0.0001000062284,3.060146738e-05,-3.303375446e-05,-2.432287076e-06,0.0004014247666,-0.0002661666354,0.0001352581312,-0.0004334547544,-0.0004403263493,-0.0008737811037,-0.0003884962883,-0.000280960412,-0.0006694567003,-0.001371882457,-0.0005925697441,-0.001964452201,0.0003240010023,5.350013187e-05,0.0003775011342,-0.0003209269297,-0.0001374430229,-0.0004583699526,-0.00035747888,-9.309674368e-05,-0.0004505756237,-0.0006674873966,-0.000174719665,-0.0008422070616
0.6,-2.657569325e-05,4.550164018e-05,1.892594693e-05,-0.0001232472936,9.175288244e-05,-3.149441116e-05,-0.0001545062581,0.0002229550904,6.844883231e-05,-0.0006754768221,0.0002352684498,-0.0004402083723,-0.001209199766,0.0006504834318,-0.0005587163339,-0.0006550462733,0.0005511855577,-0.0001038607157,-0.0005557646956,0.0002578899996,-0.000297874696,-8.657855866e-05,0.0001663041164,7.972555775e-05,0.00042274068,-0.000122671831,0.000300068849,0.0003835677312,-0.0002851826682,9.838506307e-05,0.0003424656308,-2.200873137e-05,0.0003204568995,-0.001105939168,0.0006681079762,-0.0004378311918,0.0001277852569,2.13167964e-05,0.0001491020533,0.000647493958,-9.737389502e-05,0.0005501200629,0.0008672797199,-0.0002364536952,0.0006308260247,0.0006838130342,-0.0005763868041,0.0001074262302,0.0002573168095,-0.0005269435292,-0.0002696267197,-0.0006260383392,0.0001590984895,-0.0004669398497,-0.0007271872619,4.837906107e-05,-0.0006788082008,0.0007155638426,-0.0002602911707,0.0004552726719,0.0001629521231,-2.175942001e-05,0.0001411927031,0.0003723153133,-9.817324117e-05,0.0002741420722,0.0004692864049,-0.0002621990278,0.0002070873772,-2.655302976e-06,-0.0003032675695,-0.0003059228725,0.0001759298294,8.71485314e-05,0.0002630783608,-0.0003061883244,0.0004167459019,0.0001105575775,-0.0005412636466,0.0006377727824,9.650913586e-05,2.798757699e-05,-3.492209924e-05,-6.934522244e-06,0.0003967900909,-0.0002695160833,0.0001272740076,-0.000519478183,-0.0004510199173,-0.0009704981004,-0.0004391255622,-0.0002964709333,-0.0007355964955,-0.001530206794,-0.0006040673754,-0.002134274169,0.000278798017,5.351941991e-05,0.0003323174369,-0.0003940308828,-0.000144062497,-0.0005380933797,-0.0004296007156,-8.498288642e-05,-0.000514583602,-0.0007240403486,-0.0001939469869,-0.0009179873355
0.7,-1.750864765e-05,4.80358647e-05,3.052721705e-05,-0.0001127787672,9.039248804e-05,-2.238627912e-05,-0.0001545286599,0.0002234744227,6.894576277e-05,-0.0006994923093,0.0002276643357,-0.0004718279736,-0.001242956568,0.0006506129455,-0.0005923436226,-0.0006787097233,0.0005520011472,-0.0001267085761,-0.0005950076833,0.0002535935182,-0.0003414141651,-0.000104938789,0.000164085321,5.914653197e-05,0.0004391459668,-0.0001295050006,0.0003096409661,0.0003633947454,-0.000298859955,6.453479038e-05,0.0003503063921,-3.636160441e-05,0.0003139447877,-0.001084039558,0.0006644548881,-0.0004195846695,0.0001602265719,-4.619459495e-06,0.0001556071124,0.0006735234946,-0.0001097676209,0.0005637558737,0.0009012287131,-0.0002557880417,0.0006454406713,0.000655631746,-0.0005740132392,8.161850677e-05,0.0001760269657,-0.0005160847813,-0.0003400578156,-0.0007014113484,0.000162012117,-0.0005393992314,-0.0007977480575,4.06541828e-05,-0.0007570938747,0.0007342848942,-0.0002677691957,0.0004665156985,0.000188064387,-2.806218627e-05,0.0001600022007,0.0003834972506,-9.841569756e-05,0.0002850815531,0.0004905711274,-0.0002668922749,0.0002236788525,-5.75946116e-06,-0.0003055505764,-0.0003113100376,0.0001606838687,8.531635769e-05,0.0002460002264,-0.0002950695643,0.0004104110628,0.0001153414985,-0.0005717149021,0.0006665772099,9.486230782e-05,2.801314235e-05,-3.772553205e-05,-9.7123897e-06,0.0003937380395,-0.0002726588263,0.0001210792132,-0.0006010819516,-0.0004617850172,-0.001062866969,-0.0004874239077,-0.0003122933271,-0.0007997172348,-0.001686262788,-0.0006143559465,-0.002300618735,0.0002343859299,5.312746806e-05,0.0002875133979,-0.0004634793743,-0.0001513147177,-0.000614794092,-0.0004995677944,-7.508897098e-05,-0.0005746567654,-0.0007754082505,-0.0002123722733,-0.0009877805237
0.8,-9.960590416e-06,4.98291868e-05,3.986859638e-05,-0.0001032078053,8.817492169e-05,-1.503288356e-05,-0.0001549950818,0.0002225987292,6.760364739e-05,-0.0007218555056,0.0002187506839,-0.0005031048218,-0.001275510271,0.0006481132078,-0.0006273970629,-0.0007016672223,0.0005508561316,-0.0001508110907,-0.0006346475417,0.000248126085,-0.0003865214567,-0.0001230220665,0.0001609081412,3.78860747e-05,0.0004545850609,-0.000137127746,0.0003174573149,0.0003426408014,-0.0003133256204,2.931518099e-05,0.0003559872785,-5.146266691e-05,0.0003045246116,-0.001056935149,0.000657874605,-0.0003990605437,0.000196373657,-3.16926109e-05,0.0001646810461,0.0007000869503,-0.0001231783004,0.0005769086499,0.0009368089914,-0.0002768721475,0.0006599368439,0.0006272340541,-0.0005701369491,5.709710502e-05,9.641730395e-05,-0.0005061305701,-0.0004097132662,-0.0007718266657,0.0001628078938,-0.0006090187719,-0.0008653421719,3.219178473e-05,-0.0008331503872,0.0007539122002,-0.0002759364202,0.00047797578,0.0002129161259,-3.509992381e-05,0.0001778162021,0.0003951715327,-9.917748843e-05,0.0002959940443,0.0005110941557,-0.0002717927467,0.000239301409,-8.96878792e-06,-0.0003078596242,-0.0003168284121,0.0001484865261,8.165656912e-05,0.0002301430953,-0.0002816531034,0.0004021324601,0.0001204793567,-0.0005963580339,0.0006915450216,9.518698776e-05,3.075080495e-05,-4.146227646e-05,-1.071147151e-05,0.0003923349351,-0.0002755801491,0.000116754786,-0.0006777747077,-0.0004724806669,-0.001150255375,-0.0005330607027,-0.0003283223563,-0.000861383059,-0.001839048899,-0.0006234035197,-0.002462452418,0.0001912562321,5.23283683e-05,0.0002435846004,-0.0005286588906,-0.0001591864961,-0.0006878453868,-0.0005666871386,-6.360720485e-05,-0.0006302943435,-0.00082129522,-0.0002298518351,-0.001051147055
0.9,-3.948085253e-06,5.085203883e-05,4.690395358e-05,-9.456648627e-05,8.50962897e-05,-9.470196563e-06,-0.0001558213479,0.0002203746762,6.455332831e-05,-0.0007420718663,0.0002086295467,-0.0005334423195,-0.001306668294,0.0006430579079,-0.0006636103864,-0.0007236812679,0.0005477532723,-0.0001759279956,-0.0006743872254,0.0002415667964,-0.000432820429,-0.0001406802202,0.000156797023,1.611680278e-05,0.000468917384,-0.0001455207642,0.0003233966198,0.0003214624882,-0.0003285260721,-7.063583969e-06,0.0003594547639,-6.725979639e-05,0.0002921949675,-0.001024971214,0.0006483832124,-0.0003765880011,0.0002359332187,-5.966287712e-05,0.0001762703416,0.0007271022219,-0.000137601804,0.000589500418,0.0009740512738,-0.0002996949629,0.0006743563109,0.0005989112092,-0.0005648140774,3.40971318e-05,1.939886648e-05,-0.0004972270248,-0.0004778281584,-0.0008364620413,0.0001614327514,-0.0006750292899,-0.0009294530178,2.320607142e-05,-0.0009062469464,0.0007743947407,-0.0002848198868,0.0004895748539,0.0002373635461,-4.287906313e-05,0.000194484483,0.0004073214173,-0.0001004974964,0.0003068239208,0.0005307685157,-0.0002769086103,0.0002538599054,-1.227355356e-05,-0.0003101976839,-0.0003224712374,0.0001393499645,7.621502405e-05,0.0002155649886,-0.000266330516,0.0003920582464,0.0001257277304,-0.000615260085,0.0007128272313,9.756714627e-05,3.624900977e-05,-4.61460893e-05,-9.897079535e-06,0.0003926276993,-0.0002782658863,0.000114361813,-0.0007491216281,-0.0004829613788,-0.001232083007,-0.0005757318269,-0.0003444411047,-0.0009201729316,-0.001987576256,-0.0006311798889,-0.002618756145,0.0001498888526,5.113443616e-05,0.0002010232888,-0.0005890008529,-0.0001676567441,-0.000756657597,-0.0006302761885,-5.077009686e-05,-0.0006810462854,-0.0008614834516,-0.0002462589612,-0.001107742413
1.0,5.333678244e-07,5.108434486e-05,5.161771268e-05,-8.687847327e-05,8.116098289e-05,-5.71749038e-06,-0.0001569033466,0.0002168643369,5.99609903e-05,-0.0007596545314,0.0001974119119,-0.0005622426195,-0.001336233459,0.0006355416797,-0.0007006917793,-0.0007445084943,0.0005427110915,-0.0002017974028,-0.0007139072386,0.000234010957,-0.0004798962817,-0.0001577598709,0.0001517886046,-5.971266326e-06,0.0004820072156,-0.0001546548349,0.0003273523807,0.0003000236218,-0.000344396862,-4.437324027e-05,0.0003606744535,-8.369323344e-05,0.00027698122,-0.0009885465637,0.0006360234754,-0.0003525230883,0.0002785672418,-8.828194612e-05,0.0001902852957,0.0007544750177,-0.000153020481,0.0006014545367,0.001012957205,-0.0003242242891,0.0006887329163,0.0005709453944,-0.0005581179674,1.282742693e-05,-5.416153883e-05,-0.0004894824133,-0.0005436439521,-0.0008945607867,0.0001578703459,-0.0007366904409,-0.0009895716103,1.391321215e-05,-0.0009756583982,0.0007956664654,-0.0002944353953,0.0005012310701,0.000261262638,-5.14013851e-05,0.0002098612529,0.0004199193525,-0.0001024079731,0.0003175113794,0.0005495138906,-0.000282244358,0.0002672695327,-1.565688068e-05,-0.0003125661612,-0.0003282230419,0.0001332751418,6.902721285e-05,0.0002023023547,-0.000249509486,0.0003803459318,0.0001308364457,-0.0006285959485,0.0007306385019,0.0001020425534,4.452941033e-05,-5.178428055e-05,-7.254870215e-06,0.0003946443784,-0.0002807025372,0.0001139418411,-0.0008147484646,-0.0004930815577,-0.001307830022,-0.0006151617603,-0.0003605239635,-0.0009756857239,-0.002130883999,-0.0006376571798,-0.002768541179,0.000110744487,4.956658341e-05,0.0001603110704,-0.0006439901543,-0.0001766976658,-0.0008206878201,-0.000689675185,-3.684386086e-05,-0.0007265190459,-0.0008958334007,-0.0002614858057,-0.001157319206
1.1,3.510371044e-06,5.051655744e-05,5.402692848e-05,-8.015859062e-05,7.638209294e-05,-3.776497679e-06,-0.0001581164136,0.000212144867,5.402845338e-05,-0.000774137581,0.0001852151108,-0.0005889224702,-0.001364006155,0.0006256789397,-0.0007383272157,-0.0007639042573,0.0005357640061,-0.0002281402512,-0.0007528699073,0.0002255685309,-0.0005273013763,-0.0001741039595,0.0001459312525,-2.817270702e-05,0.0004937267903,-0.0001644908794,0.0003292359109,0.0002784936919,-0.0003608636351,-8.236994321e-05,0.000359634004,-0.0001006957924,0.0002589382115,-0.0009481028941,0.0006208650687,-0.0003272378254,0.0003239032301,-0.0001172995529,0.0002066036772,0.0007821001157,-0.0001694022677,0.000612697848,0.001053498465,-0.000350405616,0.0007030928487,0.0005436112763,-0.0005501403589,-6.529082641e-06,-0.0001234570052,-0.0004829656295,-0.0006064226347,-0.000945448557,0.0001521423171,-0.0007933062399,-0.001045204689,4.527306297e-06,-0.001040677383,0.0008176486422,-0.0003047869419,0.0005128617003,0.0002844728723,-6.066344187e-05,0.0002238094304,0.0004329281205,-0.0001049338974,0.0003279942231,0.0005672597783,-0.0002878001286,0.0002794596497,-1.909341963e-05,-0.0003149645784,-0.000334057998,0.0001302557396,6.011628625e-05,0.0001903720259,-0.0002316047543,0.0003671597104,0.000135554956,-0.0006366290231,0.0007452341853,0.0001086051623,5.558342229e-05,-5.837498898e-05,-2.79156669e-06,0.0003983946905,-0.0002828775209,0.0001155171696,-0.0008743457975,-0.0005026994551,-0.001377045253,-0.0006511052138,-0.0003764401846,-0.001027545398,-0.002268053022,-0.0006428122288,-0.00291086525,7.425778102e-05,4.765365921e-05,0.0001219114402,-0.0006931732913,-0.0001862758379,-0.0008794491293,-0.0007442610357,-2.212083282e-05,-0.0007663818685,-0.00092428274,-0.0002754447059,-0.001199727446
1.2,5.031807683e-06,4.915032773e-05,5.418213541e-05,-7.441286102e-05,7.078164279e-05,-3.631218236e-06,-0.00015931644,0.0002063075042,4.699106417e-05,-0.0007850910438,0.0001721597783,-0.0006129312656,-0.00138978785,0.0006136020489,-0.0007761858011,-0.0007816286497,0.0005269622036,-0.0002546664461,-0.0007909253965,0.0002163618149,-0.0005745635816,-0.0001895542839,0.0001392840396,-5.027024435e-05,0.0005039589667,-0.0001749802331,0.0003289787336,0.0002570450522,-0.0003778433954,-0.0001207983432,0.000356345295,-0.0001181933672,0.0002381519278,-0.00090411453,0.000603003532,-0.000301110998,0.000371543706,-0.0001464707647,0.0002250729413,0.0008098618687,-0.0001867002172,0.0006231616515,0.001095616093,-0.0003781619377,0.0007174541548,0.0005171768235,-0.0005409922017,-2.381537826e-05,-0.000187755059,-0.0004777062633,-0.0006654613223,-0.0009885478802,0.000144307775,-0.0008442401052,-0.001095885237,-4.742095253e-06,-0.001100627332,0.0008402510728,-0.0003158666432,0.0005243844296,0.0003068601412,-7.065594432e-05,0.0002362041969,0.000446301283,-0.0001080925878,0.0003382086952,0.0005839479554,-0.0002935711969,0.0002903767585,-2.254882944e-05,-0.0003173904133,-0.0003399392427,0.0001302795019,4.949331348e-05,0.0001797728153,-0.0002130284396,0.0003526672345,0.0001396387948,-0.0006396873737,0.000756885129,0.0001171977553,6.936817061e-05,-6.590446422e-05,3.463706384e-06,0.0004038698653,-0.0002847798036,0.0001190900617,-0.0009276731962,-0.000511681111,-0.001439354307,-0.0006833486405,-0.0003920583529,-0.001075406993,-0.002398218723,-0.0006466300043,-0.003044848727,4.083017477e-05,4.543086275e-05,8.626103752e-05,-0.0007361668988,-0.000196352627,-0.0009325195257,-0.000793462845,-6.911491939e-06,-0.000800374337,-0.0009468454031,-0.0002880688557,-0.001234914259
1.3,5.167746576e-06,4.699863419e-05,5.216638076e-05,-6.963951961e-05,6.439054268e-05,-5.248976925e-06,-0.000160343421,0.0001994558277,3.911240662e-05,-0.0007921371062,0.0001583665019,-0.0006337706043,-0.001413386314,0.0005994589011,-0.0008139274129,-0.0007974541172,0.000516371254,-0.0002810828633,-0.0008277198208,0.0002065223881,-0.0006211974327,-0.0002039555941,0.0001319152379,-7.204035619e-05,0.000512599171,-0.0001860650909,0.00032653408,0.0002358488129,-0.0003952461376,-0.0001593973247,0.0003508455733,-0.0001361056204,0.0002147399529,-0.0008570800499,0.0005825579893,-0.0002745220606,0.0004210744779,-0.00017556354,0.0002455109379,0.0008376335742,-0.0002048524931,0.0006327810811,0.001139219782,-0.0004073944817,0.0007318253007,0.0004919025612,-0.0005308039932,-3.890143207e-05,-0.0002464102504,-0.0004736970072,-0.0007201072576,-0.00102339032,0.0001344606498,-0.0008889296698,-0.001141185304,-1.369137712e-05,-0.001154876681,0.000863371952,-0.0003276551362,0.0005357168158,0.0003282986318,-8.136325447e-05,0.0002469353773,0.0004599827235,-0.0001118936307,0.0003480890928,0.0005995338852,-0.0002995476818,0.0002999862034,-2.598019557e-05,-0.0003198391506,-0.0003458193462,0.0001333266013,3.715909074e-05,0.000170485692,-0.0001941808686,0.0003370365825,0.0001428557139,-0.0006381414761,0.000765853269,0.0001277117929,8.580257883e-05,-7.434493565e-05,1.145764318e-05,0.0004110417441,-0.000286400996,0.0001246407481,-0.0009745625025,-0.000519904526,-0.001494467029,-0.0007117121249,-0.0004072515483,-0.001118963673,-0.002520584106,-0.0006491066886,-0.003169690795,1.082175036e-05,4.293769013e-05,5.375944049e-05,-0.0007726667134,-0.0002068838591,-0.0009795505725,-0.000836777877,8.463148362e-06,-0.0008283147287,-0.0009636109308,-0.0002993122949,-0.001262923226
1.4,4.006930637e-06,4.408538896e-05,4.80923196e-05,-6.583111809e-05,5.724819935e-05,-8.582918738e-06,-0.0001610273421,0.0001917033928,3.067605071e-05,-0.0007949658431,0.000143952451,-0.0006510133921,-0.001434622184,0.000583410148,-0.000851212036,-0.0008111740734,0.0005040713079,-0.0003071027656,-0.0008629052396,0.0001961874638,-0.0006667177758,-0.0002171612683,0.0001239004594,-9.326080891e-05,0.0005195566364,-0.0001976791567,0.0003218774797,0.0002150698692,-0.0004129768989,-0.0001979070297,0.0003431977469,-0.0001543468255,0.0001888509214,-0.0008075164252,0.0005596684651,-0.0002478479602,0.0004720716282,-0.000204365618,0.0002677060102,0.0008652759799,-0.0002237828617,0.0006414931182,0.001184187708,-0.0004379842739,0.0007462034342,0.000468039474,-0.000519725595,-5.168612101e-05,-0.0002988735217,-0.0004708986921,-0.0007697722138,-0.001049626758,0.0001227254304,-0.0009269013279,-0.001180729955,-2.212412092e-05,-0.001202854076,0.0008868968936,-0.0003401223142,0.0005467745794,0.0003486719039,-9.276310004e-05,0.0002559088038,0.0004739056074,-0.0001163390836,0.0003575665239,0.0006139871408,-0.0003057144541,0.0003082726867,-2.933715127e-05,-0.0003223045104,-0.0003516416617,0.0001393655417,2.310690977e-05,0.0001624724515,-0.000175442565,0.000320434143,0.0001449915781,-0.0006323883701,0.0007723704441,0.000139982074,0.0001047646269,-8.365347121e-05,2.111115572e-05,0.0004198616495,-0.00028773667,0.0001321249796,-0.001014919625,-0.000527263817,-0.001542183442,-0.0007360518142,-0.0004219025149,-0.001157954329,-0.002634433344,-0.0006502519076,-0.003284685252,-1.54575235e-05,4.021600648e-05,2.475848298e-05,-0.0008024560722,-0.0002178191871,-0.001020275259,-0.0008737861976,2.367835646e-05,-0.0008501078411,-0.0009747430399,-0.0003091494259,-0.001283892466
1.5,1.653106798e-06,4.044467333e-05,4.209778013e-05,-6.297730834e-05,4.940178905e-05,-1.357551929e-05,-0.000161195456,0.0001831709605,2.197550452e-05,-0.0007933483564,0.0001290283013,-0.000664320055,-0.001453335938,0.0005656262511,-0.000887709687,-0.0008226113828,0.000490155699,-0.0003324556839,-0.0008961507404,0.0001854958062,-0.0007106549342,-0.0002290398398,0.0001153205276,-0.0001137193122,0.0005247551075,-0.0002097485618,0.0003150065457,0.0001948616854,-0.000430938188,-0.0002360765027,0.0003334901749,-0.0001728269379,0.000160663237,-0.0007559552775,0.0005344936235,-0.000221461654,0.0005241066289,-0.0002326892573,0.0002914173716,0.000892635696,-0.000243401726,0.00064923397,0.001230367864,-0.0004697944773,0.0007605733869,0.0004458262373,-0.0005079252738,-6.209903647e-05,-0.0003446977235,-0.0004692474016,-0.0008139451251,-0.001067036421,0.0001092525147,-0.0009577839063,-0.00121421036,-2.985322819e-05,-0.001244063588,0.0009106981037,-0.0003532282012,0.0005574699025,0.0003678737254,-0.0001048265203,0.0002630472051,0.0004879914197,-0.0001214237854,0.0003665676343,0.00062729128,-0.0003120512161,0.0003152400639,-3.256320272e-05,-0.0003247787963,-0.000357341999,0.0001483475753,7.326107355e-06,0.0001556736826,-0.000157166872,0.000303023569,0.000145856697,-0.0006228422323,0.0007766215622,0.0001537793299,0.0001260906946,-9.377202663e-05,3.231866801e-05,0.0004302596999,-0.0002887874201,0.0001414722798,-0.001048724352,-0.0005336729247,-0.001582397276,-0.0007562622192,-0.000435908381,-0.0011921706,-0.002739144184,-0.0006500904851,-0.003389234669,-3.775590908e-05,3.730865555e-05,-4.472535296e-07,-0.0008254125374,-0.0002291016183,-0.001054514156,-0.0009041622654,3.841172619e-05,-0.0008657505392,-0.0009804758727,-0.0003175742159,-0.001298050089
1.6,-1.779149079e-06,3.611970776e-05,3.434055868e-05,-6.106751903e-05,4.09052834e-05,-2.016223563e-05,-0.0001606794856,0.0001739835315,1.330404589e-05,-0.0007871455711,0.0001136956967,-0.0006734498744,-0.001469394254,0.0005462844675,-0.000923109786,-0.0008316255506,0.0004747288967,-0.0003568966539,-0.0009271534427,0.000174583389,-0.0007525700537,-0.0002394812503,0.0001062592003,-0.00013322205,0.0005281332439,-0.0002221930982,0.0003059401457,0.0001753614708,-0.0004490326415,-0.0002736711706,0.0003218362349,-0.0001914530102,0.0001303832247,-0.0007029397703,0.0005072089255,-0.0001957308448,0.0005767495814,-0.0002603729274,0.000316376654,0.0009195445803,-0.000263607736,0.0006559368442,0.00127758181,-0.0005026733854,0.0007749084244,0.0004254866697,-0.0004955876536,-7.010098387e-05,-0.0003835395352,-0.0004686626292,-0.0008522021645,-0.001075533881,9.421407783e-05,-0.0009813198031,-0.001241393875,-3.670421813e-05,-0.001278098093,0.0009346346787,-0.0003669238498,0.0005677108289,0.000385809285,-0.0001175179975,0.0002682912875,0.000502149848,-0.0001271356422,0.0003750142057,0.0006394437303,-0.0003185327717,0.0003209109585,-3.559671541e-05,-0.0003272533503,-0.0003628500657,0.0001602008079,-1.019354883e-05,0.000150007259,-0.000139672336,0.0002849652043,0.0001452928683,-0.0006099285616,0.0007787330191,0.0001688044575,0.0001495775626,-0.0001046286264,4.494893622e-05,0.0004421451067,-0.0002895593254,0.0001525857812,-0.001076027806,-0.0005390685485,-0.001615096354,-0.0007722770973,-0.0004491848773,-0.001221461975,-0.002834197209,-0.0006486640116,-0.003482861221,-5.588585001e-05,3.425870364e-05,-2.162714637e-05,-0.0008415113364,-0.0002406672896,-0.001082178626,-0.0009276818956,5.234865019e-05,-0.0008753332454,-0.0009811066792,-0.0003245991251,-0.001305705804
1.7,-6.168357045e-06,3.116160468e-05,2.499324763e-05,-6.009276468e-05,3.181832145e-05,-2.827444323e-05,-0.0001593214808,0.0001642673678,4.945887006e-06,-0.0007763117939,9.804540566e-05,-0.0006782663882,-0.001482695033,0.0005255658247,-0.0009571292079,-0.0008381179576,0.000457903997,-0.0003802139606,-0.0009556483835,0.0001635790168,-0.0007920693666,-0.0002484019548,9.680095175e-05,-0.0001516010031,0.0005296448924,-0.0002349277679,0.0002947171245,0.0001566862033,-0.0004671657207,-0.0003104795174,0.0003083737109,-0.0002101310137,9.824269711e-05,-0.0006490203146,0.0004780045158,-0.0001710157988,0.0006295721173,-0.0002872806142,0.0003422915031,0.0009458207887,-0.0002842898966,0.0006615308921,0.001325630737,-0.0005364577561,0.0007891729811,0.000407228192,-0.0004829105562,-7.568236429e-05,-0.0004151581627,-0.0004690552858,-0.0008842134486,-0.001075172154,7.780060269e-05,-0.0009973715508,-0.00126212953,-4.25193933e-05,-0.001304648923,0.0009585543917,-0.0003811523331,0.0005774020585,0.0004023971072,-0.0001307957697,0.0002716013376,0.0005162799234,-0.0001334559387,0.0003828239847,0.0006504559745,-0.0003251295458,0.0003253264287,-3.83713654e-05,-0.0003297191101,-0.0003680904755,0.0001748254873,-2.945697218e-05,0.0001453685151,-0.0001232345522,0.0002664150594,0.0001431805072,-0.0005940796442,0.0007787679958,0.0001846883517,0.0001749870466,-0.0001161394536,5.884759301e-05,0.0004554074446,-0.0002900637763,0.0001653436683,-0.001096947742,-0.0005434122206,-0.001640359962,-0.0007840681635,-0.0004616699619,-0.001245738125,-0.0029191811,-0.0006460320964,-0.003565213197,-6.97267359e-05,3.110912032e-05,-3.861761558e-05,-0.0008508250719,-0.0002524452994,-0.001103270371,-0.0009442239571,6.5187446e-05,-0.0008790365111,-0.0009769847846,-0.0003302538542,-0.001307238639
1.8,-1.138938566e-05,2.56279991e-05,1.423861343e-05,-6.004630987e-05,2.220501229e-05,-3.784129758e-05,-0.0001569779051,0.000154147165,-2.830740073e-06,-0.0007608932107,8.215627081e-05,-0.0006787369399,-0.001493171052,0.0005036521417,-0.0009895189104,-0.0008420352289,0.0004398001657,-0.0004022350632,-0.0009814168325,0.0001526002308,-0.0008288166017,-0.0002557485749,8.702897362e-05,-0.0001687196012,0.0005292591395,-0.0002478645868,0.0002813945527,0.0001389295868,-0.0004852482797,-0.0003463186928,0.0002932636684,-0.0002287680039,6.449566447e-05,-0.0005947485859,0.0004470824665,-0.0001476661194,0.0006821515724,-0.0003133003275,0.0003688512449,0.0009712711612,-0.0003053299314,0.0006659412298,0.001374302307,-0.0005709759669,0.0008033263398,0.0003912410581,-0.0004701009463,-7.885988819e-05,-0.0004394115285,-0.0004703342899,-0.0009097458184,-0.001066140755,6.021784534e-05,-0.001005922909,-0.001276348584,-4.716247986e-05,-0.001323511064,0.0009822963558,-0.0003958500037,0.0005864463521,0.0004175712619,-0.0001446123497,0.0002729589123,0.0005302720634,-0.0001403598329,0.0003899122305,0.0006603537832,-0.0003318083628,0.0003285454205,-4.081640883e-05,-0.0003321672045,-0.0003729836133,0.0001920913367,-5.045896717e-05,0.0001416323695,-0.0001080779815,0.0002475227348,0.0001394447532,-0.000575729859,0.0007767296223,0.0002009997633,0.0002020524154,-0.0001282115933,7.384082217e-05,0.0004699181714,-0.0002903168084,0.000179601363,-0.001111662575,-0.0005466917165,-0.001658354291,-0.0007916423278,-0.0004733263925,-0.00126496872,-0.002993794612,-0.0006422729262,-0.003636067538,-7.922460811e-05,2.790253172e-05,-5.13220764e-05,-0.0008535202352,-0.00026435749,-0.001117877725,-0.0009537679091,7.664428902e-05,-0.0008771236201,-0.0009684984271,-0.0003345840848,-0.001303082512
1.9,-1.731609568e-05,1.958171658e-05,2.265620905e-06,-6.092348905e-05,1.213276306e-05,-4.879072599e-05,-0.0001535223786,0.0001437435126,-9.778866008e-06,-0.0007410224235,6.609496554e-05,-0.0006749274579,-0.001500792668,0.0004807232163,-0.001020069451,-0.0008433712326,0.0004205404665,-0.000422830766,-0.00100429301,0.0001417498913,-0.000862543119,-0.0002615002562,7.702343521e-05,-0.000184476821,0.0005269598562,-0.0002609144934,0.0002660453628,0.0001221598193,-0.0005031988254,-0.0003810390061,0.000276688345,-0.0002472744024,2.941394261e-05,-0.0005406712766,0.0004146538393,-0.0001260174373,0.0007340764921,-0.0003383430624,0.0003957334296,0.000995693815,-0.0003266046021,0.0006690892129,0.001423376085,-0.0006060506159,0.0008173254691,0.0003776970311,-0.0004573701848,-7.967315366e-05,-0.0004562516924,-0.0004724109029,-0.0009286625954,-0.001048758989,4.168378053e-05,-0.001007075208,-0.001284061341,-5.052321303e-05,-0.001334584554,0.001005693399,-0.0004109480435,0.0005947453554,0.0004312828919,-0.0001589152022,0.0002723676897,0.0005440101281,-0.0001478170813,0.0003961930468,0.0006691769262,-0.0003385334125,0.0003306435137,-4.285738099e-05,-0.0003345894762,-0.0003774468572,0.0002118358601,-7.317959321e-05,0.0001386562669,-9.436908423e-05,0.0002284283749,0.0001340592906,-0.0005553105669,0.0007725703526,0.0002172597858,0.0002304850138,-0.0001407460645,8.973894931e-05,0.0004855316725,-0.0002903382213,0.0001951934512,-0.001120405228,-0.0005489218913,-0.001669327119,-0.0007950391831,-0.0004841425786,-0.001279181762,-0.00305784681,-0.0006374827414,-0.003695329552,-8.438986644e-05,2.468077765e-05,-5.970908879e-05,-0.000849851571,-0.000276318421,-0.001126169992,-0.0009563893637,8.645796574e-05,-0.000869931398,-0.0009560620417,-0.0003376504365,-0.001293712478
2.0,-2.382365214e-05,1.30896064e-05,-1.073404574e-05,-6.272118196e-05,1.671200657e-06,-6.10499813e-05,-0.0001488477178,0.0001331707433,-1.56769745e-05,-0.0007169104365,4.99164738e-05,-0.0006669939627,-0.001505569825,0.0004569543914,-0.001048615434,-0.0008421680173,0.0004002503006,-0.0004419177167,-0.001024169027,0.0001311137972,-0.0008930552301,-0.0002656699959,6.686001544e-05,-0.0001988099804,0.0005227445858,-0.000273989155,0.0002487554308,0.0001064181894,-0.0005209452547,-0.0004145270653,0.0002588479135,-0.0002655660441,-6.7181306e-06,-0.0004873252857,0.0003809362775,-0.0001063890082,0.0007849521005,-0.0003623424803,0.0004226096202,0.001018879994,-0.0003479877388,0.0006708922555,0.0014726264,-0.0006415006015,0.0008311257986,0.0003667463213,-0.0004449287857,-7.818246443e-05,-0.0004657213801,-0.0004752008814,-0.0009409222615,-0.001023465337,2.2424935e-05,-0.001001040402,-0.001285352183,-5.252106408e-05,-0.001337873247,0.001028573353,-0.0004263740993,0.0006021992532,0.0004435002759,-0.0001736474391,0.0002698528368,0.0005573728043,-0.000155792871,0.0004015799333,0.0006769780189,-0.0003452672897,0.0003317107291,-4.441759026e-05,-0.0003369788384,-0.0003813964287,0.0002338617749,-9.75794718e-05,0.0001362823031,-8.221288603e-05,0.0002092595475,0.0001270466615,-0.0005332456992,0.000766203517,0.0002329578177,0.0002599794939,-0.0001536406099,0.0001063388841,0.0005020858832,-0.0002901508695,0.0002119350136,-0.00112345782,-0.0005501444636,-0.001673602284,-0.0007943302531,-0.000494131194,-0.001288461447,-0.003111256596,-0.0006317742564,-0.003743030853,-8.529401318e-05,2.148418414e-05,-6.380982903e-05,-0.0008401550673,-0.0002882359214,-0.001128390989,-0.0009522552606,9.439435174e-05,-0.0008578609089,-0.0009401059468,-0.000339527719,-0.001279633666
2.1,-3.079064306e-05,6.221553588e-06,-2.456908947e-05,-6.543724909e-05,-9.108798387e-06,-7.454604748e-05,-0.0001428675447,0.0001225352463,-2.033229833e-05,-0.0006888372136,3.366516241e-05,-0.0006551720512,-0.001507553053,0.0004325147437,-0.001075038309,-0.0008385156073,0.0003790564898,-0.0004594591175,-0.001040997526,0.0001207595627,-0.0009202379633,-0.0002683050712,5.660879891e-05,-0.0002116962723,0.0005166229643,-0.0002870024961,0.0002296204682,9.17187586e-05,-0.0005384258479,-0.0004467070893,0.0002399564693,-0.0002835656666,-4.360919731e-05,-0.0004352347459,0.00034615242,-8.908232594e-05,0.0008344041501,-0.0003852546053,0.0004491495448,0.001040615076,-0.0003693518413,0.0006712632347,0.001521822821,-0.0006771427473,0.0008446800736,0.0003585126576,-0.0004329809918,-7.44683342e-05,-0.0004679522047,-0.0004786248594,-0.0009465770641,-0.000990804058,2.672009188e-06,-0.0009881320488,-0.001280374045,-5.310762785e-05,-0.001333481673,0.001050759346,-0.0004420537771,0.0006087055687,0.000454207375,-0.0001887484159,0.0002654589591,0.0005702342802,-0.0001642486032,0.000405985677,0.0006838206375,-0.0003519720146,0.0003318486229,-4.542028436e-05,-0.0003393294498,-0.0003847497341,0.0002579334019,-0.0001235955426,0.0001343378593,-7.165483916e-05,0.0001901293402,0.000118474501,-0.0005099490672,0.0007575135298,0.0002475644625,0.0002902170261,-0.0001667918206,0.0001234252055,0.0005194031761,-0.000289780432,0.0002296227441,-0.001121147938,-0.0005504260623,-0.001671574001,-0.0007896203788,-0.0005033255702,-0.001292945949,-0.003154051466,-0.0006252745234,-0.00377932599,-8.20658651e-05,1.835055047e-05,-6.371531464e-05,-0.0008248399748,-0.0003000122757,-0.001124852251,-0.0009416189811,0.0001002505302,-0.000841368451,-0.0009210689237,-0.0003403041832,-0.001261373107
2.2,-3.810090168e-05,-9.504099554e-07,-3.905131164e-05,-6.906993959e-05,-2.013596403e-05,-8.920590362e-05,-0.0001355173048,0.0001119343044,-2.358300036e-05,-0.0006571414633,1.737633465e-05,-0.0006397651286,-0.001506832821,0.0004075660452,-0.001099266776,-0.0008325503903,0.0003570869383,-0.000475463452,-0.00105479161,0.0001107367893,-0.000944054821,-0.000269486588,4.633368859e-05,-0.0002231528994,0.0005086150868,-0.0002998718861,0.0002087432007,7.804941586e-05,-0.0005555894564,-0.0004775400406,0.0002202378424,-0.0003012037438,-8.096590143e-05,-0.0003849092914,0.0003105290379,-7.438025356e-05,0.0008820805256,-0.0004070564398,0.0004750240858,0.001060679416,-0.0003905692441,0.000670110172,0.001570728995,-0.0007127926971,0.0008579362981,0.0003530875161,-0.0004217196943,-6.863217815e-05,-0.000463163451,-0.0004826072333,-0.0009457706843,-0.0009514099758,-1.734467315e-05,-0.000968754649,-0.001269342362,-5.226788097e-05,-0.001321610243,0.001072069877,-0.0004579119061,0.0006141579704,0.0004634015187,-0.0002041542722,0.0002592472465,0.0005824647292,-0.0001731425579,0.0004093221712,0.0006897771673,-0.0003586099612,0.0003311672061,-4.579098342e-05,-0.0003416367517,-0.0003874277351,0.0002837737009,-0.0001511382469,0.000132635454,-6.268770494e-05,0.0001711362544,0.0001084485495,-0.0004858234017,0.0007463643502,0.0002605409485,0.0003208672016,-0.0001800966257,0.0001407705759,0.0005372922561,-0.0002892556266,0.0002480366295,-0.001113846228,-0.0005498543894,-0.001663700617,-0.0007810502992,-0.0005117745887,-0.001292824888,-0.003186364978,-0.0006181226217,-0.0038044876,-7.488725201e-05,1.531403771e-05,-5.95732143e-05,-0.0008043799208,-0.0003115457785,-0.001115925699,-0.0009248150348,0.0001038586405,-0.0008209563943,-0.0008993929198,-0.0003400803319,-0.001239473252
2.3,-4.564479786e-05,-8.352999122e-06,-5.399779698e-05,-7.361707319e-05,-3.133934262e-05,-0.0001049564158,-0.0001267543146,0.0001014554641,-2.529885046e-05,-0.0006222099379,1.078152414e-06,-0.0006211317855,-0.001503536817,0.0003822624495,-0.001121274368,-0.000824451872,0.0003344706868,-0.0004899811852,-0.001065622123,0.000101078362,-0.0009645437613,-0.0002693279882,3.609232725e-05,-0.0002332356609,0.0004987502413,-0.0003125190538,0.0001862311875,6.537443534e-05,-0.0005723950673,-0.0005070206319,0.0001999217768,-0.0003184188352,-0.0001184970584,-0.0003368425997,0.0002742965788,-6.254602092e-05,0.0009276512037,-0.0004277427755,0.0004999084282,0.001078850073,-0.0004115130082,0.0006673370653,0.001619100518,-0.0007482648742,0.0008708356439,0.0003505254033,-0.0004113222891,-6.079688583e-05,-0.00045165942,-0.0004870740625,-0.0009387334824,-0.0009059917876,-3.739948752e-05,-0.0009433912751,-0.001252528203,-5.00205694e-05,-0.001302548772,0.001092319608,-0.0004738735572,0.0006184460511,0.0004710911753,-0.0002197985485,0.0002512926268,0.0005939313485,-0.0001824304461,0.0004115009025,0.0006949269193,-0.0003651446256,0.0003297822937,-4.545936285e-05,-0.0003438974171,-0.0003893567799,0.0003110636629,-0.0001800905276,0.0001309731353,-5.526056319e-05,0.0001523649604,9.710439717e-05,-0.0004612607236,0.000732608196,0.0002713474724,0.000351590236,-0.0001934535746,0.0001581366614,0.0005555515841,-0.0002886085194,0.0002669430648,-0.0011019639,-0.000548533059,-0.001650496959,-0.0007687986444,-0.0005195371694,-0.001288335814,-0.003208432616,-0.0006104670718,-0.003818899688,-6.39880114e-05,1.240432551e-05,-5.158368589e-05,-0.0007793027999,-0.0003227324725,-0.001102035272,-0.0009022527054,0.0001050896408,-0.0007971630647,-0.0008755185063,-0.0003389671842,-0.00121448569
2.4,-5.331975814e-05,-1.591267732e-05,-6.923243546e-05,-7.907474544e-05,-4.264883192e-05,-0.0001217235774,-0.000116556496,9.117634505e-05,-2.538015092e-05,-0.0005844662871,-1.520624788e-05,-0.000599672535,-0.001497825132,0.0003567506398,-0.001141074492,-0.0008144377482,0.0003113380562,-0.000503099692,-0.001073612715,9.180247013e-05,-0.0009818102451,-0.0002679722038,2.593624066e-05,-0.0002420359632,0.0004870662635,-0.0003248708576,0.0001621954059,5.363838276e-05,-0.0005888110655,-0.0005351726827,0.0001792407695,-0.0003351577541,-0.0001559169847,-0.000291509892,0.0002376885204,-5.382137157e-05,0.0009708076358,-0.0004473212618,0.0005234863741,0.001094904188,-0.0004320577771,0.000662846411,0.001666682628,-0.0007833718681,0.0008833107604,0.000350841923,-0.0004019476982,-5.110577525e-05,-0.000433824286,-0.00049195056,-0.0009257748459,-0.0008553137842,-5.727575545e-05,-0.0009125895396,-0.001230250709,-4.641755083e-05,-0.00127666826,0.001111321423,-0.0004898647889,0.0006214566341,0.0004772944534,-0.0002356129029,0.0002416815504,0.0006045004561,-0.0001920658627,0.0004124345934,0.0006993548547,-0.0003715412019,0.0003278136528,-4.436028703e-05,-0.0003461092437,-0.0003904695307,0.000339444621,-0.0002103082249,0.0001291363961,-4.928641247e-05,0.0001338859333,8.459952085e-05,-0.0004366432215,0.000716095513,0.0002794522916,0.0003820410634,-0.0002067644185,0.0001752766448,0.0005739743795,-0.0002878745775,0.000286099802,-0.001085948762,-0.0005465760322,-0.001632524794,-0.000753081915,-0.0005266771849,-0.0012797591,-0.003220585923,-0.000602462778,-0.003823048701,-4.963993651e-05,9.646226783e-06,-3.999370972e-05,-0.0007501792419,-0.0003334680238,-0.001083647266,-0.0008744080472,0.0001038568975,-0.0007705511497,-0.0008498800883,-0.0003370841625,-0.001186964251
2.5,-6.102991029e-05,-2.35568297e-05,-8.458673999e-05,-8.543547731e-05,-5.399557371e-05,-0.000139431051,-0.0001049198275,8.116469744e-05,-2.375513001e-05,-0.0005443595473,-3.145667168e-05,-0.000575816219,-0.001489883905,0.0003311700828,-0.001158713822,-0.0008027575888,0.0002878206164,-0.0005149369723,-0.001078933424,8.291487745e-05,-0.0009960185464,-0.000265587412,1.59108681e-05,-0.0002496765439,0.0004736094472,-0.000336859993,0.0001367494542,4.277081074e-05,-0.0006048144344,-0.0005620436237,0.0001584274667,-0.0003513757481,-0.0001929482814,-0.0002493633993,0.0002009398301,-4.842356915e-05,0.001011262073,-0.0004658065095,0.0005454555632,0.001108623843,-0.0004520806865,0.0006565431565,0.00171320836,-0.0008179239219,0.0008952844379,0.0003540149785,-0.000393734379,-3.971940048e-05,-0.0004101148043,-0.0004971583836,-0.0009072731878,-0.0008001762742,-7.677019668e-05,-0.0008769464709,-0.00120286903,-4.154203324e-05,-0.001244411064,0.001128889405,-0.0005058131361,0.0006230762686,0.0004820382889,-0.0002515278211,0.0002305104678,0.000614040446,-0.0002020006569,0.0004120397891,0.0007031508148,-0.0003777669936,0.0003253838212,-4.243405493e-05,-0.0003482710417,-0.0003907050966,0.0003685231,-0.0002416213854,0.0001269017146,-4.464670562e-05,0.0001157526124,7.110590677e-05,-0.0004123433005,0.0006966845997,0.0002843412992,0.0004118756948,-0.0002199361879,0.0001919395069,0.0005923543451,-0.0002870923685,0.0003052619766,-0.001066279847,-0.0005441025056,-0.001610382353,-0.0007341525095,-0.0005332589974,-0.001267411507,-0.00322324483,-0.0005942677169,-0.003817512547,-3.214966096e-05,7.059713673e-06,-2.508994728e-05,-0.0007176101406,-0.000343649571,-0.001061259712,-0.0008418142574,0.0001001190803,-0.0007416951771,-0.0008229011444,-0.0003345565567,-0.001157457701
2.6,-6.86850598e-05,-3.121504146e-05,-9.990010126e-05,-9.268605063e-05,-6.531230097e-05,-0.0001579983516,-9.185514602e-05,7.147853161e-05,-2.037661441e-05,-0.0005023527563,-4.765400755e-05,-0.0005500067639,-0.001479918532,0.0003056531133,-0.001174265419,-0.0007896858307,0.0002640509042,-0.0005256349265,-0.001081793743,7.441113077e-05,-0.001007382612,-0.0002623619116,6.055363762e-06,-0.0002563065479,0.0004584346282,-0.0003484256164,0.0001100090118,3.269085777e-05,-0.00062038994,-0.0005876990822,0.0001377121983,-0.0003670366552,-0.0002293244569,-0.000210826214,0.0001642842148,-4.654199921e-05,0.001048746468,-0.0004832143827,0.0005655320852,0.001119801235,-0.0004714622131,0.0006483390221,0.001758397011,-0.0008517290098,0.0009066680008,0.0003599881213,-0.0003867992923,-2.681117096e-05,-0.0003810510036,-0.0005026132687,-0.0008836642723,-0.0007413957361,-9.569756458e-05,-0.0008370933007,-0.001170774114,-3.550609274e-05,-0.001206280206,0.001144841766,-0.0005216479572,0.0006231938091,0.0004853577324,-0.0002674732693,0.0002178844632,0.0006224247643,-0.0002121852731,0.0004102394912,0.0007064087494,-0.0003837917193,0.0003226170301,-3.962632128e-05,-0.0003503825894,-0.0003900089107,0.0003978774549,-0.0002738365971,0.0001240408578,-4.119393977e-05,9.799673695e-05,5.680279718e-05,-0.0003887225387,0.0006742491726,0.0002855266339,0.0004407585196,-0.0002328834661,0.0002078750535,0.0006104905002,-0.0002863030152,0.000324187485,-0.001043461793,-0.0005412327664,-0.001584694559,-0.0007122961187,-0.0005393434322,-0.001251639551,-0.003216908372,-0.0005860399038,-0.003802948276,-1.185130471e-05,4.660429444e-06,-7.190875268e-06,-0.0006822143241,-0.0003531772822,-0.001035391606,-0.0008050513268,9.388162169e-05,-0.0007111697051,-0.0007949909462,-0.0003315121884,-0.001126503135
2.7,-7.61994839e-05,-3.882029201e-05,-0.0001150197759,-0.0001008055047,-7.653371503e-05,-0.0001773392198,-7.738526768e-05,6.216626307e-05,-1.521900461e-05,-0.0004589125432,-6.377868109e-05,-0.0005226912242,-0.001468147583,0.0002803247922,-0.001187822791,-0.0007755149435,0.0002401620057,-0.0005353529378,-0.001082436136,6.62786772e-05,-0.001016157459,-0.0002584989177,-3.597729801e-06,-0.0002620966475,0.0004416050117,-0.0003595138115,8.209120022e-05,2.331094724e-05,-0.000635529221,-0.0006122182737,0.0001173202787,-0.0003821128932,-0.0002647926145,-0.0001762862087,0.0001279505113,-4.833569746e-05,0.001083010364,-0.0004995574932,0.0005834528704,0.001128242852,-0.0004900868477,0.000638156004,0.00180195238,-0.0008845935934,0.0009173587869,0.000368674581,-0.0003812379922,-1.256341117e-05,-0.0003472043243,-0.0005082243341,-0.0008554286584,-0.0006797864454,-0.0001138950482,-0.0007936814936,-0.001134381436,-2.844758559e-05,-0.001162829022,0.001159002844,-0.0005373007939,0.0006217020505,0.0004872947303,-0.0002833793381,0.0002039153922,0.0006295340749,-0.0002225691535,0.0004069649214,0.0007092254253,-0.0003895877466,0.0003196376787,-3.588822105e-05,-0.0003524446798,-0.0003883329009,0.000427065422,-0.0003067406445,0.0001203247775,-3.875496523e-05,8.062410453e-05,4.18691393e-05,-0.0003661310246,0.0006486844247,0.0002825534001,0.000468368669,-0.0002455302666,0.0002228384024,0.0006281897608,-0.0002855495174,0.0003426402434,-0.001018019789,-0.0005380850951,-0.001556104884,-0.0006878297771,-0.0005449841181,-0.001232813895,-0.003202144564,-0.0005779350689,-0.003780079633,1.089983087e-05,2.46085587e-06,1.336068674e-05,-0.0006446174276,-0.0003619555108,-0.001006572938,-0.0007647360748,8.519619672e-05,-0.0006795398781,-0.0007665440784,-0.0003280771401,-0.001094621218
2.8,-8.349099075e-05,-4.63098975e-05,-0.0001298008882,-0.0001097637343,-8.759686573e-05,-0.0001973606,-6.154311761e-05,5.326693454e-05,-8.276183078e-06,-0.0004145003678,-7.980941884e-05,-0.0004943097866,-0.001454798012,0.0002553026612,-0.001199495351,-0.0007605493807,0.000216287204,-0.0005442621768,-0.001081130448,5.849899778e-05,-0.00102263145,-0.0002542118457,-1.302277316e-05,-0.0002672346189,0.000423191572,-0.000370077865,5.311370699e-05,1.453932224e-05,-0.0006502297355,-0.0006356904132,9.746904138e-05,-0.0003965851865,-0.0002991161451,-0.0001460915711,9.215893914e-05,-5.393263196e-05,0.001113817677,-0.0005148423531,0.0005989753238,0.001133772076,-0.0005078436157,0.0006259284608,0.001843560822,-0.0009163237599,0.0009272370625,0.0003799604299,-0.0003771255233,2.834906502e-06,-0.0003091832475,-0.0005138962625,-0.00082307951,-0.0006161454784,-0.0001312256759,-0.0007473711543,-0.001094126183,-2.052593021e-05,-0.001114652113,0.001171203948,-0.0005527057841,0.0006184981641,0.0004878961979,-0.0002991768918,0.0001887193061,0.0006352573663,-0.0002331012402,0.0004021561261,0.0007116984647,-0.0003951302402,0.0003165682245,-3.117697532e-05,-0.0003544591962,-0.0003856361715,0.0004556317087,-0.0003401050988,0.0001155266099,-3.713713456e-05,6.361288958e-05,2.647575502e-05,-0.0003449083406,0.0006199132779,0.0002750049374,0.0004944045415,-0.0002578111028,0.0002365934387,0.0006452671261,-0.0002848759978,0.0003603911283,-0.0009904951873,-0.0005347734093,-0.001525268597,-0.0006611009477,-0.0005502243363,-0.001211325284,-0.003179580464,-0.000570105023,-0.003749685487,3.573179356e-05,4.719011111e-07,3.620369467e-05,-0.0006054424818,-0.0003698937424,-0.0009753362242,-0.0007215132644,7.415827241e-05,-0.000647354992,-0.0007379427643,-0.0003243709598,-0.001062313724
2.9,-9.048042796e-05,-5.362615475e-05,-0.0001441065827,-0.0001195208549,-9.844144448e-05,-0.0002179622994,-4.437093658e-05,4.481059759e-05,4.396610153e-07,-0.0003695654989,-9.572230541e-05,-0.0004652878043,-0.001440101482,0.0002306965652,-0.001209404917,-0.0007451004682,0.0001925598343,-0.0005525406339,-0.001078169004,5.104980489e-05,-0.001027119199,-0.0002497201334,-2.220120218e-05,-0.0002719213356,0.0004032721592,-0.000380078363,2.31937962e-05,6.28177243e-06,-0.0006644936034,-0.0006582118309,7.836488322e-05,-0.0004104420229,-0.0003320771397,-0.0001205483709,5.711785273e-05,-6.34305182e-05,0.001140943155,-0.0005290681261,0.0006118750286,0.00113623053,-0.0005246265084,0.0006116040215,0.00188289014,-0.0009467264139,0.0009361637265,0.0003937057,-0.0003745173574,1.918834263e-05,-0.0002676173011,-0.0005195345411,-0.0007871518423,-0.0005512418566,-0.0001475800811,-0.0006988219378,-0.001050461521,-1.191634671e-05,-0.001062377868,0.001181283509,-0.0005678000252,0.0006134834842,0.0004872116811,-0.0003147981506,0.0001724135305,0.0006394923505,-0.000243730498,0.0003957618525,0.0007139239806,-0.0004003971992,0.0003135267814,-2.545688112e-05,-0.0003564291273,-0.0003818860084,0.0004831150445,-0.0003736908744,0.00010942417,-3.61378105e-05,4.691541124e-05,1.077760074e-05,-0.0003253855368,0.000587893477,0.0002625079403,0.000518586799,-0.0002696712418,0.0002489155572,0.0006615445572,-0.0002843269492,0.000377217608,-0.0009614414817,-0.0005314051326,-0.001492846614,-0.0006324871283,-0.000555094469,-0.001187581597,-0.003149892915,-0.0005626964309,-0.003712589346,6.225909152e-05,-1.295795743e-06,6.096329577e-05,-0.0005653020827,-0.0003769076847,-0.0009422097674,-0.0006760478965,6.090335063e-05,-0.0006151445458,-0.000709560592,-0.0003205019675,-0.001030062559
3.0,-9.709158864e-05,-6.071672866e-05,-0.0001578083173,-0.000130027159,-0.0001090099545,-0.0002390371135,-2.592009866e-05,3.681887687e-05,1.089877822e-05,-0.000324539324,-0.0001114901389,-0.0004360294629,-0.001424291194,0.0002066086349,-0.001217682559,-0.0007294819487,0.0001691132896,-0.0005603686591,-0.001073861792,4.390723162e-05,-0.00102995456,-0.0002452451862,-3.112156111e-05,-0.0002763667473,0.0003819305975,-0.000389483127,-7.552529435e-06,-1.556806018e-06,-0.0006783264222,-0.0006798832283,6.02007234e-05,-0.0004236788992,-0.0003634781758,-9.991954857e-05,2.302136059e-05,-7.689818799e-05,0.001164169872,-0.0005422265664,0.0006219433055,0.001135479041,-0.0005403348941,0.0005951441466,0.001919590672,-0.0009756105262,0.0009439801454,0.0004097436403,-0.0003734499552,3.629368512e-05,-0.0002231403421,-0.0005250528484,-0.0007481931905,-0.0004858088806,-0.0001628767772,-0.0006486856578,-0.001003859112,-2.802950706e-06,-0.001006662062,0.001189087386,-0.0005825237714,0.0006065636144,0.0004852912708,-0.0003301771719,0.0001551140989,0.0006421458581,-0.0002544063334,0.0003877395247,0.0007159943304,-0.0004053693782,0.0003106249522,-1.870024697e-05,-0.0003583584986,-0.0003770587456,0.0005090547064,-0.0004072521721,0.0001018025342,-3.555647208e-05,3.046301301e-05,-5.093459074e-06,-0.0003078853027,0.0005526243357,0.000244739033,0.0005406606458,-0.000281066358,0.0002595942877,0.000676850052,-0.0002839465799,0.000392903472,-0.0009314200656,-0.0005280788816,-0.001459498947,-0.0006023949697,-0.0005596099876,-0.001162004957,-0.003113799527,-0.0005558498792,-0.003669649407,9.008537734e-05,-2.831343861e-06,8.725403348e-05,-0.0005247915477,-0.0003829207668,-0.0009077123145,-0.0006290179199,4.560251632e-05,-0.0005834154036,-0.0006817655747,-0.0003165632793,-0.000998328854
3.1,-0.0001032513019,-6.753485363e-05,-0.0001707861556,-0.0001412232526,-0.0001192478178,-0.0002604710704,-6.250858273e-06,2.930568305e-05,2.305482478e-05,-0.0002798303879,-0.000127082074,-0.0004069124619,-0.001407598567,0.000183133399,-0.001224465168,-0.0007140056629,0.0001460809017,-0.0005679247612,-0.001068531214,3.704788867e-05,-0.001031483325,-0.0002410060457,-3.97793134e-05,-0.0002807853591,0.0003592560503,-0.0003982670145,-3.901096416e-05,-9.070525674e-06,-0.000691736138,-0.0007008066637,4.315419294e-05,-0.0004362974572,-0.0003931432643,-8.442418604e-05,-9.952208776e-06,-9.437639482e-05,0.001183288803,-0.0005543024454,0.0006289863576,0.001131399228,-0.0005548740454,0.0005765251822,0.001953299139,-0.001002788469,0.0009505106703,0.0004278799166,-0.0003739411782,5.393873845e-05,-0.0001763739228,-0.0005303808826,-0.0007067548055,-0.0004205383026,-0.0001770615527,-0.0005975998552,-0.0009548096499,6.628299251e-06,-0.0009481813507,0.001194470151,-0.0005968204851,0.0005976496664,0.0004821844525,-0.0003452503062,0.0001369341463,0.0006431349363,-0.0002650788933,0.0003780560431,0.0007179965228,-0.000410030145,0.0003079663778,-1.088775777e-05,-0.0003602522654,-0.0003711400232,0.0005329971821,-0.0004405400863,9.245709576e-05,-3.520787941e-05,1.417294896e-05,-2.103493045e-05,-0.0002927171585,0.0005141515479,0.0002214343894,0.0005603982161,-0.0002919618434,0.0002684363727,0.0006910178693,-0.0002837782588,0.0004072396105,-0.0009009950563,-0.000524881978,-0.001425877034,-0.0005712578501,-0.0005637700878,-0.001135027938,-0.003072049266,-0.0005496990179,-0.003621748284,0.0001188065408,-4.12368089e-06,0.0001146828599,-0.000484482313,-0.0003878660632,-0.0008723483761,-0.000581105998,2.845750986e-05,-0.0005526484881,-0.0006549208569,-0.0003126300839,-0.0009675509408
3.2,-0.0001088894321,-7.403941256e-05,-0.0001829288447,-0.0001530400139,-0.0001291034944,-0.0002821435083,1.456845126e-05,2.227802503e-05,3.684647628e-05,-0.0002358197176,-0.0001424634941,-0.0003782832117,-0.001390249496,0.0001603579149,-0.001229891581,-0.0006989770379,0.0001235954317,-0.0005753816063,-0.00106250634,3.045065557e-05,-0.001032055685,-0.0002372148656,-4.817629566e-05,-0.0002853911612,0.0003353427472,-0.0004064116323,-7.106888509e-05,-1.635025852e-05,-0.0007047320735,-0.000721082332,2.738652622e-05,-0.0004483046369,-0.0004209181106,-7.42359093e-05,-4.164154676e-05,-0.0001158774561,0.001198100445,-0.0005652740441,0.000632826401,0.001123895962,-0.0005681558842,0.0005557400778,0.001983644692,-0.001028077244,0.0009555674476,0.0004478936805,-0.0003759908702,7.190281028e-05,-0.0001279118809,-0.0005354707876,-0.0006633826685,-0.0003560758902,-0.0001901061722,-0.0005461820623,-0.0009038211856,1.619579666e-05,-0.0008876253889,0.001197297532,-0.0006106368931,0.0005866606387,0.0004779400643,-0.0003599567199,0.0001179833443,0.0006423888177,-0.000275699354,0.0003666894637,0.0007200114439,-0.0004143653512,0.0003056460927,-2.008132712e-06,-0.0003621162162,-0.0003641243489,0.0005545037293,-0.0004733064255,8.119730387e-05,-3.493418896e-05,-2.044138327e-06,-3.697832729e-05,-0.0002801687596,0.0004725710589,0.0001924022993,0.0005776014536,-0.0003023320337,0.0002752694199,0.0007038897853,-0.0002838639702,0.0004200258151,-0.0008707270389,-0.000521888187,-0.001392615226,-0.0005395314301,-0.0005675573864,-0.001107088816,-0.00302541333,-0.00054436887,-0.0035697822,0.000148014342,-5.161729953e-06,0.000142852612,-0.0004449152156,-0.0003916884488,-0.0008366036644,-0.0005329896824,9.695328882e-06,-0.0005232943535,-0.0006293825907,-0.0003087583987,-0.0009381409895
3.3,-0.0001139386717,-8.019492319e-05,-0.0001941335949,-0.0001653983762,-0.0001385286198,-0.000303926996,3.646267279e-05,1.573686372e-05,5.219953651e-05,-0.0001928565322,-0.000157596042,-0.0003504525742,-0.001372460542,0.0001383618085,-0.001234098734,-0.0006846905617,0.0001017880464,-0.0005829025153,-0.001056117154,2.409806654e-05,-0.001032019087,-0.0002340727812,-5.631979801e-05,-0.0002903925792,0.0003102898616,-0.0004139050004,-0.0001036151388,-2.348148767e-05,-0.0007173241922,-0.0007408056799,1.304173902e-05,-0.0004597119137,-0.0004466701747,-6.948014885e-05,-7.19040192e-05,-0.000141384168,0.00120841749,-0.0005751139367,0.0006333035537,0.001112899921,-0.0005800998447,0.0005328000762,0.002010255883,-0.001051299694,0.0009589561891,0.0004695406966,-0.0003795815829,8.995911373e-05,-7.830730606e-05,-0.0005403011583,-0.0006186084644,-0.0002930185016,-0.0002020061911,-0.0004950246927,-0.0008514144862,2.572706768e-05,-0.0008256874185,0.001197449153,-0.0006239231927,0.0005735259601,0.0004726067893,-0.0003742389642,9.836782512e-05,0.0006398510746,-0.0002862202933,0.0003536307813,0.0007221134837,-0.0004183632491,0.0003037502346,7.942481772e-06,-0.0003639568816,-0.0003560143998,0.0005731586234,-0.000505307587,6.785103641e-05,-3.461397101e-05,-1.827730356e-05,-5.289127457e-05,-0.0002704998245,0.0004280356798,0.0001575358553,0.0005921047434,-0.0003121594426,0.0002799453009,0.0007153163541,-0.0002842436378,0.0004310727163,-0.0008411664365,-0.0005191561948,-0.001360322631,-0.0005076877395,-0.0005709389289,-0.001078626668,-0.002974678015,-0.0005399722895,-0.003514650305,0.0001772999464,-5.934342572e-06,0.0001713656038,-0.0004065942326,-0.0003943467093,-0.000800940942,-0.000485330946,-1.04376189e-05,-0.0004957685649,-0.0006054960077,-0.0003049851396,-0.0009104811473
3.4,-0.0001183343154,-8.597144127e-05,-0.0002043057567,-0.0001782093248,-0.0001474781278,-0.0003256874526,5.935091569e-05,9.677944354e-06,6.902886005e-05,-0.0001512549576,-0.0001724378023,-0.00032369276,-0.00135443588,0.0001172171829,-0.001237218697,-0.0006714257015,8.078677401e-05,-0.0005906389274,-0.001049689473,1.797721777e-05,-0.001031712255,-0.0002317669184,-6.422142754e-05,-0.000295988346,0.0002842011446,-0.0004207411568,-0.0001365400122,-3.054290106e-05,-0.0007295225805,-0.0007600654816,2.456414441e-07,-0.000470534592,-0.0004702889505,-7.023127878e-05,-0.000100617981,-0.0001708492597,0.00121406727,-0.0005837904584,0.0006302768117,0.001098369062,-0.000590633666,0.0005077353957,0.002032767362,-0.001072286326,0.0009604810361,0.000492557096,-0.0003846792563,0.0001078778397,-2.806263926e-05,-0.0005448787632,-0.0005729414025,-0.0002319128975,-0.0002127779229,-0.0004446908203,-0.0007981170083,3.506221927e-05,-0.000763054789,0.001194820392,-0.0006366333959,0.0005581869958,0.0004662332712,-0.0003880434349,7.818983631e-05,0.0006354809066,-0.0002965960918,0.0003388848148,0.0007243698932,-0.0004220144297,0.0003023554636,1.896074749e-05,-0.0003657814244,-0.0003468206769,0.0005885766987,-0.0005363077557,5.226894304e-05,-3.416701143e-05,-3.460959423e-05,-6.877660566e-05,-0.0002639429701,0.0003807657342,0.0001168227641,0.0006037756654,-0.0003214338172,0.0002823418482,0.0007251570583,-0.0002849541768,0.0004402028815,-0.000812847375,-0.0005167293432,-0.001329576718,-0.0004762090173,-0.0005738681836,-0.001050077201,-0.002920640355,-0.0005366046385,-0.003457244993,0.0002062565723,-6.430139843e-06,0.0001998264324,-0.0003699818288,-0.0003958154008,-0.0007657972296,-0.000438766912,-3.168162255e-05,-0.0004704485346,-0.0005835916033,-0.0003013290784,-0.0008849206817
3.5,-0.0001220143259,-9.134441872e-05,-0.0002133587446,-0.0001913745249,-0.0001559103754,-0.0003472849003,8.31468704e-05,4.092567282e-06,8.723943768e-05,-0.0001112923697,-0.0001869436675,-0.0002982360373,-0.001336365606,9.698844591e-05,-0.00123937716,-0.0006594436276,6.071459808e-05,-0.0005987290295,-0.001043541044,1.208029968e-05,-0.001031460744,-0.0002304689832,-7.18959655e-05,-0.0003023649487,0.000257184051,-0.0004269196561,-0.0001697356051,-3.760602958e-05,-0.0007413370387,-0.0007789430683,-1.089541889e-05,-0.0004807910611,-0.00049168648,-7.65112182e-05,-0.0001276853407,-0.0002041965589,0.001214893157,-0.0005912699028,0.0006236232538,0.001080288424,-0.000599694058,0.0004805943659,0.002050825466,-0.001090878241,0.0009599472247,0.0005166625177,-0.0003912338449,0.0001254286729,2.237604585e-05,-0.0005492383571,-0.0005268623112,-0.0001732566524,-0.0002224549926,-0.000395711645,-0.000744457916,4.405653623e-05,-0.0007004013798,0.001189322706,-0.0006487256974,0.0005405970088,0.00045886731,-0.0004013205967,5.754671331e-05,0.0006292530007,-0.0003067832557,0.000322469745,0.0007268395475,-0.000425311757,0.0003015277905,3.103570079e-05,-0.0003675975235,-0.0003365618227,0.0006004088335,-0.0005660813035,3.432753001e-05,-3.355496539e-05,-5.111377327e-05,-8.466873866e-05,-0.0002607072724,0.0003310587948,7.035152246e-05,0.0006125127648,-0.0003301507875,0.0002823619773,0.0007332789632,-0.0002860282661,0.0004472506971,-0.0007862823298,-0.0005146369609,-0.001300919291,-0.0004455822911,-0.0005762874376,-0.001021869729,-0.002864105716,-0.0005343378986,-0.003398443614,0.0002344810567,-6.637570815e-06,0.0002278434859,-0.0003354965595,-0.0003960863461,-0.0007315829056,-0.0003939030775,-5.376976533e-05,-0.0004476728428,-0.00056398284,-0.0002977922861,-0.0008617751261
3.6,-0.0001249198661,-9.629457287e-05,-0.0002212144389,-0.0002047876981,-0.0001637873261,-0.0003685750242,0.0001077582434,-1.031702857e-06,0.0001067265406,-7.320949528e-05,-0.0002010658739,-0.0002742753692,-0.001318425317,7.773218131e-05,-0.001240693136,-0.0006489849193,4.168757079e-05,-0.0006072973485,-0.001037978789,6.4049829e-06,-0.001031573806,-0.0002303352922,-7.936037001e-05,-0.0003096956622,0.0002293484092,-0.000432444953,-0.0002030965438,-4.473571749e-05,-0.000752776676,-0.0007975123935,-2.029583053e-05,-0.0004905019545,-0.000510797785,-8.829055085e-05,-0.0001530336579,-0.0002413242088,0.001210754757,-0.0005975191449,0.0006132356124,0.001058668478,-0.000607227321,0.0004514411566,0.002064092526,-0.001106930865,0.0009571616607,0.0005415625227,-0.0003991800168,0.0001423825059,7.261910048e-05,-0.0005534404632,-0.0004808213627,-0.0001175011599,-0.0002310851468,-0.0003485863067,-0.0006909654439,5.258264423e-05,-0.0006383827997,0.00118088275,-0.0006601627805,0.0005207199698,0.0004505543105,-0.0004140250344,3.652927605e-05,0.0006211562086,-0.0003167406384,0.0003044155703,0.0007295713199,-0.0004282503149,0.000301321005,4.414781573e-05,-0.0003694132872,-0.0003252654714,0.0006083453375,-0.0005944151278,1.393020968e-05,-3.277886643e-05,-6.784906947e-05,-0.0001006279359,-0.0002609771852,0.0002792915945,1.831440928e-05,0.0006182406064,-0.0003383099997,0.0002799306067,0.0007395543452,-0.0002874930307,0.0004520613145,-0.0007619574519,-0.0005128969614,-0.001274854413,-0.0004162949059,-0.0005781303904,-0.0009944252963,-0.002805886004,-0.0005332155723,-0.003339101576,0.0002615747839,-6.545438774e-06,0.0002550293451,-0.0003035126835,-0.0003951695828,-0.0006986822663,-0.0003513089599,-7.643400139e-05,-0.0004277429613,-0.0005469653395,-0.0002943619467,-0.0008413272861
3.7,-0.0001269963012,-0.0001008077657,-0.0002278040669,-0.0002183365875,-0.0001710747872,-0.0003894113747,0.0001330857415,-5.71035343e-06,0.0001273753881,-3.721184723e-05,-0.0002147546281,-0.0002519664753,-0.001300776355,5.949719445e-05,-0.001241279161,-0.0006402681688,2.381328013e-05,-0.0006164548887,-0.00103329679,9.548104343e-07,-0.00103234198,-0.0002315075736,-8.663297616e-05,-0.0003181405498,0.0002008049364,-0.000437325736,-0.0002365207997,-5.199092889e-05,-0.0007638494746,-0.0008158404035,-2.789163348e-05,-0.0004996892405,-0.000527580874,-0.0001054917415,-0.0001766174226,-0.0002821091641,0.001201527359,-0.0006025083207,0.0005990190386,0.00103354284,-0.0006131900706,0.0004203527695,0.002072250672,-0.001120317812,0.0009519328601,0.0005669507353,-0.0004084380927,0.0001585126427,0.0001223273828,-0.0005575669615,-0.0004352395787,-6.505561047e-05,-0.0002387279815,-0.000303783592,-0.0006381661765,6.053236577e-05,-0.0005776338108,0.001169441118,-0.0006709120073,0.0004985291108,0.0004413356666,-0.0004261155407,1.522012587e-05,0.0006111917995,-0.0003264296163,0.0002847621832,0.0007326025672,-0.000430827372,0.0003017751953,5.826801408e-05,-0.0003712372034,-0.0003129691893,0.000612118597,-0.0006211114758,-8.992878808e-06,-3.187502269e-05,-8.485799042e-05,-0.0001167330131,-0.0002649051396,0.0002259130335,-3.899210604e-05,0.0006209033602,-0.0003459126906,0.0002749906696,0.0007438582763,-0.0002893688711,0.0004544894052,-0.0007403284284,-0.0005115186795,-0.001251847108,-0.0003888304655,-0.0005793251258,-0.0009681555913,-0.0027467971,-0.0005332492952,-0.003280046395,0.0002871447368,-6.1439588e-06,0.000281000778,-0.0002743611785,-0.0003930935032,-0.0006674546817,-0.0003115149283,-9.941131804e-05,-0.0004109262464,-0.0005328163893,-0.0002910126331,-0.0008238290223
3.8,-0.0001281945106,-0.0001048748422,-0.0002330693528,-0.0002319052453,-0.0001777425947,-0.00040964784,0.0001590222711,-9.961205391e-06,0.0001490610658,-3.471725877e-06,-0.0002279587669,-0.0002314304927,-0.001283566008,4.23247705e-05,-0.001241241238,-0.0006334890022,7.189640536e-06,-0.0006262993617,-0.001029774387,-4.26044128e-06,-0.001034034828,-0.0002341136899,-9.373284747e-05,-0.0003278465374,0.000171663993,-0.0004415743161,-0.0002699103231,-5.942535853e-05,-0.0007745618926,-0.0008339872512,-3.364073782e-05,-0.0005083753682,-0.000542016106,-0.0001279923418,-0.0001984188831,-0.0003264112249,0.001187101988,-0.0006062135864,0.0005808884016,0.001004966501,-0.0006175502479,0.0003874162527,0.002075006734,-0.001130934476,0.000944072258,0.0005925112208,-0.0004189152811,0.0001735959397,0.0001712020493,-0.0005617147563,-0.000390512707,-1.629008219e-05,-0.0002454538201,-0.0002617439023,-0.0005865847692,6.781812195e-05,-0.0005187666473,0.001154951703,-0.0006809454483,0.0004740062551,0.000431247847,-0.0004375553665,-6.307519552e-06,0.0005993721621,-0.0003358142267,0.0002635579354,0.0007359582769,-0.0004330423515,0.0003029159255,7.335718049e-05,-0.0003730781044,-0.0002997209239,0.0006115066173,-0.0006459910167,-3.448439942e-05,-3.091061752e-05,-0.0001021625062,-0.0001330731237,-0.0002726024673,0.000171433562,-0.0001011689054,0.0006204586327,-0.000352958852,0.0002674997807,0.0007460672541,-0.0002916684951,0.000454398759,-0.000721816564,-0.0005105050466,-0.001232321611,-0.0003636644021,-0.0005797973813,-0.0009434617834,-0.002687653853,-0.0005344178254,-0.003222071678,0.0003108055104,-5.426193747e-06,0.0003053793166,-0.0002483314658,-0.0003899041054,-0.0006382355712,-0.0002750086245,-0.0001224496884,-0.0003974583129,-0.0005217932543,-0.0002877089852,-0.0008095022395
3.9,-0.0001284721301,-0.0001084914287,-0.0002369635588,-0.0002453763047,-0.0001837646646,-0.0004291409693,0.0001854529606,-1.38036334e-05,0.0001716493272,2.787003067e-05,-0.000240626459,-0.0002127564283,-0.001266927143,2.624902606e-05,-0.001240678117,-0.0006288188835,-8.096244107e-06,-0.0006369151276,-0.001027673923,-9.224601454e-06,-0.001036898524,-0.0002382676605,-0.0001006792071,-0.0003389468675,0.0001420348871,-0.0004452061535,-0.0003031712664,-6.708748759e-05,-0.0007849186169,-0.0008520061045,-3.752226628e-05,-0.0005165826317,-0.0005541048979,-0.0001556258952,-0.0002184489858,-0.000374074881,0.001167387903,-0.0006086204569,0.0005587674466,0.0009730154274,-0.0006202884122,0.0003527270152,0.002072099561,-0.001138701363,0.0009333981978,0.0006179214505,-0.0004305068396,0.0001874146109,0.0002189731995,-0.0005659883678,-0.0003470151684,2.846352467e-05,-0.0002513432159,-0.0002228796912,-0.0005367424019,7.437349334e-05,-0.0004623689085,0.001137382413,-0.0006902397562,0.0004471426565,0.0004203226194,-0.0004483125672,-2.798994777e-05,0.0005857205456,-0.0003448612087,0.0002408593369,0.0007396512636,-0.000434896811,0.0003047544526,8.936660578e-05,-0.0003749451296,-0.0002855785239,0.0006063379974,-0.0006688955374,-6.255754002e-05,-2.997929901e-05,-0.0001197599385,-0.0001497392375,-0.0002841333139,0.0001164151522,-0.0001677181617,0.0006168732777,-0.0003594444886,0.0002574287892,0.0007460596238,-0.0002943960498,0.000451663574,-0.0007068048238,-0.0005098539579,-0.001216658782,-0.0003412586665,-0.0005794736536,-0.0009207323201,-0.002629261367,-0.0005366686807,-0.003165930048,0.0003321828163,-4.389499619e-06,0.0003277933166,-0.0002256731083,-0.0003856634947,-0.000611336603,-0.0002422301145,-0.0001453129963,-0.0003875431109,-0.0005141292988,-0.0002844084662,-0.000798537765
4.0,-0.0001277942753,-0.0001116577657,-0.0002394520409,-0.0002586328988,-0.0001891189636,-0.0004477518624,0.0002122562602,-1.725779066e-05,0.0001949984695,5.670301345e-05,-0.0002527059751,-0.0001960029617,-0.001250977182,1.129714149e-05,-0.00123968004,-0.0006264035231,-2.196920156e-05,-0.0006483727246,-0.001027238069,-1.391532252e-05,-0.001041153391,-0.0002440688529,-0.0001074909235,-0.0003515597764,0.000112025729,-0.0004482395324,-0.0003362138034,-7.502018271e-05,-0.0007949225028,-0.0008699426855,-3.953520592e-05,-0.0005243328398,-0.0005638680457,-0.0001881805448,-0.0002367483055,-0.0004249288503,0.001142317978,-0.0006097278166,0.0005325901611,0.0009377874701,-0.000621398942,0.000316388528,0.002063309337,-0.001143567081,0.0009197422553,0.0006428557992,-0.0004430966046,0.0001997591946,0.00026539111,-0.000570492999,-0.000305101889,6.891275287e-05,-0.0002564861745,-0.0001875734216,-0.0004891527908,8.015248487e-05,-0.000409000306,0.001116717141,-0.0006987759858,0.0004179411549,0.0004085882668,-0.0004583603155,-4.977204872e-05,0.0005702717052,-0.0003535399436,0.0002167317615,0.0007436833286,-0.0004363944471,0.0003072888815,0.0001062393102,-0.0003768476998,-0.0002706083896,0.0005964974308,-0.0006896898208,-9.319239003e-05,-2.91963413e-05,-0.0001376195081,-0.0001668158494,-0.0002995125284,6.146105805e-05,-0.0002380514704,0.0006101220351,-0.0003653595908,0.0002447624443,0.0007437177772,-0.0002975464196,0.0004461713576,-0.0006956344122,-0.0005095590692,-0.001205193481,-0.0003220555133,-0.000578283962,-0.0009003394753,-0.002572403502,-0.000539921691,-0.003112325193,0.0003509182858,-3.036617407e-06,0.0003478816684,-0.0002065971448,-0.0003804477578,-0.0005870449026,-0.0002135666059,-0.0001677840025,-0.0003813506084,-0.0005100282787,-0.0002810639384,-0.0007910922171
4.1,-0.0001261335791,-0.0001143786394,-0.0002405122186,-0.0002715601286,-0.0001937875285,-0.0004653476571,0.0002393057949,-2.034395611e-05,0.0002189618388,8.29467141e-05,-0.0002641465205,-0.0001811998064,-0.001235816948,-2.510671806e-06,-0.001238327619,-0.0006263614181,-3.436687735e-05,-0.0006607282954,-0.001028687138,-1.830476168e-05,-0.0010469919,-0.0002516007624,-0.0001141860518,-0.0003657868142,8.174348005e-05,-0.0004506953326,-0.0003689518525,-8.326043294e-05,-0.0008045746284,-0.0008878350614,-3.969694366e-05,-0.0005316472188,-0.0005713441625,-0.000225398197,-0.0002533869597,-0.0004787851567,0.001111854625,-0.0006095513885,0.0005023032363,0.0008994034631,-0.0006208906302,0.0002785128328,0.002048466643,-0.001145510631,0.0009029560115,0.0006669891839,-0.0004565570025,0.0002104321814,0.0003102220722,-0.0005753295813,-0.0002651075091,0.0001048072002,-0.0002609804469,-0.0001561732466,-0.0004443159321,8.512745554e-05,-0.0003591884766,0.001092957936,-0.000706539484,0.000386418452,0.0003960710867,-0.0004676771456,-7.160605891e-05,0.0005530726094,-0.0003618224225,0.000191250187,0.0007480467644,-0.0004375411263,0.000310505638,0.0001239116792,-0.000378795513,-0.0002548838338,0.000581930155,-0.0007082626263,-0.0001263324713,-2.869381286e-05,-0.0001556799251,-0.0001843737379,-0.0003187069082,7.203617548e-06,-0.0003115032907,0.0006001883292,-0.000370687181,0.0002295011482,0.0007389313504,-0.000301105062,0.0004378262884,-0.0006886033145,-0.0005096100053,-0.00119821332,-0.0003064709024,-0.0005761645943,-0.0008826354967,-0.002517831482,-0.0005440731965,-0.003061904679,0.0003666745057,-1.376248608e-06,0.0003652982571,-0.0001912774255,-0.0003743443159,-0.0005656217414,-0.0001893488584,-0.0001896650546,-0.000379013913,-0.0005096584603,-0.0002776262202,-0.0007872846805
4.2,-0.0001234698318,-0.0001166633743,-0.000240133206,-0.0002840463555,-0.000197756588,-0.0004818029435,0.0002664721911,-2.308205995e-05,0.0002433901311,0.0001065497431,-0.0002748990987,-0.0001683493556,-0.001221530267,-1.51614314e-05,-0.001236691698,-0.0006287833236,-4.524020293e-05,-0.0006740235265,-0.001032217031,-2.236067793e-05,-0.001054577709,-0.0002609300638,-0.0001207814212,-0.000381711485,5.129374151e-05,-0.0004525968367,-0.0004013030952,-9.183984997e-05,-0.0008138743665,-0.0009057142165,-3.804225741e-05,-0.0005385463661,-0.0005765886235,-0.0002669771215,-0.0002684626159,-0.0005354397374,0.001075992683,-0.0006081249605,0.0004678677223,0.0008580073169,-0.0006187865186,0.0002392207983,0.002027458785,-0.001144542651,0.0008829161333,0.0006900004021,-0.0004707494015,0.0002192510006,0.0003532471434,-0.0005805919731,-0.0002273448297,0.0001359411236,-0.000264928778,-0.0001289876544,-0.0004027110697,8.928621645e-05,-0.0003134248532,0.00106612611,-0.0007135199143,0.0003526061959,0.000382796329,-0.0004762471461,-9.345081707e-05,0.0005341823079,-0.0003696833882,0.0001644989197,0.0007527254803,-0.0004383449026,0.0003143805777,0.0001423147223,-0.0003807985365,-0.0002384838143,0.0005626437643,-0.0007245267054,-0.000161882941,-2.861726109e-05,-0.0001738476739,-0.000202464935,-0.0003416393121,-4.570944706e-05,-0.0003873487592,0.0005870656703,-0.0003754034109,0.0002116622593,0.0007316004065,-0.0003050487037,0.0004265517029,-0.000685967736,-0.0005099919531,-0.001195959689,-0.0002948885951,-0.0005730610551,-0.0008679496502,-0.002466254764,-0.0005490005794,-0.003015255343,0.0003791387819,5.769441505e-07,0.0003797157261,-0.00017985266,-0.0003674490153,-0.0005473016753,-0.0001698508934,-0.0002107772525,-0.0003806281459,-0.0005131483347,-0.0002740469764,-0.0007871953111
4.3,-0.0001197897055,-0.0001185257748,-0.0002383154803,-0.0002959847454,-0.000201016712,-0.0004970014574,0.0002936242032,-2.549135465e-05,0.0002681328485,0.0001274881044,-0.0002849173848,-0.0001574292803,-0.001208184872,-2.664969092e-05,-0.001234834563,-0.0006337330105,-5.455351442e-05,-0.0006882865249,-0.001037998197,-2.604779566e-05,-0.001064045993,-0.0002721063954,-0.0001272922767,-0.0003993986721,2.078003766e-05,-0.000453969515,-0.0004331894774,-0.0001007860772,-0.0008228194385,-0.0009236055156,-3.46229165e-05,-0.0005450500963,-0.0005796730128,-0.0003125782702,-0.0002820967688,-0.000594675039,0.001034757733,-0.0006054990099,0.0004292587235,0.0008137646687,-0.0006151233056,0.0001986413631,0.002000232033,-0.001140705439,0.0008595265938,0.000711574801,-0.0004855254969,0.000226049304,0.0003942605365,-0.0005863652407,-0.0001921047041,0.0001621546536,-0.0002684354968,-0.0001062808432,-0.0003647904733,9.262870896e-05,-0.0002721617643,0.001036261712,-0.0007197113284,0.0003165503835,0.0003687881171,-0.0004840600579,-0.0001152719407,0.0005136705944,-0.0003771006492,0.0001365699452,0.0007576954193,-0.0004388159766,0.0003188794427,0.0001613745585,-0.0003828669123,-0.0002214923538,0.0005387063234,-0.0007384177301,-0.0001997114067,-2.912452001e-05,-0.0001919960371,-0.0002211205571,-0.0003681946303,-9.662899549e-05,-0.0004648236258,0.0005707585064,-0.0003794784585,0.0001912800479,0.0007216378922,-0.0003093467863,0.0004122911058,-0.0006879458531,-0.0005106851257,-0.001198630979,-0.0002876560315,-0.000568930951,-0.0008565869826,-0.002418334382,-0.0005545677215,-0.002972902104,0.0003880248946,2.802782959e-06,0.0003908276776,-0.0001724296612,-0.0003598632831,-0.0005322929443,-0.0001552929145,-0.0002309592265,-0.0003862521411,-0.0005205849008,-0.0002702818676,-0.0007908667684
4.4,-0.000115086861,-0.0001199839555,-0.0002350708165,-0.0003072753135,-0.0002035628889,-0.0005108382023,0.0003206289959,-2.759018117e-05,0.0002930388147,0.0001457623738,-0.0002941586022,-0.0001483962284,-0.00119583447,-3.697771519e-05,-0.001232812185,-0.0006412489894,-6.228451533e-05,-0.0007035335047,-0.001046175505,-2.932926003e-05,-0.001075504765,-0.0002851629092,-0.0001337319886,-0.0004188948978,-9.697348402e-06,-0.0004548407355,-0.0004645380839,-0.0001101247588,-0.0008314059587,-0.0009415307174,-2.950763046e-05,-0.0005511771041,-0.0005806847346,-0.000361833865,-0.000294430025,-0.0006562638901,0.0009882014166,-0.0006017378176,0.0003864635989,0.0007668604619,-0.0006099507403,0.0001569097216,0.001966789876,-0.001134071894,0.0008327179817,0.0007314061622,-0.0005007296893,0.0002306764729,0.0004330667627,-0.0005927242048,-0.0001596574422,0.0001833329022,-0.0002716029377,-8.827003554e-05,-0.0003309749371,9.516340513e-05,-0.000235811532,0.00100342164,-0.0007251121126,0.0002783095273,0.0003540684639,-0.0004911111633,-0.0001370426993,0.0004916156963,-0.0003840553963,0.0001075603,0.0007629244304,-0.0004389665893,0.0003239578411,0.0001810121907,-0.0003850107188,-0.0002039985281,0.000510240975,-0.0007498925607,-0.0002396515857,-3.038549298e-05,-0.0002099656737,-0.0002403511667,-0.0003982265939,-0.0001449171109,-0.0005431437049,0.0005512823904,-0.0003828779779,0.0001684044125,0.0007089711905,-0.0003139633497,0.0003950078408,-0.0006947223533,-0.0005116647624,-0.001206387116,-0.0002850822681,-0.0005637463852,-0.0008488286533,-0.002374678385,-0.0005606312877,-0.002935309673,0.0003930736493,5.275954454e-06,0.0003983496037,-0.0001690877108,-0.0003516915537,-0.0005207792645,-0.0001458459969,-0.0002500664346,-0.0003959124315,-0.0005320146476,-0.0002662933494,-0.000798307997
4.5,-0.0001093623764,-0.0001210601115,-0.0002304224879,-0.0003178273551,-0.0002053945367,-0.0005232218918,0.0003473519197,-2.939578957e-05,0.0003179561302,0.0001613941401,-0.000302584389,-0.0001411902489,-0.001184521296,-4.615543939e-05,-0.001230676735,-0.0006513465877,-6.842418137e-05,-0.0007197707691,-0.001056868548,-3.216803812e-05,-0.001089036586,-0.0003001173269,-0.0001401118181,-0.0004402291451,-4.004270746e-05,-0.0004552393785,-0.000495282086,-0.0001198815357,-0.0008396284735,-0.0009595100092,-2.27819265e-05,-0.0005569444689,-0.0005797263954,-0.000414356872,-0.0003056169181,-0.0007199737901,0.0009363962387,-0.0005969161504,0.0003394800883,0.0007174959952,-0.0006033310628,0.0001141649324,0.001927188686,-0.001124743998,0.0008024446873,0.0007491981786,-0.000516202107,0.0002329960716,0.0004694784173,-0.0005997325649,-0.0001302541476,0.0001994032814,-0.0002745278236,-7.512454211e-05,-0.0003016516,9.690390394e-05,-0.000204747696,0.0009676772749,-0.0007297247316,0.0002379525433,0.000338655902,-0.000497400922,-0.00015874502,0.0004681016087,-0.0003905323665,7.756924221e-05,0.0007683720789,-0.0004388108898,0.0003295611891,0.000201143045,-0.000387239623,-0.0001860965781,0.0004774185708,-0.0007589279529,-0.0002815093821,-3.258169662e-05,-0.0002275673178,-0.0002601490144,-0.0004315646646,-0.0001899566628,-0.0006215213273,0.0005286640102,-0.0003855650099,0.0001430990003,0.0006935431081,-0.0003188591356,0.0003746839725,-0.0007064522403,-0.0005129019298,-0.00121935417,-0.0002874372805,-0.0005574956968,-0.0008449329772,-0.002335838959,-0.0005670469396,-0.002902885898,0.000394053714,7.965859718e-06,0.0004020195737,-0.0001698833411,-0.0003430390952,-0.0005129224363,-0.000141636694,-0.000267971392,-0.000409608086,-0.0005474464656,-0.0002620525969,-0.0008094990625
4.6,-0.0001026251928,-0.0001217803115,-0.0002244055043,-0.0003275618469,-0.0002065155303,-0.0005340773772,0.0003736563692,-3.092415782e-05,0.0003427322114,0.0001744223469,-0.0003101616045,-0.0001357392577,-0.001174278407,-5.420021638e-05,-0.001228478624,-0.0006640198702,-7.29765898e-05,-0.00073699646,-0.00107017187,-3.452817229e-05,-0.001104700043,-0.0003169730862,-0.0001464407047,-0.0004634137909,-7.016600692e-05,-0.0004551954239,-0.0005253614308,-0.0001300835265,-0.0008474800245,-0.000977563551,-1.454756262e-05,-0.0005623671374,-0.0005769147,-0.0004697502402,-0.0003158206459,-0.0007855708861,0.0008794316033,-0.0005911160014,0.0002883156019,0.0006658859297,-0.000595338293,7.054763666e-05,0.001881533304,-0.001112851663,0.0007686816411,0.0007646660653,-0.0005317820345,0.0002328840308,0.0005033159959,-0.000607443256,-0.0001041272601,0.0002103320324,-0.0002772975083,-6.696547588e-05,-0.0002771742613,9.786654055e-05,-0.0001793077207,0.0009291127525,-0.000733555351,0.0001955574015,0.0003225644402,-0.0005029344656,-0.0001803700255,0.0004432158801,-0.0003965198174,4.669606271e-05,0.0007739899515,-0.0004383648041,0.0003356251475,0.0002216769847,-0.0003895625277,-0.0001678855431,0.0004404503481,-0.0007655205999,-0.0003250702518,-3.59055314e-05,-0.0002445861858,-0.0002804917172,-0.0004680190125,-0.0002311584172,-0.0006991774297,0.0005029417776,-0.0003875022662,0.0001154395114,0.0006753129946,-0.0003239936615,0.0003513193331,-0.0007232626824,-0.0005143650116,-0.001237627694,-0.0002949513233,-0.000550184786,-0.0008451361093,-0.002302310271,-0.0005736750646,-0.002875985335,0.0003907635545,1.083610884e-05,0.0004015996634,-0.0001748544496,-0.0003340103835,-0.0005088648331,-0.0001427500239,-0.0002845648209,-0.0004273148449,-0.000566854863,-0.0002575405692,-0.0008243954322
4.7,-9.489223026e-05,-0.0001221743005,-0.0002170665308,-0.0003364133137,-0.0002069342768,-0.0005433475905,0.0003994044095,-3.218978077e-05,0.0003672146288,0.0001849002184,-0.00031686302,-0.0001319628017,-0.00116513114,-6.113641781e-05,-0.001226267558,-0.0006792430633,-7.595867121e-05,-0.0007552017345,-0.001086154774,-3.637589535e-05,-0.001122530669,-0.000335720105,-0.0001527250708,-0.0004884451757,-9.998339349e-05,-0.0004547396345,-0.000554723028,-0.0001407598365,-0.0008549523245,-0.000995712161,-4.921214766e-06,-0.0005674575995,-0.0005723788143,-0.0005276150462,-0.00032520798,-0.0008528230262,0.0008174120681,-0.0005844237227,0.0002329883454,0.0006122559335,-0.0005860572889,2.619864462e-05,0.001829974713,-0.001098552121,0.0007314225926,0.0007775386635,-0.00054731155,0.0002302271135,0.0005344087353,-0.0006158998101,-8.149107483e-05,0.0002161207549,-0.0002799861066,-6.386535177e-05,-0.0002578653155,9.806948549e-05,-0.00015979583,0.0008878247126,-0.0007366134256,0.000151211287,0.0003058035305,-0.0005077211269,-0.0002019175965,0.0004170485619,-0.0004020093641,1.503919777e-05,0.0007797228843,-0.0004376458781,0.0003420770062,0.0002425193653,-0.0003919872852,-0.0001494679199,0.0003995822448,-0.0007696884349,-0.00037010619,-4.055970236e-05,-0.000260787178,-0.0003013468803,-0.0005073803293,-0.0002679693524,-0.0007753496817,0.0004741675756,-0.0003886544841,8.551309148e-05,0.0006542587626,-0.0003293269471,0.0003249318155,-0.0007452525229,-0.0005160213919,-0.001261273915,-0.0003078130407,-0.0005418383602,-0.0008496514009,-0.002274525917,-0.0005803861893,-0.002854912106,0.0003830346074,1.384411126e-05,0.0003968787186,-0.0001840227903,-0.0003247081327,-0.000508730923,-0.0001492298667,-0.0002997575842,-0.0004489874509,-0.0005901818227,-0.0002527485448,-0.0008429303674
4.8,-8.618793192e-05,-0.0001222752227,-0.0002084631546,-0.0003443308206,-0.0002066637775,-0.0005509945982,0.0004244586712,-3.320550569e-05,0.0003912531655,0.0001928932168,-0.0003226678595,-0.0001297746427,-0.001157097557,-6.699501201e-05,-0.001224092569,-0.0006969713632,-7.73999632e-05,-0.0007743713264,-0.001104860617,-3.768075048e-05,-0.001142541367,-0.0003563348897,-0.0001589686733,-0.000515303563,-0.0001294169977,-0.0004539034144,-0.0005833204122,-0.0001519409974,-0.0008620361408,-0.001013977138,5.967546949e-06,-0.0005722259371,-0.0005662583902,-0.0005875574917,-0.0003339441777,-0.0009215016694,0.000750458165,-0.0005769278494,0.0001735303156,0.0005568415504,-0.0005755826651,-1.874111471e-05,0.001772709916,-0.001082029153,0.0006906807628,0.0007875615055,-0.0005626393884,0.0002249221171,0.000562594657,-0.0006251374807,-6.254282364e-05,0.0002168030264,-0.0002826507709,-6.584774445e-05,-0.0002440177838,9.753309417e-05,-0.0001464846896,0.000843923454,-0.0007389112339,0.0001050122201,0.000288379337,-0.0005117741031,-0.0002233947661,0.0003896924777,-0.0004069957298,-1.730325206e-05,0.0007855111554,-0.0004366730534,0.000348838102,0.0002635731838,-0.00039452048,-0.0001309472962,0.0003550913375,-0.0007714722976,-0.0004163809601,-4.675653279e-05,-0.0002759204629,-0.0003226769957,-0.0005494124581,-0.0002998855063,-0.0008492979644,0.0004424098753,-0.0003889904976,5.341937767e-05,0.00063037992,-0.0003348207328,0.0002955591871,-0.0007724905045,-0.0005178385275,-0.001290329032,-0.0003261660884,-0.0005325009871,-0.0008586670755,-0.002252855762,-0.0005870659565,-0.002839921719,0.0003707356611,1.694078677e-05,0.0003876764478,-0.0001973946208,-0.0003152329398,-0.0005126275606,-0.0001610769356,-0.0003134831798,-0.0004745601154,-0.000617336765,-0.000247678513,-0.000865015278
4.9,-7.654319903e-05,-0.000122119217,-0.000198662416,-0.0003512780782,-0.0002057216326,-0.0005569997108,0.0004486853625,-3.398255187e-05,0.0004147028106,0.00019847793,-0.0003275622074,-0.0001290842774,-0.001150188337,-7.181326439e-05,-0.001222001601,-0.0007171413632,-7.734246147e-05,-0.0007944838246,-0.001126305949,-3.841686596e-05,-0.001164722815,-0.000378780136,-0.0001651725267,-0.0005439526627,-0.0001583943641,-0.0004527187987,-0.0006111131627,-0.0001636578237,-0.0008687218794,-0.001032379703,1.797858201e-05,-0.0005766802429,-0.0005587016609,-0.0006491953438,-0.0003421876887,-0.0009913830325,0.000678709041,-0.0005687178333,0.0001099912077,0.00049988798,-0.000564017576,-6.412959595e-05,0.001709982235,-0.001063491348,0.0006464908863,0.0007945011528,-0.0005776252865,0.0002168758663,0.0005877184862,-0.0006351825971,-4.746411097e-05,0.0002124408496,-0.0002853286158,-7.288776612e-05,-0.000235896376,9.628062006e-05,-0.000139615756,0.0007975344277,-0.0007404633548,5.707107294e-05,0.0002702968418,-0.0005151102353,-0.0002448133935,0.0003612441632,-0.0004114764664,-5.023230325e-05,0.0007912931602,-0.0004354663976,0.0003558267625,0.0002847417911,-0.0003971672682,-0.0001124254771,0.0003072834846,-0.0007709369227,-0.0004636534381,-5.471588228e-05,-0.0002897281483,-0.0003444440306,-0.0005938394551,-0.0003264693322,-0.0009203087873,0.0004077574588,-0.0003884849508,1.927250792e-05,0.0006037004849,-0.0003404391857,0.0002632612992,-0.000805013975,-0.0005197840756,-0.001324798051,-0.0003501056239,-0.0005222373859,-0.0008723430098,-0.002237603109,-0.0005936192498,-0.002831222359,0.0003537777719,2.00702435e-05,0.0003738480154,-0.0002149603576,-0.0003056832492,-0.0005206436067,-0.0001782462993,-0.0003257000828,-0.0005039463821,-0.0006481957342,-0.0002423437694,-0.0008905395036
5.0,-6.599394442e-05,-0.0001217449123,-0.0001877388568,-0.00035723298,-0.0002041300262,-0.0005613630062,0.0004719575309,-3.453077437e-05,0.0004374267565,0.0002017412241,-0.0003315393155,-0.0001297980914,-0.001144406939,-7.563462579e-05,-0.001220041565,-0.000739671681,-7.584053089e-05,-0.0008155122119,-0.001150480127,-3.856434888e-05,-0.001189044476,-0.0004030042997,-0.0001713349175,-0.0005743392172,-0.0001868480473,-0.0004512184462,-0.0006380664935,-0.0001759404943,-0.0008750002624,-0.001050940757,3.09631956e-05,-0.0005808272121,-0.0005498640165,-0.0007121640508,-0.0003500850684,-0.001062249119,0.000602325306,-0.0005598838986,4.244140739e-05,0.0004416496361,-0.00055147226,-0.0001098226239,0.001642080236,-0.001043169269,0.0005989109668,0.0007981501842,-0.0005921447045,0.0002060054797,0.0006096263096,-0.0006460492093,-3.642289974e-05,0.0002031206405,-0.0002880348185,-8.491417798e-05,-0.0002337372397,9.433815659e-05,-0.0001393990831,0.0007487987821,-0.0007412861994,7.512582741e-06,0.0002515617805,-0.0005177498432,-0.0002661880627,0.0003318044601,-0.0004154517375,-8.364727739e-05,0.0007970078353,-0.0004340468799,0.0003629609554,0.0003059314103,-0.0003999312971,-9.399988679e-05,0.0002564905968,-0.0007681706794,-0.0005116800825,-6.46601862e-05,-0.0003019533038,-0.00036661349,-0.0006403323588,-0.0003473682072,-0.000987700566,0.0003703220295,-0.0003871197099,-1.679768046e-05,0.0005742701308,-0.0003461491544,0.0002281209765,-0.0008428293101,-0.0005218255346,-0.001364654845,-0.0003796765175,-0.000511131639,-0.0008908081565,-0.002229003302,-0.0005999733577,-0.00282897666,0.0003321180901,2.316971873e-05,0.0003552878089,-0.0002366946427,-0.0002961551771,-0.0005328498198,-0.0002006471542,-0.0003363930037,-0.0005370401579,-0.0006826020018,-0.0002367696424,-0.0009193716442
5.1,-5.457965829e-05,-0.0001211928572,-0.0001757725155,-0.0003621870526,-0.0002019157267,-0.0005641027794,0.000494157597,-3.485909708e-05,0.0004592985,0.0002027788447,-0.0003345997854,-0.0001318209407,-0.00113975075,-7.850870889e-05,-0.001218259459,-0.0007644644103,-7.296062288e-05,-0.0008374250332,-0.001177345955,-3.81105727e-05,-0.001215456528,-0.0004289417266,-0.0001774514473,-0.000606393174,-0.0002147157339,-0.000449435539,-0.0006641512729,-0.000188818416,-0.0008808629563,-0.001069681372,4.476551237e-05,-0.0005846726771,-0.0005399071647,-0.0007761220332,-0.0003577669849,-0.001133889018,0.0005214906745,-0.0005505180795,-2.902740497e-05,0.000382388545,-0.0005380623829,-0.0001556738379,0.001569334571,-0.001021311865,0.0005480227064,0.0007983318058,-0.0006060932706,0.0001922385352,0.0006281570175,-0.000657733522,-2.957650454e-05,0.000188948593,-0.0002907621579,-0.000101813565,-0.0002377464336,9.1733261e-05,-0.0001460131726,0.0006978723127,-0.0007413977313,-4.352541862e-05,0.0002321815787,-0.000519716556,-0.0002875349773,0.0003014781305,-0.0004189242595,-0.000117446129,0.0008025963349,-0.0004324362469,0.000370160088,0.0003270529018,-0.0004028147174,-7.576181555e-05,0.0002030665159,-0.000763284107,-0.0005602175911,-7.680658902e-05,-0.0003123515963,-0.0003891581854,-0.000688502032,-0.0003623292134,-0.001050831245,0.0003302382699,-0.0003848848353,-5.464656538e-05,0.0005421628849,-0.0003519201692,0.0001902427156,-0.0008859145,-0.0005239297997,-0.0014098443,-0.0004148742387,-0.0004992855882,-0.0009141598269,-0.002227224335,-0.0006060804105,-0.002833304745,0.0003057610775,2.617028686e-05,0.0003319313644,-0.0002625576443,-0.0002867419662,-0.0005492996106,-0.0002281460969,-0.0003455727416,-0.0005737188385,-0.0007203700502,-0.0002309936655,-0.0009513637156
5.2,-4.234234593e-05,-0.0001205048769,-0.0001628472228,-0.0003661451982,-0.0001991100457,-0.0005652552439,0.0005151787121,-3.497598274e-05,0.0004802027293,0.0002016930189,-0.0003367515469,-0.000135058528,-0.001136213276,-8.049114094e-05,-0.001216704417,-0.0007914076059,-6.878049298e-05,-0.0008601880989,-0.001206841388,-3.705114603e-05,-0.001243892534,-0.0004565138763,-0.0001835148842,-0.0006400287605,-0.0002419408855,-0.0004474035749,-0.0006893444604,-0.0002023208918,-0.0008863030331,-0.001088623925,5.922335849e-05,-0.0005882219779,-0.0005289986194,-0.0008407546894,-0.0003653457958,-0.001206100485,0.0004364120465,-0.000540716135,-0.0001043040886,0.0003223714832,-0.0005239074437,-0.0002015359605,0.001492112678,-0.0009981822035,0.0004939304746,0.0007949035082,-0.000619390252,0.0001755132562,0.0006431329199,-0.0006702078219,-2.7074902e-05,0.0001700457318,-0.0002934820406,-0.0001234363088,-0.000248097683,8.849292205e-05,-0.000159604761,0.0006449229869,-0.0007408173858,-9.589439893e-05,0.0002121650969,-0.0005210370799,-0.000308871983,0.0002703725079,-0.000421899417,-0.0001515269091,0.0008080029081,-0.0004306569695,0.0003773459386,0.0003480226249,-0.0004058182535,-5.779562863e-05,0.0001473814293,-0.0007564075375,-0.0006090261082,-9.13580942e-05,-0.0003207038635,-0.0004120619577,-0.0007379015485,-0.0003712069475,-0.001109108496,0.0002876612541,-0.0003817789418,-9.411768764e-05,0.000507473979,-0.0003577243985,0.0001497495805,-0.0009342235581,-0.000526062566,-0.001460286124,-0.0004556482689,-0.0004868167818,-0.0009424650507,-0.00223236932,-0.0006119192534,-0.002844288573,0.0002747568201,2.899837219e-05,0.0003037551923,-0.0002924972402,-0.0002775333821,-0.0005700306223,-0.0002605732728,-0.0003532749713,-0.0006138482442,-0.0007612934147,-0.0002250646265,-0.0009863580411
5.3,-2.932603165e-05,-0.0001197233384,-0.00014904937,-0.0003691258283,-0.000195748678,-0.0005648745063,0.0005349251014,-3.48898432e-05,0.0005000352582,0.0001985892067,-0.000338009612,-0.0001394204053,-0.001133786918,-8.164312536e-05,-0.001215430043,-0.0008203784108,-6.338785857e-05,-0.0008837662693,-0.001238881885,-3.539050089e-05,-0.001274272385,-0.000485631785,-0.0001895146781,-0.0006751464631,-0.0002684736651,-0.0004451560913,-0.0007136297564,-0.0002164782264,-0.0008913151849,-0.001107793411,7.416905813e-05,-0.0005914801746,-0.0005173111165,-0.0009057772207,-0.0003729142574,-0.001278691478,0.0003473185539,-0.0005305797144,-0.0001832611606,0.0002618663513,-0.0005091294914,-0.0002472631401,0.001410811689,-0.0009740523612,0.0004367593278,0.0007877593407,-0.0006319805058,0.0001557788349,0.0006543525105,-0.000683415296,-2.906278551e-05,0.0001465434072,-0.0002961470268,-0.0001496036196,-0.0002649305387,8.464221899e-05,-0.0001802883197,0.0005901277476,-0.0007395660939,-0.0001494383463,0.0001915215533,-0.0005217408448,-0.0003302192915,0.0002385956186,-0.0004243854199,-0.0001857898014,0.000813175252,-0.0004287321879,0.0003844430641,0.0003687626445,-0.0004089412795,-4.017863505e-05,8.981528872e-05,-0.0007476879986,-0.0006578727099,-0.0001084957716,-0.0003268270887,-0.0004353228602,-0.0007880364544,-0.0003739655676,-0.001162002022,0.0002427622349,-0.0003778091054,-0.0001350468705,0.0004703158358,-0.000363536564,0.0001067792717,-0.000987691529,-0.0005281876084,-0.001515879137,-0.0005019071914,-0.0004738561412,-0.0009757633326,-0.002244480359,-0.000617496577,-0.002861976936,0.0002391972604,3.157762857e-05,0.000270774889,-0.0003264511891,-0.000268615567,-0.0005950667561,-0.0002977302258,-0.0003595581779,-0.0006572884037,-0.0008051550135,-0.0002190406974,-0.001024195711
5.4,-1.557678287e-05,-0.0001188903474,-0.0001344671303,-0.000371161155,-0.0001918714331,-0.0005630325881,0.0005533119378,-3.460936102e-05,0.0005187025768,0.0001935726275,-0.0003383957009,-0.0001448230735,-0.001132465584,-8.203068152e-05,-0.001214496266,-0.0008512461082,-5.687873442e-05,-0.0009081248426,-0.001273362814,-3.314212449e-05,-0.001306504938,-0.0005161992347,-0.0001954362804,-0.0007116355151,-0.0002942718235,-0.000442726355,-0.0007369981785,-0.0002313227368,-0.0008958956821,-0.001127218419,8.943053035e-05,-0.0005944521575,-0.0005050216272,-0.0009709362387,-0.0003805447045,-0.001351480943,0.000254460288,-0.0005202179059,-0.000265757618,0.0002011385319,-0.0004938521492,-0.0002927136173,0.001325850747,-0.0009491976876,0.0003766530596,0.0007768305798,-0.0006438346936,0.0001329958861,0.0006615867308,-0.0006972660603,-3.567932949e-05,0.0001185796842,-0.0002986946256,-0.0001801149414,-0.0002883497949,8.020456863e-05,-0.0002081452263,0.0005336695764,-0.0007376663225,-0.0002039967462,0.0001702593229,-0.0005218595361,-0.0003516002132,0.0002062544039,-0.0004263933336,-0.0002201389298,0.0008180647831,-0.0004266856094,0.0003913791736,0.0003892008273,-0.0004121818868,-2.298105957e-05,3.075109578e-05,-0.0007372856759,-0.0007065345802,-0.0001283722385,-0.0003305823003,-0.0004589545388,-0.0008383783491,-0.0003706788824,-0.001209057232,0.0001957240389,-0.0003729906761,-0.0001772666372,0.0004308141147,-0.0003693337295,6.148038521e-05,-0.001046238655,-0.0005302662573,-0.001576504912,-0.0005535241968,-0.0004605455591,-0.001014069756,-0.002263543692,-0.0006228465365,-0.002886390228,0.0001992114878,3.383085099e-05,0.0002330423388,-0.0003643488043,-0.0002600713674,-0.0006244201718,-0.0003393984347,-0.0003645005046,-0.0007038989394,-0.0008517375319,-0.0002129872418,-0.001064724774
5.5,-1.142922004e-06,-0.0001180469742,-0.0001191898962,-0.0003722971774,-0.0001875219354,-0.0005598191128,0.0005702654446,-3.41437306e-05,0.000536121714,0.0001867453539,-0.0003379378592,-0.0001511925052,-0.001132246464,-8.172364389e-05,-0.001213970108,-0.0008838744992,-4.935572671e-05,-0.0009332302259,-0.001310161433,-3.032844094e-05,-0.001340489874,-0.0005481156902,-0.0002012605019,-0.0007493761921,-0.0003193011952,-0.0004401470643,-0.0007594482595,-0.000246889112,-0.0009000421693,-0.001146931281,0.0001048329796,-0.0005971427703,-0.0004923097907,-0.001036009272,-0.0003882887074,-0.001424297979,0.0001581070703,-0.0005097471276,-0.0003516400573,0.0001404480914,-0.0004781997463,-0.0003377516549,0.001237664484,-0.0009238911152,0.0003137733693,0.0007620855578,-0.0006549482299,0.0001071373279,0.0006645789981,-0.0007116344219,-4.705542379e-05,8.629638047e-05,-0.0003010515182,-0.0002147551377,-0.0003184259608,7.520351664e-05,-0.0002432224442,0.0004757358073,-0.000735142117,-0.0002594063097,0.0001483854298,-0.0005214266357,-0.000373041206,0.0001734537572,-0.0004279369323,-0.000254483175,0.0008226273486,-0.0004245413805,0.000398085968,0.000409271415,-0.0004155369691,-6.265554133e-06,-2.943068905e-05,-0.0007253705471,-0.0007548012361,-0.0001511052838,-0.0003318795596,-0.0004829848434,-0.0008883784481,-0.0003615302771,-0.001249908725,0.0001467371345,-0.0003673471607,-0.0002206100262,0.000389104843,-0.000375095027,1.400981604e-05,-0.001109772757,-0.000532257282,-0.001642030039,-0.0006103417144,-0.0004470356289,-0.001057377343,-0.002289496676,-0.0006280277838,-0.00291752446,0.0001549609606,3.568203625e-05,0.0001906429969,-0.0004061119955,-0.0002519806142,-0.0006580926097,-0.0003853470559,-0.0003681956444,-0.0007535427003,-0.0009008315439,-0.0002069747973,-0.001107806341
5.6,1.392508232e-05,-0.000117232611,-0.0001033075287,-0.0003725929031,-0.0001827473422,-0.0005553402454,0.0005857238346,-3.350282865e-05,0.0005522210059,0.0001782046054,-0.0003366700843,-0.0001584654789,-0.001133130499,-8.079454786e-05,-0.001213925047,-0.0009181233357,-4.092641852e-05,-0.0009590497542,-0.001349138191,-2.698035734e-05,-0.001376118549,-0.0005812782698,-0.0002069630207,-0.0007882412904,-0.0003435355391,-0.0004374501414,-0.0007809856805,-0.0002632137298,-0.0009037534811,-0.001166967211,0.0001202013099,-0.0005995570967,-0.0004793557868,-0.0011008014,-0.0003961775723,-0.001496978972,5.854693534e-05,-0.0004992885333,-0.0004407415979,8.004845991e-05,-0.0004622963809,-0.000382247921,0.001146699056,-0.0008983983187,0.0002483007374,0.000743529935,-0.0006653397017,7.819023324e-05,0.0006630495201,-0.0007263580013,-6.330848117e-05,4.983662328e-05,-0.0003031372039,-0.0002533005806,-0.0003551956639,6.966528593e-05,-0.0002855303779,0.0004165181783,-0.000732019194,-0.0003155010157,0.0001259062938,-0.0005204771192,-0.0003945708254,0.0001402968189,-0.0004290324679,-0.000288735649,0.0008268247058,-0.0004223239714,0.0004045007344,0.0004289163948,-0.0004190023494,9.914045427e-06,-9.035565965e-05,-0.0007121197618,-0.0008024754215,-0.0001767711073,-0.0003306807028,-0.0005074518101,-0.0009374799618,-0.0003468115218,-0.001284291484,9.599718188e-05,-0.0003609100796,-0.0002649128978,0.0003453333205,-0.0003808014468,-3.546812633e-05,-0.001178189477,-0.000534117159,-0.001712306636,-0.000672174536,-0.0004334832966,-0.001105657833,-0.002322236824,-0.0006331176534,-0.002955354477,0.000106635195,3.705881376e-05,0.0001436940088,-0.0004516553379,-0.0002444199524,-0.0006960752903,-0.0004353379861,-0.0003707488628,-0.000806086849,-0.000952240008,-0.0002010776872,-0.001153317695
5.7,2.95754197e-05,-0.0001164844774,-8.690905768e-05,-0.0003721186468,-0.0001775980376,-0.0005497166844,0.0005996392083,-3.269733073e-05,0.0005669418775,0.0001680423987,-0.0003346319036,-0.0001665895049,-0.001135121657,-7.931753736e-05,-0.001214439195,-0.000953848932,-3.170185769e-05,-0.0009855507897,-0.001390137489,-2.313657616e-05,-0.001413274065,-0.0006155825285,-0.0002125141545,-0.000828096683,-0.0003669557531,-0.000434666686,-0.0008016224391,-0.000280333005,-0.0009070296352,-0.00118736264,0.0001353630402,-0.0006017009777,-0.0004663379375,-0.001165139756,-0.0004042236894,-0.001569363445,-4.391653181e-05,-0.0004889629951,-0.0005328795269,2.018641418e-05,-0.000446264898,-0.0004260784838,0.001053410649,-0.0008729741284,0.0001804365207,0.000721207468,-0.0006750488749,4.615859307e-05,0.0006567044483,-0.0007412398538,-8.453540552e-05,9.343639396e-06,-0.0003048667691,-0.0002955231297,-0.0003986609253,6.362100866e-05,-0.0003350399166,0.0003562140772,-0.0007283251247,-0.0003721110475,0.00010282957,-0.0005190473354,-0.0004162177654,0.0001068861978,-0.0004296984508,-0.0003228122529,0.0008306265299,-0.0004200580646,0.0004105684653,0.0004480874713,-0.0004225729531,2.551451827e-05,-0.0001516571993,-0.000697715773,-0.0008493729724,-0.0002053981784,-0.0003269998654,-0.0005323980438,-0.0009851287753,-0.0003269193314,-0.001312048107,4.370410588e-05,-0.0003537186811,-0.0003100145752,0.0002996544307,-0.0003864357563,-8.678132558e-05,-0.001251370895,-0.0005358005479,-0.001787171443,-0.0007388119455,-0.0004200489388,-0.001158860884,-0.002361631604,-0.0006382047161,-0.00299983632,5.444808821e-05,3.789499885e-05,9.234308706e-05,-0.000500885006,-0.0002374622362,-0.0007383472422,-0.0004891277179,-0.0003722744035,-0.0008614021214,-0.001005779317,-0.0001953736261,-0.001201152944
5.8,4.575638268e-05,-0.0001158371782,-7.008079551e-05,-0.0003709537375,-0.0001721272055,-0.0005430809431,0.0006119798218,-3.173880885e-05,0.0005802410129,0.0001563460738,-0.0003318678645,-0.0001755217906,-0.001138225743,-7.736740753e-05,-0.001215593151,-0.0009909045037,-2.179507402e-05,-0.001012699578,-0.001432988411,-1.884283428e-05,-0.001451831245,-0.0006509222919,-0.0002178791235,-0.0008688014154,-0.0003895488572,-0.0004318270746,-0.0008213759318,-0.0002982813842,-0.0009098720342,-0.001208153418,0.0001501511542,-0.00060358167,-0.0004534305158,-0.001228867552,-0.0004124225121,-0.001641290064,-0.000148968483,-0.000478884904,-0.000627853387,-3.889769815e-05,-0.0004302258339,-0.0004691235321,0.0009582647724,-0.0008478600453,0.0001104047271,0.0006951995317,-0.0006841337284,1.106580332e-05,0.0006452491215,-0.0007560542681,-0.0001108051466,-3.503857732e-05,-0.0003061531745,-0.0003411917519,-0.0004487872502,5.710790714e-05,-0.000391679343,0.0002950275944,-0.0007240895694,-0.000429061975,7.916615892e-05,-0.000517174942,-0.0004380087831,7.332507613e-05,-0.0004299554469,-0.0003566303708,0.0008340121718,-0.0004177683978,0.000416243774,0.0004667479866,-0.0004262430123,4.050497426e-05,-0.000212977843,-0.0006823447205,-0.0008953225636,-0.0002369633293,-0.0003209015354,-0.0005578648647,-0.001030782905,-0.000302349346,-0.001333132251,-9.938278637e-06,-0.0003458195684,-0.000355757847,0.0002522331437,-0.0003919826411,-0.0001397494975,-0.001329183896,-0.0005372608176,-0.001866444714,-0.0008100199715,-0.0004068928004,-0.001216912772,-0.002407527059,-0.0006433815252,-0.003050908584,-1.365583508e-06,3.813267469e-05,3.676709118e-05,-0.0005536973821,-0.0002311756805,-0.0007848730625,-0.0005464677525,-0.0003728946443,-0.0009193623968,-0.00106127851,-0.000189944304,-0.001251222814
5.9,6.241798662e-05,-0.0001153222047,-5.290421806e-05,-0.0003691842669,-0.0001663902361,-0.000535574503,0.0006227317652,-3.063983721e-05,0.000592091928,0.0001431988137,-0.000328426964,-0.0001852281504,-0.001142449649,-7.501882686e-05,-0.001217468476,-0.001029140946,-1.131949552e-05,-0.001040460441,-0.00147750602,-1.415116053e-05,-0.001491657181,-0.0006871890043,-0.0002230189766,-0.0009102079809,-0.0004113072438,-0.0004289610847,-0.0008402683284,-0.0003170897537,-0.0009122837688,-0.001229373522,0.0001644063561,-0.0006052084671,-0.000440802111,-0.001291838861,-0.0004207550238,-0.001712593885,-0.0002562882721,-0.0004691566189,-0.000725444891,-9.697071305e-05,-0.0004142963085,-0.0005112670216,0.0008617343715,-0.0008232825702,3.845180138e-05,0.00066562155,-0.000692666091,-2.704454097e-05,0.0006284029391,-0.0007705557146,-0.0001421527755,-8.316315094e-05,-0.0003069095983,-0.0003900727493,-0.0005055011372,5.016917563e-05,-0.0004553319615,0.0002331691319,-0.0007193444746,-0.0004861753427,5.493136576e-05,-0.0005148987459,-0.0004599673801,3.971720102e-05,-0.0004298258439,-0.0003901086429,0.0008369714407,-0.000415479545,0.0004214918957,0.000484874119,-0.0004300062976,5.486782135e-05,-0.000273971627,-0.0006661944731,-0.0009401661002,-0.0002713910103,-0.0003124963345,-0.0005838873448,-0.001073923319,-0.0002736877295,-0.001347611049,-6.472329144e-05,-0.0003372664262,-0.0004019897177,0.0002032440915,-0.0003974292023,-0.0001941851109,-0.001411479667,-0.0005384507609,-0.001949930428,-0.0008855443898,-0.0003941714037,-0.001279715794,-0.002459754623,-0.0006487386862,-0.003108493309,-6.05544031e-05,3.772348205e-05,-2.283092105e-05,-0.0006099787748,-0.0002256228847,-0.0008356016595,-0.000607106039,-0.0003727405161,-0.0009798465551,-0.001118578489,-0.0001848765356,-0.001303455024
6.0,7.951324319e-05,-0.0001149673745,-3.545413127e-05,-0.0003669013894,-0.0001604440116,-0.0005273454011,0.0006318993815,-2.941408409e-05,0.0006024852974,0.0001286794677,-0.0003243620558,-0.0001956825881,-0.001147801489,-7.234567781e-05,-0.001220147167,-0.001068408377,-3.872078502e-07,-0.001068795585,-0.001523493435,-9.1191118e-06,-0.001532612547,-0.0007242710487,-0.0002278921144,-0.0009521631631,-0.00043222849,-0.0004260978921,-0.0008583263821,-0.0003367846605,-0.0009142698645,-0.001251054525,0.0001779785677,-0.0006065931296,-0.0004286145619,-0.001353915134,-0.0004291903317,-0.001783105466,-0.0003655552881,-0.0004598648538,-0.0008254201419,-0.0001538090028,-0.0003985888358,-0.0005523978386,0.0007642958155,-0.0007994521207,-3.51563052e-05,0.0006326160086,-0.0007007260464,-6.811003779e-05,0.0006059132454,-0.0007844898244,-0.000178576579,-0.0001348775459,-0.0003070524351,-0.000441929981,-0.000568687443,4.28525048e-05,-0.0005258349382,0.0001708532398,-0.0007141241835,-0.0005432709437,3.01447711e-05,-0.0005122584064,-0.0004821136353,6.165441767e-06,-0.0004293335632,-0.0004231681215,0.0008395042224,-0.0004132156771,0.0004262885453,0.0005024550724,-0.0004338563782,6.85986942e-05,-0.0003343078081,-0.0006494519871,-0.0009837597952,-0.0003085558979,-0.0003019348815,-0.0006104907794,-0.001114068797,-0.0002416008124,-0.00135566961,-0.0001204438417,-0.0003281198247,-0.0004485636664,0.0001528698201,-0.0004027658728,-0.0002498960527,-0.001498094627,-0.0005393238783,-0.002037418505,-0.0009651145102,-0.0003820345352,-0.001347149045,-0.00251813724,-0.0006543602455,-0.003172497485,-0.0001228558456,3.66292553e-05,-8.622659029e-05,-0.0006696071289,-0.0002208596724,-0.0008904668013,-0.0006707907052,-0.0003719523352,-0.00104274304,-0.001177532486,-0.0001802632182,-0.001357795704
6.1,9.699882807e-05,-0.000114796316,-1.779748798e-05,-0.0003642003422,-0.0001543461382,-0.0005185464804,0.0006395043657,-2.807632945e-05,0.0006114280362,0.0001128615328,-0.0003197292208,-0.000206867688,-0.001154291434,-6.942037952e-05,-0.001223711814,-0.001108558195,1.089284277e-05,-0.001097665352,-0.001570744512,-3.808887839e-06,-0.0015745534,-0.0007620533442,-0.0002324561285,-0.0009945094727,-0.0004523157242,-0.0004232658705,-0.0008755815947,-0.0003573882366,-0.0009158373774,-0.001273225614,0.0001907278271,-0.0006077500703,-0.0004170222432,-0.00141496441,-0.0004376877698,-0.00185265218,-0.0004764544583,-0.0004510792201,-0.0009275336784,-0.0002092022169,-0.0003832101466,-0.0005924123634,0.0006664229226,-0.0007765623821,-0.0001101394595,0.0005963430074,-0.0007083956423,-0.000112052635,0.0005775670939,-0.000797605562,-0.000220038468,-0.0001900205465,-0.0003065053307,-0.0004965258772,-0.0006381873107,3.520765568e-05,-0.000602979655,0.0001082952146,-0.0007084654734,-0.0006001702587,4.829028201e-06,-0.0005092940684,-0.0005044650402,-2.723076133e-05,-0.0004285037362,-0.0004557344975,0.0008416192226,-0.0004110003404,0.0004306188822,0.0005194923774,-0.0004377868904,8.170548695e-05,-0.0003936753718,-0.0006323000568,-0.001025975429,-0.0003482885137,-0.0002894000536,-0.0006376885674,-0.00115079491,-0.0002068222176,-0.001357617127,-0.0001768966332,-0.0003184466909,-0.0004953433241,0.000101298059,-0.0004079877198,-0.0003066896608,-0.001588852137,-0.0005398364273,-0.002128688564,-0.001048447674,-0.0003706228807,-0.001419070555,-0.002582495705,-0.0006603198906,-0.003242815595,-0.0001880028854,3.482233126e-05,-0.0001531805541,-0.0007324555705,-0.0002169336053,-0.0009493891758,-0.0007372758056,-0.0003706801702,-0.001107955976,-0.00123800852,-0.0001762029802,-0.0014142115
6.2,0.0001148351668,-0.0001148280904,7.076438271e-09,-0.0003611800737,-0.000148154137,-0.0005093342107,0.0006455839762,-2.664238106e-05,0.0006189415952,9.581158449e-05,-0.0003145870521,-0.0002187754676,-0.001161932769,-6.631307428e-05,-0.001228245843,-0.001149445203,2.241655654e-05,-0.001127028647,-0.001619046748,1.71373665e-06,-0.001617333011,-0.0008004173547,-0.0002366696417,-0.001037086996,-0.000471578309,-0.0004204922454,-0.0008920705543,-0.0003789184152,-0.000916995334,-0.001295913749,0.0002025248673,-0.000608696327,-0.0004061714596,-0.001474863397,-0.0004461981178,-0.001921061515,-0.0005886803349,-0.0004428526489,-0.001031532984,-0.0002629575952,-0.0003682601889,-0.0006312177841,0.000568579928,-0.0007547901314,-0.0001862102034,0.0005569699791,-0.0007157527069,-0.0001587827278,0.0005432004142,-0.0008096673851,-0.0002664669708,-0.0002484196846,-0.0003052036695,-0.000553623354,-0.0007137980115,2.728420552e-05,-0.000686513806,4.570737278e-05,-0.0007024075001,-0.0006567001273,-2.099186578e-05,-0.0005060459757,-0.0005270378415,-6.037836168e-05,-0.000427362344,-0.0004877407057,0.0008433323334,-0.0004088562449,0.0004344760885,0.0005359986702,-0.0004417917562,9.420691404e-05,-0.000451787477,-0.0006149137946,-0.001066701272,-0.0003903824203,-0.000275098552,-0.0006654809723,-0.001183754862,-0.0001701362297,-0.001353891091,-0.0002338877083,-0.0003083190058,-0.0005422067141,4.871868181e-05,-0.0004130958972,-0.0003643772154,-0.0016835639,-0.0005399500329,-0.002223513933,-0.001135254019,-0.0003600661993,-0.001495320218,-0.002652654497,-0.0006666777605,-0.003319332258,-0.000255730937,3.228578587e-05,-0.0002234451512,-0.0007983969881,-0.0002138822517,-0.00101227924,-0.0008063277741,-0.0003690831527,-0.001175410927,-0.001299894025,-0.0001727977052,-0.00147269173
6.3,0.0001329861551,-0.0001150769949,1.79091602e-05,-0.0003579431918,-0.0001419246107,-0.0004998678025,0.0006501890214,-2.512892027e-05,0.0006250601012,7.758770295e-05,-0.0003089958492,-0.0002314081462,-0.001170742592,-6.309066598e-05,-0.001233833258,-0.00119092953,3.408621229e-05,-0.001156843317,-0.001668184009,7.380646053e-06,-0.001660803363,-0.000839241406,-0.0002404939252,-0.001079735331,-0.0004900324886,-0.0004178026995,-0.0009078351881,-0.0004013889536,-0.0009177545819,-0.001319143535,0.0002132516806,-0.0006094513993,-0.0003961997187,-0.001533501228,-0.0004546640398,-0.001988165268,-0.0007019382002,-0.0004352235033,-0.001137161703,-0.0003149038144,-0.0003538313971,-0.0006687352115,0.0004712147118,-0.0007342956708,-0.000263080959,0.0005146626647,-0.0007228657938,-0.0002082031291,0.0005027027867,-0.0008204648205,-0.0003177620338,-0.0003098901876,-0.0003030982346,-0.0006129884222,-0.0007952753853,1.913039228e-05,-0.000776144993,-1.670403841e-05,-0.0006959915439,-0.0007126955823,-4.729416084e-05,-0.0005025540346,-0.0005498481954,-9.319322861e-05,-0.000425935775,-0.0005191290036,0.0008446652049,-0.0004068050642,0.0004378601407,0.0005519964724,-0.0004458653042,0.0001061311682,-0.0005083852533,-0.0005974573597,-0.001105842613,-0.0004346007046,-0.0002592533259,-0.0006938540305,-0.001212698098,-0.0001323585967,-0.001345056695,-0.0002912379571,-0.0002978117548,-0.0005890497119,-4.679014848e-06,-0.000418098791,-0.0004227778058,-0.001782029926,-0.0005396344724,-0.002321664398,-0.001225240346,-0.000350482189,-0.001575722535,-0.002728445594,-0.0006734780045,-0.003401923599,-0.0003257841813,2.901371531e-05,-0.000296770466,-0.0008673085525,-0.0002117315698,-0.001079040122,-0.0008777309167,-0.0003673274762,-0.001245058393,-0.00136310141,-0.0001701482903,-0.0015332497
6.4,0.0001514188893,-0.0001155526155,3.586627388e-05,-0.0003545958044,-0.0001357124417,-0.000490308246,0.0006533823,-2.355331247e-05,0.0006298289875,5.823858559e-05,-0.0003030168105,-0.0002447782249,-0.001180741651,-5.981582095e-05,-0.001240557472,-0.001232878111,4.581176752e-05,-0.001187066343,-0.001717938722,1.312269421e-05,-0.001704816027,-0.0008784008944,-0.0002438941929,-0.001122295087,-0.0005077016398,-0.0004152209992,-0.000922922639,-0.0004248088802,-0.0009181276219,-0.001342936502,0.0002228023625,-0.0006100370522,-0.0003872346898,-0.001590782962,-0.0004630201955,-0.002053803157,-0.0008159413128,-0.0004282189719,-0.001244160285,-0.0003648934511,-0.0003400082154,-0.0007049016665,0.0003747535862,-0.0007152237754,-0.0003404701892,0.0004695792593,-0.0007297909283,-0.000260211669,0.0004560158266,-0.0008298168674,-0.0003738010408,-0.0003742358381,-0.0003001572239,-0.000674393062,-0.0008823378388,1.07928543e-05,-0.0008715449845,-7.87405041e-05,-0.0006892605025,-0.0007680010066,-7.405513031e-05,-0.0004988573138,-0.0005729124441,-0.0001256014466,-0.0004242502897,-0.0005498517363,0.0008456445483,-0.0004048672894,0.000440777259,0.0005675174995,-0.0004500022989,0.0001175152006,-0.0005632406746,-0.0005800815928,-0.001143322267,-0.0004806800189,-0.0002420983551,-0.000722778374,-0.001237481764,-9.431861065e-05,-0.001331800375,-0.0003487868607,-0.0002870006685,-0.0006357875292,-5.8708243e-05,-0.0004230124608,-0.0004817207038,-0.00188403644,-0.0005388703465,-0.002422906786,-0.001318111943,-0.000341976225,-0.001660088168,-0.002809709507,-0.0006807471612,-0.003490456668,-0.0003979202593,2.501158879e-05,-0.0003729086705,-0.000939074798,-0.0002104948148,-0.001149569613,-0.0009512907419,-0.0003655829297,-0.001316873672,-0.0014275723,-0.0001683497788,-0.001595922079
6.5,0.000170103807,-0.0001162601646,5.384364239e-05,-0.0003512468196,-0.0001295700925,-0.0004808169121,0.000655237944,-2.19333963e-05,0.0006333045477,3.780392111e-05,-0.0002967113289,-0.0002589074078,-0.001191953039,-5.654609837e-05,-0.001248499137,-0.001275165414,5.751182902e-05,-0.001217653585,-0.001768093328,1.887096657e-05,-0.001749222362,-0.0009177679049,-0.0002468406241,-0.001164608529,-0.0005246159204,-0.0004127686951,-0.0009373846156,-0.0004491813212,-0.0009181284396,-0.001367309761,0.0002310843321,-0.0006104771737,-0.0003793928416,-0.001646631525,-0.0004711934802,-0.002117825005,-0.0009304051967,-0.0004218588088,-0.001352264005,-0.0004128036712,-0.0003268668119,-0.0007396704831,0.0002795981695,-0.0006977047064,-0.0004181065368,0.0004218685132,-0.0007365699946,-0.0003147014814,0.0004031265008,-0.0008375713832,-0.0004344448824,-0.000441251212,-0.0002963665143,-0.0007376177263,-0.0009746702076,2.316411034e-06,-0.0009723537966,-0.0001402113084,-0.0006822582746,-0.000822469583,-0.0001012526178,-0.0004949935848,-0.0005962462026,-0.0001575391277,-0.0004223315082,-0.0005798706358,0.0008463023343,-0.0004030621746,0.0004432401597,0.0005826027054,-0.0004541979249,0.0001284047805,-0.0006161583993,-0.0005629230305,-0.00117908143,-0.0005283319624,-0.0002238765363,-0.0007522084987,-0.001258073502,-5.68442878e-05,-0.00131491779,-0.000406393408,-0.000275960381,-0.000682353789,-0.0001131857733,-0.0004278603143,-0.0005410460876,-0.001989352239,-0.0005376514384,-0.002527003678,-0.001413572252,-0.0003346417888,-0.00174821404,-0.002896293652,-0.000688493414,-0.003584787066,-0.0004719126065,2.029656968e-05,-0.0004516160368,-0.001013588165,-0.0002101721687,-0.001223760334,-0.001026834929,-0.0003640181014,-0.00139085303,-0.001493279024,-0.0001674866708,-0.001660765695
