Time,S1D1HbO,S1D1HbR,S1D1HbT,S2D2HbO,S2D2HbR,S2D2HbT,S3D3HbO,S3D3HbR,S3D3HbT,S4D4HbO,S4D4HbR,S4D4HbT,S5D5HbO,S5D5HbR,S5D5HbT,S6D6HbO,S6D6HbR,S6D6HbT,S7D7HbO,S7D7HbR,S7D7HbT,S8D8HbO,S8D8HbR,S8D8HbT,S9D9HbO,S9D9HbR,S9D9HbT,S10D10HbO,S10D10HbR,S10D10HbT,S11D11HbO,S11D11HbR,S11D11HbT,S12D12HbO,S12D12HbR,S12D12HbT,S13D13HbO,S13D13HbR,S13D13HbT,S14D14HbO,S14D14HbR,S14D14HbT,S15D15HbO,S15D15HbR,S15D15HbT,S16D16HbO,S16D16HbR,S16D16HbT,S17D17HbO,S17D17HbR,S17D17HbT,S18D18HbO,S18D18HbR,S18D18HbT,S19D19HbO,S19D19HbR,S19D19HbT,S20D20HbO,S20D20HbR,S20D20HbT,S21D21HbO,S21D21HbR,S21D21HbT,S22D22HbO,S22D22HbR,S22D22HbT,S23D23HbO,S23D23HbR,S23D23HbT,S24D24HbO,S24D24HbR,S24D24HbT,S25D25HbO,S25D25HbR,S25D25HbT,S26D26HbO,S26D26HbR,S26D26HbT,S27D27HbO,S27D27HbR,S27D27HbT,S28D28HbO,S28D28HbR,S28D28HbT,S29D29HbO,S29D29HbR,S29D29HbT,S30D30HbO,S30D30HbR,S30D30HbT,S31D31HbO,S31D31HbR,S31D31HbT,S32D32HbO,S32D32HbR,S32D32HbT,S33D33HbO,S33D33HbR,S33D33HbT,S34D34HbO,S34D34HbR,S34D34HbT,S35D35HbO,S35D35HbR,S35D35HbT,S36D36HbO,S36D36HbR,S36D36HbT
0.0,-0.0007007771476,-2.686360745e-05,-0.000727640755,-0.000336529485,0.0001788468436,-0.0001576826415,-0.0005212187294,0.0001051445509,-0.0004160741785,-0.0007392102527,-8.502454162e-06,-0.0007477127068,-0.0004921015621,-4.338420368e-05,-0.0005354857658,-0.0003652747355,7.649080067e-05,-0.0002887839349,-0.0005917914391,-6.121863724e-05,-0.0006530100764,-0.0006254704035,0.0001196296626,-0.0005058407409,-0.0008352327673,-8.720848068e-05,-0.000922441248,-0.0006829121112,0.0001318697979,-0.0005510423133,-0.0008430075479,0.0002766676723,-0.0005663398756,-0.0004271383972,9.700278628e-05,-0.0003301356109,-0.00145643393,-1.740693376e-05,-0.001473840863,-0.0004603708477,8.448144105e-05,-0.0003758894066,-0.001690547205,-3.967763695e-05,-0.001730224842,-0.001383135611,8.370810362e-05,-0.001299427508,-0.001643790811,8.432829035e-05,-0.001559462521,-0.001065550864,0.0001816055486,-0.0008839453152,-0.0009674250265,0.0001093058301,-0.0008581191964,-0.0003285420719,0.0001749044585,-0.0001536376134,-0.0004151994695,8.027758984e-05,-0.0003349218797,-0.0004781688809,0.000179676314,-0.0002984925668,-0.0006188106018,8.985219828e-05,-0.0005289584035,-0.0003835419076,-2.87493985e-05,-0.0004122913061,-0.00097746422,0.0001123125949,-0.0008651516251,-0.0004119325622,9.980247163e-05,-0.0003121300905,-0.001478900056,3.105511002e-05,-0.001447844946,-0.001348687807,0.0001088698003,-0.001239818007,-0.001048851379,9.918985577e-05,-0.0009496615236,-0.001152581707,0.0002416056183,-0.0009109760891,-0.001588213023,5.758582438e-05,-0.001530627199,-0.001235968363,9.988018902e-05,-0.001136088174,-0.001193816007,-3.758508388e-05,-0.001231401091,-0.0008204147372,0.0001020444657,-0.0007183702715,-0.001187578687,-2.874165552e-05,-0.001216320342,-0.001160366165,7.530957648e-06,-0.001152835208
0.1,-0.0007185893073,-3.561637342e-05,-0.0007542056807,-0.0003121265198,0.0001782600824,-0.0001338664375,-0.0005028444043,0.0001119840923,-0.000390860312,-0.0007279315833,-9.019492404e-06,-0.0007369510757,-0.0004808354489,-4.278587152e-05,-0.0005236213204,-0.0003551810472,7.876130269e-05,-0.0002764197445,-0.0005862211348,-5.925210187e-05,-0.0006454732367,-0.0006106053725,0.0001252493105,-0.000485356062,-0.0008474943923,-8.889483445e-05,-0.0009363892267,-0.0006825535457,0.0001338081588,-0.000548745387,-0.0008390430722,0.0002741061292,-0.0005649369429,-0.0003913586467,9.266356427e-05,-0.0002986950824,-0.001417940032,-1.521257362e-05,-0.001433152606,-0.000418645446,8.755618603e-05,-0.00033108926,-0.001647076607,-3.93082396e-05,-0.001686384846,-0.001355900116,8.545851502e-05,-0.001270441601,-0.00162867028,8.778972452e-05,-0.001540880556,-0.001041997198,0.0001851195327,-0.0008568776654,-0.0009474939883,0.0001099308279,-0.0008375631604,-0.0003199362239,0.000174067303,-0.0001458689208,-0.0004149383797,7.597756921e-05,-0.0003389608105,-0.0004550369404,0.0001770234702,-0.0002780134702,-0.0006387324651,9.008146583e-05,-0.0005486509993,-0.0003941283052,-3.51653647e-05,-0.0004292936699,-0.0009215372106,0.0001220221181,-0.0007995150926,-0.0003868224958,9.561396589e-05,-0.0002912085299,-0.001407953353,4.393503695e-05,-0.001364018316,-0.001327601485,0.0001050366123,-0.001222564873,-0.001019683451,9.60773987e-05,-0.0009236060524,-0.001124207634,0.0002403222401,-0.0008838853939,-0.001566950925,5.740501227e-05,-0.001509545913,-0.001209998714,9.851843024e-05,-0.001111480284,-0.001176387879,-3.473259046e-05,-0.001211120469,-0.0007900857148,0.0001026731008,-0.0006874126139,-0.001169600174,-2.649034485e-05,-0.001196090519,-0.001141662282,1.224187499e-05,-0.001129420407
0.2,-0.0007347077006,-4.39889239e-05,-0.0007786966245,-0.0002884258221,0.0001773681618,-0.0001110576603,-0.000484102907,0.0001187663754,-0.0003653365316,-0.0007170800956,-9.63450137e-06,-0.000726714597,-0.0004688631277,-4.215827683e-05,-0.0005110214045,-0.0003460015373,8.078597433e-05,-0.000265215563,-0.0005800084108,-5.729204036e-05,-0.0006373004511,-0.0005956460469,0.000130651972,-0.0004649940749,-0.0008587403237,-9.056352256e-05,-0.0009493038462,-0.0006818075455,0.0001355461797,-0.0005462613658,-0.0008345182372,0.0002710495763,-0.0005634686608,-0.000355423204,8.760642662e-05,-0.0002678167774,-0.00137799444,-1.292115429e-05,-0.001390915594,-0.0003770894414,9.05543543e-05,-0.0002865350871,-0.001600366793,-3.962295337e-05,-0.001639989746,-0.001326619902,8.708995624e-05,-0.001239529946,-0.00161149162,9.098943992e-05,-0.00152050218,-0.001017811505,0.0001883719928,-0.0008294395126,-0.000927165976,0.0001103279401,-0.0008168380359,-0.0003120470864,0.0001729838734,-0.000139063213,-0.0004149113109,7.162436771e-05,-0.0003432869431,-0.000432127113,0.0001741008891,-0.0002580262239,-0.0006591395869,9.009871685e-05,-0.00056904087,-0.000404391622,-4.149243567e-05,-0.0004458840577,-0.000864623946,0.000131101811,-0.0007335221351,-0.0003627809447,9.134385456e-05,-0.0002714370901,-0.001334989417,5.654751845e-05,-0.001278441898,-0.001305538278,0.0001008631443,-0.001204675134,-0.0009896800888,9.271186424e-05,-0.0008969682245,-0.001095639525,0.0002383400482,-0.0008572994771,-0.001543969024,5.69568557e-05,-0.001487012169,-0.001183366773,9.67346767e-05,-0.001086632097,-0.00115718395,-3.19297073e-05,-0.001189113657,-0.0007596262509,0.0001030266981,-0.0006565995529,-0.001151105627,-2.424991278e-05,-0.00117535554,-0.001122911859,1.640987529e-05,-0.001106501984
0.3,-0.0007490192042,-5.189632577e-05,-0.0008009155299,-0.0002655788427,0.00017616618,-8.941266274e-05,-0.0004651647006,0.0001254712911,-0.0003396934095,-0.0007068011311,-1.03499869e-05,-0.000717151118,-0.0004563215484,-4.150180567e-05,-0.0004978233541,-0.0003378634339,8.255489476e-05,-0.0002553085391,-0.000573260032,-5.534210771e-05,-0.0006286021397,-0.0005807673913,0.0001358109755,-0.0004449564158,-0.0008690609559,-9.221515508e-05,-0.000961276111,-0.0006807774072,0.0001370889383,-0.0005436884689,-0.0008295707701,0.0002675199414,-0.0005620508287,-0.0003195773832,8.186976293e-05,-0.0002377076203,-0.00133694199,-1.04941888e-05,-0.001347436179,-0.0003359704139,9.342948572e-05,-0.0002425409282,-0.001550729334,-4.064029537e-05,-0.001591369629,-0.001295540445,8.860349425e-05,-0.00120693695,-0.001592470799,9.394130008e-05,-0.001498529499,-0.0009932068996,0.0001913659585,-0.0008018409411,-0.0009066598066,0.0001105061418,-0.0007961536648,-0.000304943765,0.0001716702083,-0.0001332735567,-0.0004150946228,6.724873358e-05,-0.0003478458892,-0.0004095399314,0.0001709372861,-0.0002386026453,-0.00067990011,8.990956583e-05,-0.0005899905442,-0.0004142247533,-4.7700633e-05,-0.0004619253863,-0.0008070162934,0.000139446613,-0.0006675696803,-0.0003400433018,8.699352355e-05,-0.0002530497783,-0.001260471545,6.881514746e-05,-0.001191656398,-0.001282721941,9.636760653e-05,-0.001186354334,-0.000959083648,8.912145663e-05,-0.0008699621914,-0.001067131648,0.0002356796333,-0.0008314520145,-0.001519502018,5.625692263e-05,-0.001463245095,-0.001156295094,9.455102979e-05,-0.001061744064,-0.001136402747,-2.919398553e-05,-0.001165596732,-0.0007292497306,0.0001030913974,-0.0006261583332,-0.001132317632,-2.204325327e-05,-0.001154360885,-0.001104350806,2.003028315e-05,-0.001084320523
0.4,-0.0007614349697,-5.926103376e-05,-0.0008206960035,-0.0002437184136,0.0001746535578,-6.906485574e-05,-0.0004461937577,0.0001320807361,-0.0003141130216,-0.0006972284994,-1.116722146e-05,-0.0007083957209,-0.000443351121,-4.081661357e-05,-0.0004841677346,-0.0003308834288,8.406158492e-05,-0.0002468218438,-0.0005660897741,-5.34058333e-05,-0.0006194956074,-0.0005661449584,0.0001407017982,-0.0004254431602,-0.0008785536463,-9.385037379e-05,-0.0009724040201,-0.00067956903,0.0001384434488,-0.0005411255813,-0.0008243380479,0.0002635421333,-0.0005607959146,-0.0002840626006,7.550232249e-05,-0.0002085602781,-0.001295131533,-7.893216983e-06,-0.00130302475,-0.0002955420503,9.613725441e-05,-0.0001994047959,-0.001498499712,-4.237017619e-05,-0.001540869888,-0.001262918248,8.999914082e-05,-0.001172919108,-0.001571832072,9.666365897e-05,-0.001475168413,-0.0009683974633,0.0001941048638,-0.0007742925995,-0.0008861965962,0.0001104766339,-0.0007757199623,-0.0002986886485,0.0001701439506,-0.0001285446979,-0.0004154662936,6.288019987e-05,-0.0003525860937,-0.0003873618538,0.0001675658771,-0.0002197959767,-0.0007008662774,8.952259738e-05,-0.00061134368,-0.0004235106118,-5.37638104e-05,-0.0004772744222,-0.0007489999994,0.0001469614184,-0.000602038581,-0.0003188306904,8.256851569e-05,-0.0002362621747,-0.001184863328,8.066825146e-05,-0.001104195077,-0.001259369439,9.157009779e-05,-0.001167799341,-0.0009281336736,8.53356081e-05,-0.0008427980655,-0.001038930664,0.0002323665988,-0.0008065640656,-0.001493786822,5.532191942e-05,-0.001438464903,-0.001129005912,9.199270924e-05,-0.001037013203,-0.001114265461,-2.653532103e-05,-0.001140800782,-0.0006991726742,0.000102853467,-0.0005963192073,-0.001113462687,-1.989069322e-05,-0.00113335338,-0.001086223352,2.310976376e-05,-0.001063113589
0.5,-0.000771890664,-6.601368922e-05,-0.0008379043533,-0.0002229576342,0.0001728339177,-5.012371652e-05,-0.0004273464823,0.0001385782407,-0.0002887682416,-0.0006884829345,-1.208620927e-05,-0.0007005691438,-0.0004300938219,-4.010270857e-05,-0.0004701965305,-0.0003251664621,8.530306367e-05,-0.0002398633984,-0.0005586169522,-5.148675214e-05,-0.0006101037043,-0.0005519542321,0.0001453020958,-0.0004066521363,-0.0008873202033,-9.546979881e-05,-0.0009827900021,-0.0006782892151,0.0001396185028,-0.0005386707123,-0.0008189548503,0.0002591439005,-0.0005598109498,-0.0002491133928,6.856148593e-05,-0.0001805519069,-0.00125291353,-5.081064912e-06,-0.001257994595,-0.0002560431657,9.863637569e-05,-0.00015740679,-0.001444034843,-4.481485755e-05,-0.001488849701,-0.001229018892,9.127581776e-05,-0.001137743074,-0.001549806222,9.91784616e-05,-0.001450627761,-0.0009435960383,0.0001965922944,-0.0007470037439,-0.000865997287,0.0001102523379,-0.000755744949,-0.0002933370763,0.0001684241311,-0.0001249129452,-0.0004160061631,5.854677824e-05,-0.0003574593849,-0.0003656636938,0.0001640239962,-0.0002016396976,-0.0007218753831,8.894905392e-05,-0.0006329263292,-0.0004321223265,-5.965984163e-05,-0.0004917821681,-0.0006908545861,0.0001535640303,-0.0005372905558,-0.0002993474587,7.807892264e-05,-0.000221268536,-0.001108624143,9.20451201e-05,-0.001016579023,-0.001235689055,8.64926651e-05,-0.00114919639,-0.000897064451,8.1384572e-05,-0.000815679879,-0.001011273348,0.0002284310745,-0.000782842273,-0.001467060499,5.416923916e-05,-0.00141289126,-0.001101719779,8.908767522e-05,-0.001012632103,-0.001091014902,-2.395579432e-05,-0.001114970696,-0.0006696142147,0.0001022995642,-0.0005673146505,-0.001094769999,-1.781006995e-05,-0.001112580069,-0.001068779034,2.566434895e-05,-0.001043114685
0.6,-0.0007803455314,-7.209337369e-05,-0.0008524389051,-0.0002033898433,0.0001707146786,-3.267516474e-05,-0.0004087710185,0.000144948528,-0.0002638224905,-0.0006806709428,-1.310567047e-05,-0.0006937766133,-0.00041669162,-3.936005694e-05,-0.000456051677,-0.0003208048429,8.62797916e-05,-0.0002345250513,-0.0005509651421,-4.958850513e-05,-0.0006005536473,-0.0005383698455,0.0001495917626,-0.0003887780829,-0.0008954648021,-9.707395211e-05,-0.0009925387543,-0.0006770444316,0.0001406245032,-0.0005364199284,-0.0008135517353,0.0002543556481,-0.0005591960872,-0.0002149548726,6.111127749e-05,-0.0001538435951,-0.001210637935,-2.023265395e-06,-0.001212661201,-0.0002176975996,0.0001008892912,-0.0001168083084,-0.001387710003,-4.79703359e-05,-0.001435680339,-0.001194115201,9.243140128e-05,-0.001101683799,-0.001526629382,0.0001015108468,-0.001425118536,-0.0009190123826,0.0001988318608,-0.0007201805218,-0.0008462805547,0.0001098476723,-0.0007364328824,-0.000288937198,0.0001665309276,-0.0001224062704,-0.000416696167,5.427469632e-05,-0.0003624214707,-0.0003444997941,0.0001603525253,-0.0001841472689,-0.0007427511242,8.820255645e-05,-0.0006545485677,-0.0004399242485,-6.537063117e-05,-0.0005052948797,-0.0006328531788,0.0001591873266,-0.0004736658521,-0.000281779225,7.353958082e-05,-0.0002082396442,-0.001032205184,0.0001028921111,-0.000929313073,-0.001211879255,8.115939014e-05,-0.001130719865,-0.0008661032548,7.72989485e-05,-0.0007888043063,-0.0009843850356,0.0002239072077,-0.0007604778279,-0.001439558621,5.281668059e-05,-0.001386741941,-0.001074654444,8.586616097e-05,-0.0009887882832,-0.001066913593,-2.145025727e-05,-0.00108836385,-0.0006407953038,0.0001014170006,-0.0005393783032,-0.001076470286,-1.581695227e-05,-0.001092287239,-0.001052269453,2.771738083e-05,-0.001024552072
0.7,-0.0007867807006,-7.744737409e-05,-0.0008642280747,-0.0001850897156,0.0001683064525,-1.678326312e-05,-0.0003906069306,0.0001511770958,-0.0002394298348,-0.0006738841961,-1.4223032e-05,-0.0006881072281,-0.0004032854103,-3.858869273e-05,-0.0004418741031,-0.0003178778264,8.699551944e-05,-0.0002308823069,-0.0005432612377,-4.771489942e-05,-0.0005909761372,-0.0005255646893,0.0001535530369,-0.0003720116524,-0.0009030926177,-9.86631863e-05,-0.001001755804,-0.0006759401644,0.0001414733136,-0.0005344668509,-0.0008082541767,0.00024921023,-0.0005590439468,-0.0001818008631,5.32201079e-05,-0.0001285807552,-0.001168652488,1.310465985e-06,-0.001167342022,-0.0001807151919,0.0001028626728,-7.785251907e-05,-0.001329915349,-5.182797184e-05,-0.001381743321,-0.001158485741,9.346286419e-05,-0.001065022877,-0.00150254233,0.0001036889778,-0.001398853352,-0.0008948519561,0.0002008271418,-0.0006940248143,-0.0008272614902,0.0001092785899,-0.0007179829003,-0.0002855300573,0.0001644854214,-0.0001210446359,-0.0004175206169,5.008819552e-05,-0.0003674324214,-0.0003239080555,0.0001565951942,-0.0001673128613,-0.0007633055603,8.729887246e-05,-0.0006760066878,-0.0004467738903,-7.088195863e-05,-0.0005176558489,-0.0005752625711,0.0001637804324,-0.0004114821388,-0.0002662918784,6.89701516e-05,-0.0001973217268,-0.0009560465262,0.0001131633282,-0.000842883198,-0.001188128531,7.559650865e-05,-0.001112532022,-0.0008354692846,7.310915414e-05,-0.0007623601305,-0.0009584788259,0.0002188326799,-0.000739646146,-0.001411514169,5.128233522e-05,-0.001360231834,-0.001048024089,8.236016938e-05,-0.0009656639192,-0.001042241244,-1.900725056e-05,-0.001061248495,-0.0006129378075,0.0001001940123,-0.0005127437952,-0.001058794823,-1.392481369e-05,-0.001072719636,-0.001036945143,2.929765428e-05,-0.001007647489
0.8,-0.0007911971624,-8.20306268e-05,-0.0008732277892,-0.0001681151988,0.0001656223444,-2.492854431e-06,-0.000372985074,0.0001572498956,-0.0002157351784,-0.000668199475,-1.543442577e-05,-0.0006836339008,-0.000390014296,-3.77888162e-05,-0.0004278031122,-0.0003164516173,8.745705121e-05,-0.0002289945661,-0.0005356346694,-4.586993285e-05,-0.0005815046022,-0.0005137088846,0.0001571706549,-0.0003565382297,-0.0009103090088,-0.0001002376386,-0.001010546647,-0.0006750805982,0.0001421781375,-0.0005329024607,-0.0008031822093,0.0002437427321,-0.0005594394772,-0.0001498527617,4.49583978e-05,-0.0001048943639,-0.001127301281,4.944895538e-06,-0.001122356385,-0.0001452936524,0.0001045278203,-4.076583216e-05,-0.001271052555,-5.637578537e-05,-0.001327428341,-0.001122413642,9.436652059e-05,-0.001028047122,-0.001477789655,0.0001057434197,-0.001372046235,-0.0008713152325,0.0002025816728,-0.0006687335597,-0.0008091508862,0.0001085627035,-0.0007005881827,-0.0002831498438,0.0001623093577,-0.0001208404861,-0.0004184664816,4.60093969e-05,-0.0003724570847,-0.0003039107188,0.0001527978125,-0.0001511129063,-0.0007833417101,8.625572906e-05,-0.000697085981,-0.0004525246847,-7.618319585e-05,-0.0005287078806,-0.0005183434729,0.0001673088857,-0.0003510345873,-0.0002530314797,6.439513781e-05,-0.0001886363419,-0.0008805752875,0.000122819772,-0.0007577555155,-0.001164616048,6.98326227e-05,-0.001094783425,-0.0008053729797,6.884485237e-05,-0.0007365281274,-0.0009337551486,0.0002132482284,-0.0007205069202,-0.001383156826,4.958458468e-05,-0.001333572241,-0.001022038808,7.86030204e-05,-0.000943435788,-0.00101729175,-1.660993015e-05,-0.00103390168,-0.0005862635711,9.862014408e-05,-0.000487643427,-0.001041974627,-1.214511155e-05,-0.001054119738,-0.001023052643,3.04377789e-05,-0.0009926148637
0.9,-0.0007936137026,-8.580507542e-05,-0.0008794187781,-0.0001525097662,0.0001626772426,1.016747636e-05,-0.00035602739,0.0001631531527,-0.0001928742373,-0.0006636790303,-1.673470579e-05,-0.0006804137361,-0.0003770148421,-3.696087112e-05,-0.0004139757132,-0.0003165796434,8.767392479e-05,-0.0002289057186,-0.0005282164319,-4.4057792e-05,-0.0005722742239,-0.000502968542,0.0001604320336,-0.0003425365084,-0.0009172187881,-0.0001017972108,-0.001019015999,-0.0006745682003,0.0001427534274,-0.0005318147729,-0.0007984501,0.0002379902605,-0.0005604598396,-0.0001192989302,3.639631222e-05,-8.290261802e-05,-0.001086923217,8.898259583e-06,-0.001078024957,-0.0001116206576,0.0001058609639,-5.759693673e-06,-0.001211531953,-6.159883386e-05,-0.001273130787,-0.001086185498,9.513832791e-05,-0.0009910471696,-0.001452618241,0.000107705532,-0.001344912709,-0.0008485972178,0.0002040989815,-0.0006444982363,-0.0007921546158,0.0001077192809,-0.0006844353349,-0.0002818241793,0.0001600248966,-0.0001217992828,-0.0004195235315,4.205822244e-05,-0.000377465309,-0.0002845156305,0.0001490074661,-0.0001355081644,-0.0008026566727,8.509265869e-05,-0.000717564014,-0.000457029351,-8.126695722e-05,-0.0005382963082,-0.0004623506216,0.0001697541102,-0.0002925965114,-0.0002421245701,5.984378114e-05,-0.000182280789,-0.0008062044217,0.0001318281166,-0.0006743763051,-0.001141512629,6.389895597e-05,-0.001077613673,-0.0007760152293,6.453437302e-05,-0.0007114808563,-0.0009104012271,0.0002071971399,-0.0007032040872,-0.001354712349,4.774212444e-05,-0.001306970225,-0.0009969041235,7.462899269e-05,-0.0009222751308,-0.0009923695873,-1.423709669e-05,-0.001006606684,-0.0005609934687,9.668685463e-05,-0.0004643066141,-0.00102623935,-1.048742988e-05,-0.001036726779,-0.001010831643,3.11727143e-05,-0.0009796589285
1.0,-0.0007940649074,-8.873917391e-05,-0.0008828040813,-0.000138304395,0.0001594871825,2.11827876e-05,-0.0003398463615,0.0001688733421,-0.0001709730194,-0.0006603711401,-1.811750093e-05,-0.000678488641,-0.0003644198765,-3.610559361e-05,-0.0004005254701,-0.000318302875,8.765801603e-05,-0.000230644859,-0.0005211375802,-4.228283345e-05,-0.0005634204137,-0.0004935042175,0.000163327437,-0.0003301767805,-0.0009239250604,-0.0001033415722,-0.001027266633,-0.0006745027572,0.0001432147996,-0.0005312879576,-0.0007941655233,0.0002319917266,-0.0005621737967,-9.031416504e-05,2.760179641e-05,-6.271236863e-05,-0.001047849884,1.318160984e-05,-0.001034668274,-7.987521215e-05,0.000106843383,2.696817082e-05,-0.001151770001,-6.747859284e-05,-0.001219248594,-0.001050090048,9.577420468e-05,-0.0009543158437,-0.001427275187,0.0001096052616,-0.001317669926,-0.0008268867574,0.0002053826477,-0.0006215041097,-0.0007764725651,0.0001067689705,-0.0006697035947,-0.0002815742611,0.0001576543387,-0.0001239199225,-0.0004206841677,3.825234011e-05,-0.0003824318276,-0.0002657176615,0.0001452716906,-0.0001204459709,-0.0008210450708,8.383086275e-05,-0.000737214208,-0.0004601436976,-8.612874479e-05,-0.0005462724424,-0.000407532472,0.000171112713,-0.000236419759,-0.0002336781779,5.534969878e-05,-0.0001783284791,-0.0007333313609,0.0001401593903,-0.0005931719706,-0.001118981427,5.78293948e-05,-0.001061152032,-0.0007475859905,6.020416361e-05,-0.0006873818269,-0.000888589945,0.0002007247224,-0.0006878652226,-0.001326401645,4.577393924e-05,-0.001280627706,-0.0009728201388,7.047302161e-05,-0.0009023471172,-0.0009677854191,-1.186451832e-05,-0.0009796499374,-0.0005373462654,9.43882605e-05,-0.0004429580049,-0.001011815391,-8.959818054e-06,-0.001020775209,-0.001000511936,3.153838444e-05,-0.0009689735516
1.1,-0.0007925992046,-9.080768601e-05,-0.0008834068906,-0.0001255187844,0.0001560688666,3.055008218e-05,-0.0003245439534,0.0001743973055,-0.0001501466479,-0.0006583106198,-1.957531812e-05,-0.0006778859379,-0.0003523565289,-3.522403042e-05,-0.0003875805593,-0.0003216499756,8.742308614e-05,-0.0002342268895,-0.0005145270208,-4.054955878e-05,-0.0005550765796,-0.0004854690321,0.0001658500846,-0.0003196189475,-0.0009305273057,-0.0001048701847,-0.00103539749,-0.0006749796036,0.0001435789201,-0.0005314006835,-0.0007904278901,0.0002257876119,-0.0005646402783,-6.305871148e-05,1.863903543e-05,-4.441967605e-05,-0.001010402557,1.779842766e-05,-0.0009926041291,-5.022746397e-05,0.0001074612756,5.723381168e-05,-0.001092186301,-7.399178188e-05,-0.001166178083,-0.001014416323,9.627034523e-05,-0.000918145978,-0.001402005836,0.0001114693693,-0.001290536467,-0.0008063652458,0.0002064363692,-0.0005999288765,-0.0007622967357,0.0001057332408,-0.0006565634949,-0.000282414709,0.0001552198194,-0.0001271948896,-0.0004219428227,3.460710267e-05,-0.00038733572,-0.0002475000064,0.0001416376345,-0.0001058623718,-0.0008383026374,8.249307521e-05,-0.0007558095622,-0.000461730798,-9.076663209e-05,-0.00055249743,-0.0003541302108,0.0001713959376,-0.0001827342732,-0.0002277789329,5.09501646e-05,-0.0001768287683,-0.0006623358279,0.0001477879542,-0.0005145478738,-0.001097177729,5.166007481e-05,-0.001045517655,-0.0007202620473,5.58783159e-05,-0.0006643837314,-0.0008684778099,0.0001938777541,-0.0006746000558,-0.001298439184,4.369916251e-05,-0.001254740022,-0.0009499800401,6.617038694e-05,-0.0008838096532,-0.0009438508243,-9.466582334e-06,-0.0009533174066,-0.0005155369558,9.172176095e-05,-0.0004238151949,-0.0009989230248,-7.569277436e-06,-0.001006492302,-0.0009923098625,3.157021761e-05,-0.0009607396449
1.2,-0.0007892768309,-9.199179849e-05,-0.0008812686293,-0.0001141615863,0.0001524393898,3.827780357e-05,-0.0003102100432,0.0001797124637,-0.0001304975796,-0.0006575191029,-2.109970211e-05,-0.000678618805,-0.0003409434885,-3.431753347e-05,-0.0003752610219,-0.0003266371562,8.698430976e-05,-0.0002396528464,-0.0005085087288,-3.886259083e-05,-0.0005473713197,-0.00047900652,0.0001679961882,-0.0003110103319,-0.0009371188137,-0.0001063823485,-0.001043501162,-0.000676087176,0.0001438633369,-0.0005322238391,-0.0007873259021,0.000219419688,-0.0005679062141,-3.767653958e-05,9.567361781e-06,-2.810917779e-05,-0.0009748884598,2.274443351e-05,-0.0009521440263,-2.283680025e-05,0.0001077054792,8.486867898e-05,-0.001033199411,-8.110911949e-05,-0.00111430853,-0.0009794510571,9.662349598e-05,-0.0008828275611,-0.001377052248,0.0001133206605,-0.001263731587,-0.000787204583,0.0002072640655,-0.0005799405175,-0.0007498084211,0.0001046336042,-0.0006451748169,-0.0002843530863,0.0001527429851,-0.0001316101011,-0.0004232949968,3.113547041e-05,-0.0003921595264,-0.0002298352815,0.0001381512297,-9.168405176e-05,-0.0008542299347,8.110340178e-05,-0.0007731265329,-0.000461665548,-9.518099812e-05,-0.0005568465461,-0.0003023758377,0.0001706292397,-0.000131746598,-0.000224491139,4.668509371e-05,-0.0001778060453,-0.0005935766299,0.0001546912329,-0.000438885397,-0.001076247742,4.542857015e-05,-0.001030819172,-0.000694204129,5.157819556e-05,-0.0006426259335,-0.0008502021646,0.0001867038993,-0.0006634982654,-0.001271030692,4.153676732e-05,-0.001229493925,-0.0009285678987,6.17563657e-05,-0.000866811533,-0.0009208723754,-7.018155335e-06,-0.0009278905308,-0.000495774387,8.86883923e-05,-0.0004070859947,-0.000987772742,-6.322211261e-06,-0.0009940949532,-0.0009864243034,3.130154126e-05,-0.0009551227622
1.3,-0.0007841676653,-9.227943661e-05,-0.0008764471019,-0.000104229776,0.0001486161534,4.43863774e-05,-0.0002969206045,0.0001848070609,-0.0001121135437,-0.0006580050679,-2.268143846e-05,-0.0006806865064,-0.0003302878757,-3.338774344e-05,-0.0003636756192,-0.0003332677653,8.635783333e-05,-0.000246909932,-0.0005031988663,-3.722664826e-05,-0.0005404255146,-0.0004742483781,0.0001697649344,-0.0003044834437,-0.0009437840833,-0.0001078772523,-0.001051661336,-0.0006779044861,0.0001440862584,-0.0005338182278,-0.0007849349363,0.000212930691,-0.0005720042453,-1.429309805e-05,4.405626242e-07,-1.385253542e-05,-0.0009415967206,2.800756502e-05,-0.0009135891556,2.151183115e-06,0.0001075712309,0.000109722414,-0.0009752213929,-8.879425473e-05,-0.001064015648,-0.0009454755051,9.683114442e-05,-0.0008486443607,-0.001352651872,0.000115177905,-0.001237473967,-0.0007695646342,0.0002078700376,-0.0005616945966,-0.0007391747631,0.0001034907177,-0.0006356840454,-0.0002873892497,0.0001502446725,-0.0001371445772,-0.000424736202,2.784792857e-05,-0.0003968882735,-0.000212686604,0.0001348563649,-7.783023904e-05,-0.0008686363725,7.968711139e-05,-0.0007889492611,-0.0004598396034,-9.9374283e-05,-0.0005592138864,-0.0002524892801,0.0001688518257,-8.363745443e-05,-0.0002238542238,4.259589761e-05,-0.0001812583262,-0.0005273877216,0.0001608504031,-0.0003665373185,-0.001056326751,3.91729577e-05,-0.001017153793,-0.000669554157,4.732218823e-05,-0.0006222319687,-0.0008338783759,0.0001792510949,-0.0006546272809,-0.001244370448,3.930511187e-05,-0.001205065336,-0.000908756193,5.726586861e-05,-0.0008514903243,-0.0008991455605,-4.496418527e-06,-0.000903641979,-0.0004782583601,8.529300934e-05,-0.0003929653507,-0.0009785614607,-5.224656045e-06,-0.0009837861168,-0.0009830327342,3.076196044e-05,-0.0009522707738
1.4,-0.000777349013,-9.166560966e-05,-0.0008690146226,-9.570763105e-05,0.0001446168959,4.890926484e-05,-0.0002847360906,0.0001896703831,-9.506570743e-05,-0.0006597637731,-2.431076574e-05,-0.0006840745389,-0.0003204824484,-3.243657275e-05,-0.0003529190211,-0.0003415318088,8.556040991e-05,-0.0002559713989,-0.000498703455,-3.564650318e-05,-0.0005343499582,-0.0004713123402,0.0001711584497,-0.0003001538904,-0.0009505970239,-0.0001093540054,-0.001059951029,-0.0006804992987,0.0001442662989,-0.0005362329998,-0.0007833151189,0.0002063639613,-0.0005769511576,6.986818987e-06,-8.69345469e-06,-1.706635703e-06,-0.0009107944992,3.356812509e-05,-0.0008772263741,2.460792906e-05,0.0001070580579,0.0001316659869,-0.0009186517541,-9.700305043e-05,-0.001015654805,-0.0009127620616,9.68915866e-05,-0.000815870475,-0.001329036154,0.0001170559015,-0.001211980252,-0.0007535907827,0.0002082591016,-0.0005453316812,-0.0007305453452,0.0001023234546,-0.0006282218906,-0.000291514798,0.0001477446123,-0.0001437701858,-0.0004262611554,2.475241618e-05,-0.0004015087393,-0.000196008976,0.0001317940477,-6.421492824e-05,-0.0008813446672,7.82703744e-05,-0.0008030742928,-0.0004561665661,-0.000103350717,-0.0005595172831,-0.0002046749819,0.0001661160913,-3.855889055e-05,-0.0002258804188,3.872437364e-05,-0.0001871560452,-0.0004640741288,0.000166251776,-0.0002978223528,-0.001037537372,3.293098015e-05,-0.001004606392,-0.0006464335201,4.312556693e-05,-0.0006033079532,-0.0008195978967,0.0001715669343,-0.0006480309624,-0.001218638868,3.702145374e-05,-0.001181617414,-0.0008907036538,5.273307412e-05,-0.0008379705797,-0.0008789491077,-1.882568029e-06,-0.0008808316757,-0.0004631766466,8.154446233e-05,-0.0003816321843,-0.0009714692637,-4.28228511e-06,-0.0009757515488,-0.0009822880299,2.997604907e-05,-0.0009523119809
1.5,-0.0007689035224,-9.015264145e-05,-0.0008590561639,-8.856587516e-05,0.0001404597606,5.189388542e-05,-0.0002737004373,0.000194292916,-7.940752133e-05,-0.0006627773466,-2.597755939e-05,-0.000688754906,-0.0003116038158,-3.146618952e-05,-0.0003430700053,-0.0003514056473,8.46091337e-05,-0.0002667965136,-0.0004951170853,-3.41269051e-05,-0.0005292439904,-0.0004703003494,0.0001721817752,-0.0002981185743,-0.0009576205026,-0.0001108116333,-0.001068432136,-0.0006839275066,0.0001444222288,-0.0005395052778,-0.0007825106786,0.0001997630707,-0.0005827476079,2.608042951e-05,-1.779268767e-05,8.287741837e-06,-0.0008827236989,3.939911529e-05,-0.0008433245836,4.442472879e-05,0.0001061697268,0.0001505944556,-0.0008638715448,-0.000105683372,-0.0009695549167,-0.0008815711765,9.68038602e-05,-0.0007847673163,-0.001306429272,0.0001189654599,-0.001187463812,-0.0007394121907,0.0002084365831,-0.0005309756076,-0.0007240495327,0.0001011480275,-0.0006229015052,-0.0002967128517,0.0001452611821,-0.0001514516695,-0.0004278634562,2.185428003e-05,-0.0004060091761,-0.0001797511752,0.0001290015667,-5.074960853e-05,-0.000892195583,7.687996521e-05,-0.0008153156178,-0.0004505870527,-0.0001071159902,-0.0005577030429,-0.0001591186646,0.0001624868975,3.368232942e-06,-0.000230553498,3.511170904e-05,-0.000195441789,-0.0004039083799,0.0001708882765,-0.0002330201033,-0.001019988565,2.67394258e-05,-0.0009932491396,-0.0006249428528,3.900048431e-05,-0.0005859423685,-0.0008074276541,0.0001636980628,-0.0006437295913,-0.001194000895,3.470154871e-05,-0.001159299346,-0.0008745538373,4.819105421e-05,-0.000826362783,-0.000860539947,8.364097441e-07,-0.0008597035372,-0.0004507023301,7.745582199e-05,-0.0003732465081,-0.0009666569686,-3.500367818e-06,-0.0009701573364,-0.0009843164565,2.896270368e-05,-0.0009553537528
1.6,-0.0007589174077,-8.775021741e-05,-0.0008466676251,-8.276138101e-05,0.0001361633394,5.34019584e-05,-0.000263840882,0.0001986664309,-6.51744511e-05,-0.0006670152173,-2.767146915e-05,-0.0006946866865,-0.0003037119393,-3.047899889e-05,-0.0003341909382,-0.0003628520598,8.352126763e-05,-0.0002793307922,-0.0004925227299,-3.267246573e-05,-0.0005251951956,-0.0004712970992,0.0001728428585,-0.0002984542407,-0.0009649072383,-0.0001122490335,-0.001077156272,-0.0006882336729,0.0001445727587,-0.0005436609142,-0.0007825506365,0.0001931714437,-0.0005893791927,4.292718111e-05,-2.68208399e-05,1.610634121e-05,-0.0008575985097,4.54667361e-05,-0.0008121317736,6.151482017e-05,0.0001049141524,0.0001664289726,-0.00081123825,-0.0001147753367,-0.0009260135867,-0.0008521488556,9.656755123e-05,-0.0007555813044,-0.001285047261,0.0001209133041,-0.001164133957,-0.0007271410805,0.0002084081602,-0.0005187329203,-0.000719794979,9.99772496e-05,-0.0006198177294,-0.0003029582567,0.0001428112309,-0.0001601470258,-0.0004295357538,1.915626659e-05,-0.0004103794872,-0.0001638580845,0.0001265117078,-3.734637665e-05,-0.0009010524986,7.554294138e-05,-0.0008255095573,-0.0004430730452,-0.0001106768594,-0.0005537499045,-0.0001159847182,0.0001580404836,4.20557654e-05,-0.0002378289157,3.179757144e-05,-0.0002060313442,-0.0003471278388,0.0001747604199,-0.0001723674189,-0.001003775828,2.063378747e-05,-0.0009831420404,-0.000605163164,3.495607749e-05,-0.0005702070865,-0.0007974106193,0.0001556895974,-0.0006417210219,-0.001170605342,3.23593819e-05,-0.00113824596,-0.0008604344675,4.367140394e-05,-0.0008167630635,-0.0008441487045,3.665669409e-06,-0.0008404830351,-0.0004409917263,7.304462121e-05,-0.000367947105,-0.0009642644536,-2.883858452e-06,-0.000967148312,-0.0009892168491,2.773519559e-05,-0.0009614816536
1.7,-0.0007474790348,-8.44752582e-05,-0.000831954293,-7.823756363e-05,0.0001317466707,5.35091071e-05,-0.0002551685369,0.0002027839928,-5.238454411e-05,-0.0006724349305,-2.938201763e-05,-0.0007018169481,-0.0002968507355,-2.94776208e-05,-0.0003263283563,-0.0003758207251,8.231414092e-05,-0.0002935065842,-0.0004909923188,-3.128750874e-05,-0.0005222798275,-0.0004743689416,0.0001731525602,-0.0003012163814,-0.0009725015606,-0.0001136649006,-0.001086166461,-0.000693452274,0.0001447363828,-0.0005487158912,-0.0007834504284,0.0001866319791,-0.0005968184493,5.748784613e-05,-3.574694192e-05,2.17409042e-05,-0.000835603894,5.173102609e-05,-0.0007838728679,7.581469418e-05,0.0001033032348,0.000179117929,-0.000761081787,-0.0001242118372,-0.0008852936242,-0.0008247247023,9.618249062e-05,-0.0007285422117,-0.001265097402,0.0001229019246,-0.001142195478,-0.000716872942,0.0002081796428,-0.0005086932992,-0.0007178672573,9.882001646e-05,-0.0006190472409,-0.0003102181583,0.0001404099826,-0.0001698081757,-0.0004312702203,1.665856678e-05,-0.0004146116535,-0.0001482731672,0.0001243520937,-2.392107342e-05,-0.0009078052391,7.428627851e-05,-0.0008335189606,-0.0004336308473,-0.0001140407103,-0.0005476715577,-7.541431505e-05,0.0001528628645,7.744854945e-05,-0.0002476351388,2.88192253e-05,-0.0002188159135,-0.0002939329919,0.0001778765159,-0.0001160564761,-0.0009889824749,1.464820295e-05,-0.0009743342719,-0.0005871576969,3.099863869e-05,-0.0005561590582,-0.0007895670305,0.0001475845723,-0.0006419824582,-0.001148585022,3.000704502e-05,-0.001118577977,-0.000848457311,3.920391518e-05,-0.0008092533958,-0.0008299756644,6.600375728e-06,-0.0008233752887,-0.0004341828683,6.83330768e-05,-0.0003658497915,-0.0009644094581,-2.437643843e-06,-0.0009668471019,-0.0009970606638,2.63015967e-05,-0.0009707590671
1.8,-0.0007346777846,-8.035166577e-05,-0.0008150294504,-7.492537482e-05,0.000127229192,5.230381715e-05,-0.0002476794568,0.0002066398827,-4.103957414e-05,-0.000678983246,-3.109868166e-05,-0.0007100819276,-0.0002910492688,-2.8464867e-05,-0.0003195141358,-0.0003902490204,8.1005091e-05,-0.0003092439294,-0.0004905874769,-2.997589264e-05,-0.0005205633696,-0.0004795631361,0.0001731246646,-0.0003064384715,-0.0009804412469,-0.0001150576335,-0.00109549888,-0.0006996089488,0.0001449312914,-0.0005546776574,-0.0007852137669,0.0001801866722,-0.0006050270947,6.974285867e-05,-4.454476092e-05,2.519809775e-05,-0.0008168948713,5.814665093e-05,-0.0007587482204,8.728466031e-05,0.0001013526258,0.0001886372861,-0.000713701405,-0.0001339192823,-0.0008476206872,-0.0007995101939,9.564835434e-05,-0.0007038618396,-0.001246777412,0.0001249294102,-0.001121848002,-0.0007086871853,0.0002077567714,-0.0005009304139,-0.0007183301501,9.768106083e-05,-0.0006206490893,-0.0003184527682,0.0001380710134,-0.0001803817548,-0.0004330590198,1.435892336e-05,-0.0004187000964,-0.0001329406773,0.000122544691,-1.039598624e-05,-0.0009123726196,7.313642442e-05,-0.0008392361952,-0.0004223020791,-0.0001172151063,-0.0005395171853,-3.752428184e-05,0.0001470478818,0.0001095236,-0.0002598756721,2.62106907e-05,-0.0002336649814,-0.0002444866356,0.000180252282,-6.423435357e-05,-0.000975681498,8.815641165e-06,-0.0009668658569,-0.0005709736676,2.713180386e-05,-0.0005438418637,-0.0007838955386,0.0001394234046,-0.000644472134,-0.001128057226,2.765476949e-05,-0.001100402457,-0.0008387181619,3.481632608e-05,-0.0008039018358,-0.0008181873899,9.624096092e-06,-0.0008085632938,-0.0004303942383,6.334825977e-05,-0.0003670459785,-0.0009671864437,-2.166926516e-06,-0.0009693533702,-0.001007892422,2.466525404e-05,-0.0009832271679
1.9,-0.0007206029939,-7.54099679e-05,-0.0007960129618,-7.274463615e-05,0.0001226306311,4.988599498e-05,-0.0002413558194,0.000210229446,-3.11263734e-05,-0.0006865973265,-3.281097908e-05,-0.0007194083055,-0.0002863228729,-2.744372179e-05,-0.0003137665947,-0.000406062919,7.961142253e-05,-0.0003264514964,-0.0004913597656,-2.874082008e-05,-0.0005201005857,-0.0004869073739,0.0001727758711,-0.0003141315027,-0.0009887585987,-0.0001164252415,-0.00110518384,-0.0007067210445,0.0001451753375,-0.0005615457071,-0.0007878339905,0.0001738762379,-0.0006139577526,7.969055572e-05,-5.319202927e-05,2.649852645e-05,-0.0008015960778,6.466381995e-05,-0.0007369322579,9.590892145e-05,9.908139871e-05,0.0001949903202,-0.000669362884,-0.000143818623,-0.000813181507,-0.0007766968282,9.496421308e-05,-0.0006817326151,-0.001230273883,0.0001269892137,-0.00110328467,-0.0007026475342,0.0002071450794,-0.0004955024549,-0.0007212258969,9.656097952e-05,-0.0006246649173,-0.0003276160833,0.0001358062699,-0.0001918098135,-0.0004348944587,1.225279453e-05,-0.0004226416641,-0.0001178071945,0.0001211054877,3.298293168e-06,-0.0009147032298,7.211876037e-05,-0.0008425844694,-0.0004091623548,-0.000120207344,-0.0005293696988,-2.40677795e-06,0.0001406953127,0.0001382885348,-0.0002744311747,2.400202367e-05,-0.0002504291511,-0.0001989139017,0.0001819102573,-1.700364441e-05,-0.0009639371248,3.168241968e-06,-0.0009607688828,-0.0005566431592,2.335676377e-05,-0.0005332863954,-0.0007803736181,0.0001312433687,-0.0006491302494,-0.001109124047,2.531107301e-05,-0.001083812974,-0.0008312964904,3.053416357e-05,-0.0008007623269,-0.0008089141994,1.270817808e-05,-0.0007962060214,-0.0004297233089,5.812217892e-05,-0.00037160113,-0.0009726650797,-2.077737516e-06,-0.0009747428172,-0.001021730039,2.282532211e-05,-0.0009989047171
2.0,-0.0007053427708,-6.968684662e-05,-0.0007750296174,-7.16054223e-05,0.0001179707978,4.636537546e-05,-0.0002361668809,0.0002135488933,-2.26179876e-05,-0.0006952058314,-3.450857749e-05,-0.0007297144089,-0.0002826736844,-2.641733324e-05,-0.0003090910177,-0.0004231777634,7.815035015e-05,-0.0003450274132,-0.0004933500245,-2.758465404e-05,-0.0005209346785,-0.0004964095199,0.0001721257182,-0.0003242838017,-0.0009974802674,-0.0001177652822,-0.00111524555,-0.0007147970809,0.0001454860164,-0.0005693110645,-0.0007912944453,0.0001677397226,-0.0006235547227,8.734599955e-05,-6.166965227e-05,2.567634728e-05,-0.0007898010331,7.12292742e-05,-0.0007185717589,0.0001016955081,9.651157894e-05,0.000198207087,-0.0006282955893,-0.000153826613,-0.0007821222023,-0.0007564539512,9.412814314e-05,-0.0006623258081,-0.001215759665,0.0001290698057,-0.001086689859,-0.000698801553,0.000206349842,-0.000492451711,-0.0007265748419,9.54564999e-05,-0.000631118342,-0.0003376563469,0.0001336260869,-0.00020403026,-0.0004367686088,1.033355571e-05,-0.0004264350531,-0.0001028222517,0.0001200443061,1.722205441e-05,-0.0009147742662,7.125699728e-05,-0.0008435172689,-0.0003943175943,-0.0001230240059,-0.0005173416001,2.987036346e-05,0.0001339093368,0.0001637797003,-0.0002911611725,2.22187596e-05,-0.0002689424129,-0.0001573029049,0.0001828792613,2.557635636e-05,-0.0009538052206,-2.262377536e-06,-0.0009560675982,-0.0005441830016,1.967254504e-05,-0.0005245104565,-0.0007789570637,0.0001230780982,-0.0006558789654,-0.00109187212,2.298292163e-05,-0.001068889198,-0.0008262545252,2.638070205e-05,-0.0007998738231,-0.0008022484928,1.581221477e-05,-0.0007864362781,-0.0004322445822,5.269172538e-05,-0.0003795528568,-0.0009808881542,-2.177509918e-06,-0.0009830656641,-0.001038564758,2.077767618e-05,-0.001017787082
2.1,-0.0006889826106,-6.322452303e-05,-0.0007522071337,-7.140939586e-05,0.0001132692355,4.185983965e-05,-0.0002320696273,0.000216595087,-1.547454035e-05,-0.0007047298924,-3.618143296e-05,-0.0007409113254,-0.0002800905442,-2.538902629e-05,-0.0003054795705,-0.0004414988475,7.663889505e-05,-0.0003648599524,-0.0004965869635,-2.650876214e-05,-0.0005230957256,-0.0005080576069,0.0001711964076,-0.0003368611994,-0.001006626057,-0.0001190748566,-0.001125700914,-0.000723835389,0.0001458804081,-0.000577954981,-0.0007955680723,0.0001618140895,-0.0006337539829,9.274053529e-05,-6.996101337e-05,2.277952192e-05,-0.0007815710779,7.778736573e-05,-0.0007037837122,0.0001046762001,9.366750454e-05,0.0001983437047,-0.0005906894523,-0.0001638571777,-0.00075454663,-0.0007389263633,9.313701251e-05,-0.0006457893508,-0.001203390345,0.0001311543559,-0.001072235989,-0.0006971791934,0.0002053760948,-0.0004918030986,-0.000734374426,9.436096376e-05,-0.0006400134622,-0.0003485162105,0.000131539175,-0.0002169770355,-0.0004386724343,8.592728162e-06,-0.0004300797062,-8.79381667e-05,0.0001193647098,3.142654306e-05,-0.000912588708,7.057255693e-05,-0.0008420161511,-0.0003778983307,-0.0001256704594,-0.0005035687901,5.926300125e-05,0.0001267973495,0.0001860603507,-0.0003099052698,2.088150837e-05,-0.0002890237614,-0.0001197056745,0.0001831938504,6.348817586e-05,-0.0009453322707,-7.445031495e-06,-0.0009527773022,-0.0005335941409,1.607639341e-05,-0.0005175177475,-0.0007795790855,0.0001149571732,-0.0006646219124,-0.001076371828,2.067585617e-05,-0.001055695971,-0.0008236359121,2.237703599e-05,-0.0008012588761,-0.0007982438966,1.888542724e-05,-0.0007793584694,-0.000438007085,4.709841417e-05,-0.0003909086708,-0.0009918691607,-2.475539616e-06,-0.0009943447004,-0.00105836079,1.851643235e-05,-0.001039844357
2.2,-0.000671603936,-5.606999499e-05,-0.000727673931,-7.20512702e-05,0.0001085447181,3.649344795e-05,-0.0002290093501,0.0002193653404,-9.644009706e-06,-0.0007150841506,-3.781995952e-05,-0.0007529041101,-0.0002785487459,-2.436234397e-05,-0.0003029110899,-0.0004609219616,7.509372609e-05,-0.0003858282355,-0.0005010856708,-2.551340007e-05,-0.0005265990709,-0.0005218202139,0.0001700125319,-0.000351807682,-0.001016207565,-0.0001203506625,-0.001136558227,-0.0007338227527,0.0001463750588,-0.0005874476939,-0.0008006169554,0.0001561337752,-0.0006444831802,9.592155329e-05,-7.80513309e-05,1.787022239e-05,-0.0007769344756,8.428122769e-05,-0.0006926532479,0.0001049061244,9.057503797e-05,0.0001954811624,-0.0005566923522,-0.0001738228367,-0.0007305151889,-0.0007242320313,9.198647494e-05,-0.0006322455563,-0.001193300509,0.0001332207388,-0.00106007977,-0.0006977908973,0.0002042286679,-0.0004935622294,-0.0007445980361,9.326500533e-05,-0.0006513330307,-0.000360132763,0.00012955258,-0.0002305801831,-0.0004405946903,7.020237683e-06,-0.0004335744526,-7.310952695e-05,0.0001190639806,4.595445362e-05,-0.0009081716011,7.008398488e-05,-0.0008380876162,-0.0003600528014,-0.0001281502702,-0.0004882030715,8.575011813e-05,0.0001194687889,0.000205218907,-0.000330484269,2.000567473e-05,-0.0003104785943,-8.613913761e-05,0.0001828935006,9.6754363e-05,-0.0009385535171,-1.234919079e-05,-0.0009509027079,-0.0005248613112,1.256422853e-05,-0.0005122970826,-0.0007821499373,0.0001069058574,-0.00067524408,-0.001062676373,1.839411768e-05,-0.001044282255,-0.0008234643887,1.854220326e-05,-0.0008049221854,-0.0007969153673,2.186867493e-05,-0.0007750466923,-0.0004470316999,4.138789186e-05,-0.0004056438081,-0.001005590255,-2.983145328e-06,-0.001008573401,-0.001081055017,1.603581047e-05,-0.001065019207
2.3,-0.0006532828217,-4.827416663e-05,-0.0007015569883,-7.342071379e-05,0.000103814615,3.039390118e-05,-0.0002269204981,0.000221857261,-5.063237109e-06,-0.0007261781253,-3.941522179e-05,-0.0007655933471,-0.0002780102833,-2.334110778e-05,-0.0003013513911,-0.0004813341642,7.353096035e-05,-0.0004078032038,-0.0005068467788,-2.459763243e-05,-0.0005314444112,-0.0005376473459,0.0001686007311,-0.0003690466148,-0.001026227577,-0.0001215890767,-0.001147816654,-0.0007447339273,0.0001469858184,-0.0005977481089,-0.0008063926657,0.0001507302354,-0.0006556624303,9.695175534e-05,-8.592702528e-05,1.102473006e-05,-0.0007758861835,9.065386953e-05,-0.000685232314,0.0001024624522,8.726075128e-05,0.0001897232035,-0.0005264084834,-0.0001836361216,-0.000710044605,-0.0007124603093,9.067115015e-05,-0.0006217891592,-0.001185600645,0.0001352420958,-0.001050358549,-0.0007006260875,0.0002029121778,-0.0004977139098,-0.0007571944554,9.215737801e-05,-0.0006650370774,-0.0003724376862,0.0001276716397,-0.0002447660464,-0.0004425209363,5.604711183e-06,-0.0004369162251,-5.829286132e-05,0.0001191331567,6.08402954e-05,-0.0009015663825,6.980642579e-05,-0.0008317599567,-0.0003409398066,-0.0001304645438,-0.0004714043504,0.000109333331,0.0001120335109,0.0002213668418,-0.0003527018375,1.960126052e-05,-0.000333100577,-5.658629591e-05,0.0001820212765,0.0001254349806,-0.0009334911985,-1.694557055e-05,-0.0009504367691,-0.0005179536196,9.131093705e-06,-0.0005088225259,-0.0007865578833,9.894500629e-05,-0.000687612877,-0.001050821273,1.614081529e-05,-0.001034680458,-0.0008257429639,1.489328927e-05,-0.0008108496746,-0.0007982404622,2.46968383e-05,-0.0007735436239,-0.0004593090549,3.560924577e-05,-0.0004236998092,-0.001022001405,-3.713444737e-06,-0.001025714849,-0.001106557148,1.333176143e-05,-0.001093225386
2.4,-0.0006340891841,-3.9890939e-05,-0.0006739801231,-7.540490618e-05,9.909420656e-05,2.368930037e-05,-0.000225728024,0.0002240686793,-1.659344666e-06,-0.0007379181029,-4.095913325e-05,-0.0007788772362,-0.0002784250068,-2.232947423e-05,-0.000300754481,-0.000502614984,7.196595113e-05,-0.0004306490329,-0.0005138566877,-2.375928444e-05,-0.0005376159721,-0.0005554718311,0.0001669893068,-0.0003884825243,-0.001036680712,-0.0001227862379,-0.00115946695,-0.0007565324699,0.0001477276611,-0.0006088048087,-0.0008128378316,0.0001456315077,-0.0006672063239,9.590761749e-05,-9.357525209e-05,2.3323654e-06,-0.0007783886203,9.684904076e-05,-0.0006815395795,9.744179497e-05,8.375130184e-05,0.0001811930968,-0.000499898123,-0.0001932109569,-0.0006931090799,-0.0007036709889,8.918496785e-05,-0.0006144860211,-0.001180375243,0.0001371878498,-0.001043187393,-0.0007056526606,0.0002014309295,-0.000504221731,-0.0007720884562,9.102585901e-05,-0.0006810625972,-0.0003853577244,0.0001258999615,-0.0002594577629,-0.0004444328944,4.333812575e-06,-0.0004400990818,-4.344684401e-05,0.0001195571223,7.611027831e-05,-0.0008928319438,6.975118329e-05,-0.0008230807605,-0.0003207221967,-0.0001326112585,-0.0004533334551,0.0001300359816,0.00010459951,0.0002346354916,-0.0003763472413,1.967271193e-05,-0.0003566745293,-3.099825581e-05,0.0001806220646,0.0001496238088,-0.0009301536226,-2.120701774e-05,-0.0009513606404,-0.000512826212,5.771531847e-06,-0.0005070546802,-0.0007926717726,9.109108532e-05,-0.0007015806873,-0.001040824671,1.39181508e-05,-0.00102690652,-0.0008304539677,1.144552412e-05,-0.0008190084435,-0.0008021618861,2.730143622e-05,-0.0007748604499,-0.0004747986042,2.981417815e-05,-0.0004449844261,-0.001041021204,-4.680833622e-06,-0.001045702037,-0.001134750614,1.040293471e-05,-0.001124347679
2.5,-0.0006140866224,-3.097633503e-05,-0.0006450629575,-7.789170579e-05,9.43960533e-05,1.65043475e-05,-0.0002253492087,0.0002259977085,6.484998153e-07,-0.0007502095568,-4.244463955e-05,-0.0007926541964,-0.0002797326955,-2.133196396e-05,-0.0003010646594,-0.0005246380994,7.04130925e-05,-0.0004542250069,-0.000522088801,-2.299491968e-05,-0.0005450837207,-0.0005752111546,0.0001652078146,-0.00041000334,-0.001047555186,-0.0001239381206,-0.001171493307,-0.000769172759,0.0001486145153,-0.0006205582437,-0.0008198888256,0.0001408618161,-0.0006790270095,9.287723703e-05,-0.000100983849,-8.106611967e-06,-0.0007843736062,0.0001028119138,-0.0006815616924,8.995639428e-05,8.007313189e-05,0.0001700295262,-0.0004771788628,-0.0002024641433,-0.0006796430061,-0.0006978943072,8.752162578e-05,-0.0006103726814,-0.001177681923,0.0001390247551,-0.001038657167,-0.0007128176527,0.0001997887406,-0.0005130289121,-0.0007891826741,8.985812389e-05,-0.0006993245502,-0.000398815517,0.0001242394394,-0.0002745760777,-0.0004463082146,3.194607716e-06,-0.0004431136068,-2.853308068e-05,0.0001203147514,9.178167077e-05,-0.0008820406188,6.992538318e-05,-0.0008121152356,-0.0002995614753,-0.0001345846594,-0.0004341461347,0.0001479011179,9.727030079e-05,0.0002451714187,-0.0004011993357,2.021881955e-05,-0.0003809805161,-9.297959567e-06,0.0001787408309,0.0001694428714,-0.0009285353203,-2.510956183e-05,-0.0009536448821,-0.0005094227454,2.479852985e-06,-0.0005069428924,-0.0008003449296,8.335620965e-05,-0.00071698872,-0.001032688552,1.172770854e-05,-0.001020960843,-0.0008375600794,8.212440332e-06,-0.0008293476391,-0.0008085912098,2.961339268e-05,-0.0007789778171,-0.0004934290539,2.405606031e-05,-0.0004693729936,-0.001062539312,-5.900363069e-06,-0.001068439675,-0.001165494285,7.250902452e-06,-0.001158243382
2.6,-0.0005933329157,-2.158772033e-05,-0.000614920636,-8.077315135e-05,8.972948916e-05,8.956337805e-06,-0.0002256957574,0.0002276429483,1.947190932e-06,-0.0007629599281,-4.386587537e-05,-0.0008068258035,-0.0002818656954,-2.03534471e-05,-0.0003022191425,-0.0005472733752,6.888566525e-05,-0.0004783877099,-0.0005315053735,-2.229984237e-05,-0.0005538052158,-0.0005967695973,0.0001632866517,-0.0004334829456,-0.001058835166,-0.0001250406064,-0.001183875772,-0.0007826026679,0.0001496591143,-0.0006329435536,-0.0008274790335,0.0001364412337,-0.0006910377998,8.795801643e-05,-0.0001081417642,-2.018374773e-05,-0.0007937453387,0.0001084897194,-0.0006852556193,8.012968792e-05,7.625238273e-05,0.0001563820706,-0.0004582280115,-0.0002113171451,-0.0006695451565,-0.0006951317887,8.567505446e-05,-0.0006094567343,-0.001177551068,0.0001407176866,-0.001036833381,-0.0007220488544,0.0001979887587,-0.0005240600957,-0.0008083605026,8.864247946e-05,-0.0007197180232,-0.0004127307104,0.0001226903321,-0.0002900403782,-0.0004481205781,2.173935318e-06,-0.0004459466427,-1.351728815e-05,0.0001213791316,0.0001078618435,-0.0008692767869,7.033175496e-05,-0.0007989450319,-0.0002776135621,-0.0001363747703,-0.0004139883324,0.00016298811,9.014245278e-05,0.0002531305628,-0.0004270315332,2.123266977e-05,-0.0004057988635,8.614096045e-06,0.0001764213888,0.0001850354849,-0.0009286179969,-2.863354487e-05,-0.0009572515418,-0.0005076780946,-7.496966412e-07,-0.0005084277913,-0.000809419717,7.574818479e-05,-0.0007336715322,-0.001026400663,9.570800975e-06,-0.001016829862,-0.0008470060855,5.206074711e-06,-0.0008418000108,-0.0008174134192,3.156581869e-05,-0.0007858476005,-0.0005150998403,1.838884227e-05,-0.0004967109981,-0.001086420138,-7.387127112e-06,-0.001093807265,-0.001198624836,3.879810371e-06,-0.001194745025
2.7,-0.0005718809757,-1.17831622e-05,-0.0005836641379,-8.394889565e-05,8.510026769e-05,1.151372034e-06,-0.0002266758782,0.0002290037964,2.327918191e-06,-0.0007760814782,-4.521829717e-05,-0.0008212997754,-0.0002847515613,-1.93990796e-05,-0.0003041506409,-0.000570389015,6.739573471e-05,-0.0005029932803,-0.000542059391,-2.166812758e-05,-0.0005637275186,-0.0006200405198,0.0001612566589,-0.0004587838609,-0.001070502916,-0.0001260895541,-0.00119659247,-0.0007967661524,0.0001508728765,-0.0006458932758,-0.0008355419484,0.0001323854182,-0.0007031565303,8.125465844e-05,-0.0001150398175,-3.378515909e-05,-0.0008063838969,0.0001138323933,-0.0006925515036,6.809197927e-05,7.231479863e-05,0.0001404067779,-0.0004429856218,-0.000219698231,-0.0006626838528,-0.0006953576049,8.363978108e-05,-0.0006117178239,-0.001179985596,0.0001422302221,-0.001037755374,-0.0007332568698,0.0001960333496,-0.0005372235203,-0.00082948941,8.736841494e-05,-0.0007421209951,-0.0004270211783,0.0001212514054,-0.0003057697729,-0.0004498399801,1.258753917e-06,-0.0004485812262,1.629449693e-06,0.0001227178913,0.000124347341,-0.0008546355356,7.096853848e-05,-0.0007836669971,-0.0002550254052,-0.0001379670546,-0.0003929924598,0.0001753683518,8.330347912e-05,0.0002586718309,-0.0004536170531,2.270159617e-05,-0.0004309154569,2.285277225e-05,0.0001737057727,0.000196558545,-0.0009303717685,-3.176471291e-05,-0.0009621364814,-0.000507520632,-3.922825049e-06,-0.0005114434571,-0.0008197319987,6.827060941e-05,-0.0007514613893,-0.001021936682,7.448833335e-06,-0.001014487849,-0.0008587208287,2.437076747e-06,-0.000856283752,-0.0008284918433,3.309662264e-05,-0.0007953952207,-0.0005396832196,1.28658389e-05,-0.0005268173807,-0.00111250725,-9.155606144e-06,-0.001121662856,-0.001233959461,2.957092659e-07,-0.001233663752
2.8,-0.0005497799227,-1.620933181e-06,-0.0005514008558,-8.732918664e-05,8.051035696e-05,-6.818829676e-06,-0.0002281961126,0.0002300807951,1.884682522e-06,-0.0007894938944,-4.649880233e-05,-0.0008359926968,-0.0002883151517,-1.847419746e-05,-0.0003067893492,-0.0005938535616,6.595409219e-05,-0.0005278994694,-0.000553695968,-2.109268864e-05,-0.0005747886567,-0.0006449086219,0.0001591487467,-0.0004857598751,-0.001082540053,-0.000127080873,-0.001209620926,-0.0008116051215,0.0001522658187,-0.0006593393028,-0.0008440134134,0.0001287054268,-0.0007153079866,7.287782332e-05,-0.0001216716618,-4.879383846e-05,-0.0008221487543,0.0001187932562,-0.000703355498,5.397670028e-05,6.828552601e-05,0.0001222622263,-0.000431357599,-0.0002275448431,-0.0006589024421,-0.0006985201273,8.141117901e-05,-0.0006171089483,-0.001184960791,0.000143525181,-0.00104143561,-0.0007463370239,0.0001939240732,-0.0005524129507,-0.0008524239591,8.602700064e-05,-0.0007663969585,-0.0004416041585,0.0001199201124,-0.0003216840461,-0.0004514330226,4.364395054e-07,-0.0004509965831,1.692964166e-05,0.0001242936304,0.000141223272,-0.0008382209356,7.182950601e-05,-0.0007663914296,-0.0002319320634,-0.0001393422352,-0.0003712742985,0.0001851208053,7.683001544e-05,0.0002619508207,-0.0004807336828,2.460709803e-05,-0.0004561265848,3.354093454e-05,0.0001706339654,0.0002041749,-0.0009337563558,-3.449500383e-05,-0.0009682513597,-0.0005088736177,-7.045119177e-06,-0.0005159187368,-0.0008311148662,6.09230921e-05,-0.0007701917741,-0.0010192622,5.363651494e-06,-0.001013898549,-0.0008726188506,-8.539256942e-08,-0.0008727042432,-0.0008416730561,3.415079688e-05,-0.0008075222592,-0.0005670266009,7.538494825e-06,-0.0005594881061,-0.001140627982,-1.121890196e-05,-0.001151846884,-0.00127129857,-3.494232858e-06,-0.001274792803
2.9,-0.0005270759594,8.840882405e-06,-0.000518235077,-9.083715545e-05,7.595786033e-05,-1.487929512e-05,-0.0002301628541,0.0002308759356,7.130815074e-07,-0.0008031264173,-4.770584072e-05,-0.000850832258,-0.0002924798975,-1.758418716e-05,-0.0003100640847,-0.0006175375771,6.457022327e-05,-0.0005529673539,-0.0005663530712,-2.056539051e-05,-0.0005869184617,-0.0006712520595,0.0001569935454,-0.0005142585141,-0.001094927721,-0.000128010609,-0.00122293833,-0.0008270603712,0.0001538464922,-0.0006732138791,-0.0008528327523,0.0001254076038,-0.0007274251485,6.294350419e-05,-0.00012803488,-6.509137582e-05,-0.0008408820889,0.0001233297807,-0.0007175523082,3.791744078e-05,6.418883488e-05,0.0001021062757,-0.0004232186139,-0.000234806007,-0.0006580246209,-0.000704543518,7.898568752e-05,-0.0006255578305,-0.001192424429,0.0001445651576,-0.001047859272,-0.0007611707349,0.0001916617441,-0.0005695089908,-0.0008770080516,8.461115831e-05,-0.0007923968933,-0.0004563971843,0.0001186927679,-0.0003377044164,-0.0004528631418,-3.049800282e-07,-0.0004531681219,3.23986735e-05,0.0001260644229,0.0001584630964,-0.000820143858,7.290407322e-05,-0.0007472397847,-0.0002084540917,-0.0001404762628,-0.0003489303545,0.0001923279086,7.07863019e-05,0.0002631142105,-0.0005081675866,2.69247455e-05,-0.0004812428411,4.080279573e-05,0.0001672437344,0.0002080465301,-0.0009387221584,-3.682284747e-05,-0.0009755450058,-0.000511655721,-1.012198427e-05,-0.0005217777053,-0.0008434014094,5.370154587e-05,-0.0007896998636,-0.001018334259,3.317835631e-06,-0.001015016424,-0.0008886015517,-2.353957955e-06,-0.0008909555097,-0.0008567915188,3.468234328e-05,-0.0008221091755,-0.0005969549413,2.455252184e-06,-0.0005944996892,-0.001170597737,-1.358794157e-05,-0.001184185679,-0.00131042811,-7.482571999e-06,-0.001317910682
3.0,-0.0005038128394,1.954474905e-05,-0.0004842680904,-9.441039467e-05,7.14370305e-05,-2.297336417e-05,-0.0002324836833,0.0002313928627,-1.090820668e-06,-0.000816919417,-4.883951203e-05,-0.000865758929,-0.0002971683851,-1.673435336e-05,-0.0003139027384,-0.0006413150048,6.325229266e-05,-0.0005780627121,-0.0005799617932,-2.007720627e-05,-0.0006000389995,-0.0006989443963,0.0001548210715,-0.0005441233249,-0.001107646055,-0.0001288750539,-0.001236521109,-0.0008430718685,0.000155621925,-0.0006874499435,-0.00086194306,0.0001224935256,-0.0007394495343,5.157275301e-05,-0.0001341320364,-8.255928338e-05,-0.0008624119669,0.0001274044984,-0.0007350074686,2.004575429e-05,6.004774995e-05,8.009350424e-05,-0.0004184149821,-0.0002414444868,-0.000659859469,-0.0007133293972,7.636107991e-05,-0.0006369683173,-0.001202297523,0.0001453130838,-0.001056984439,-0.0007776264166,0.0001892465747,-0.0005883798418,-0.0009030763842,8.311577592e-05,-0.0008199606083,-0.0004713188345,0.0001175646919,-0.0003537541426,-0.000454090853,-9.76655177e-07,-0.0004550675082,4.804430907e-05,0.0001279843468,0.0001760286559,-0.0008005196064,7.417747522e-05,-0.0007263421312,-0.0001846953406,-0.0001413404155,-0.0003260357561,0.0001970719845,6.522315253e-05,0.0002622951371,-0.0005357161273,2.962410796e-05,-0.0005060920193,4.475850571e-05,0.0001635704745,0.0002083289802,-0.0009452112337,-3.875309418e-05,-0.0009839643279,-0.0005157811576,-1.31585699e-05,-0.0005289397275,-0.0008564267993,4.659848587e-05,-0.0008098283134,-0.001019102509,1.314895825e-06,-0.001017787613,-0.0009065580337,-4.363438274e-06,-0.000910921472,-0.0008736739137,3.465583387e-05,-0.0008390180799,-0.0006292732221,-2.339400647e-06,-0.0006316126228,-0.001202223802,-1.627081098e-05,-0.001218494613,-0.001351121408,-1.166255132e-05,-0.001362783959
3.1,-0.0004800319117,3.043407487e-05,-0.0004495978369,-9.800200627e-05,6.693836587e-05,-3.106364041e-05,-0.0002350687257,0.0002316369562,-3.431769581e-06,-0.0008308254843,-4.990163204e-05,-0.0008807271163,-0.0003023026675,-1.592979717e-05,-0.0003182324647,-0.000665064325,6.200714875e-05,-0.0006030571762,-0.0005944466009,-1.961839937e-05,-0.0006140650003,-0.0007278564343,0.0001526604228,-0.0005751960115,-0.001120673557,-0.0001296708687,-0.001250344426,-0.0008595788937,0.0001575975593,-0.0007019813344,-0.0008712911723,0.000119960006,-0.0007513311662,3.889122509e-05,-0.0001399714076,-0.0001010801825,-0.0008865555342,0.0001309860135,-0.0007555695207,4.896567792e-07,5.588358017e-05,5.637323695e-05,-0.0004167679438,-0.0002474382915,-0.0006642062353,-0.0007247587267,7.353677553e-05,-0.0006512219512,-0.001214475946,0.0001457330251,-0.001068742921,-0.0007955602821,0.0001866783512,-0.0006088819309,-0.0009304554763,8.1537618e-05,-0.0008489178583,-0.0004862894125,0.0001165303309,-0.0003697590816,-0.0004550741833,-1.588801123e-06,-0.0004566629844,6.386620834e-05,0.0001300040114,0.0001938702197,-0.0007794656829,7.563100995e-05,-0.0007038346729,-0.0001607413599,-0.000141901522,-0.0003026428819,0.0001994321107,6.017756776e-05,0.0002596096785,-0.0005631899808,3.266876099e-05,-0.0005305212198,4.552012987e-05,0.0001596469704,0.0002051671003,-0.0009531582799,-4.029680044e-05,-0.0009934550803,-0.0005211600068,-1.615968437e-05,-0.0005373196911,-0.0008700301525,3.960330904e-05,-0.0008304268435,-0.001021510194,-6.406430422e-07,-0.001022150837,-0.000926365918,-6.111286336e-06,-0.0009324772043,-0.0008921430437,3.404743282e-05,-0.0008580956109,-0.0006637691397,-6.805653913e-06,-0.0006705747936,-0.001235308761,-1.927231667e-05,-0.001254581078,-0.001393140876,-1.602925577e-05,-0.001409170132
3.2,-0.0004557718901,4.145368589e-05,-0.0004143182042,-0.0001015813533,6.244881175e-05,-3.913254157e-05,-0.0002378321536,0.000231615287,-6.216866589e-06,-0.0008448101387,-5.089575247e-05,-0.0008957058912,-0.0003078046785,-1.517530752e-05,-0.000322979986,-0.0006886696141,6.084036017e-05,-0.0006278292539,-0.0006097258705,-1.917871028e-05,-0.0006289045808,-0.0007578579327,0.0001505395174,-0.0006073184153,-0.001133986755,-0.0001303951913,-0.001264381946,-0.0008765203814,0.0001597771906,-0.0007167431908,-0.0008808276776,0.0001177991734,-0.0007630285042,2.502827234e-05,-0.0001455672569,-0.0001205389846,-0.0009131222692,0.0001340499226,-0.0007790723466,-2.062738208e-05,5.171544896e-05,3.108806689e-05,-0.0004180775019,-0.0002527814269,-0.0006708589289,-0.0007386940115,7.051415578e-05,-0.0006681798557,-0.001228833005,0.0001457913726,-0.001083041633,-0.0008148173915,0.0001839565411,-0.0006308608504,-0.000958964728,7.987503092e-05,-0.0008790896971,-0.000501231648,0.000115583383,-0.000385648265,-0.0004557694371,-2.150627449e-06,-0.0004579200645,7.985531661e-05,0.0001320710942,0.0002119264108,-0.0007570998096,7.724237744e-05,-0.0006798574322,-0.0001366585052,-0.0001421223177,-0.0002787808229,0.0001994814986,5.56728901e-05,0.0002551543887,-0.0005904148872,3.601646468e-05,-0.0005543984225,4.318877573e-05,0.0001555030668,0.0001986918425,-0.0009624917744,-4.14709618e-05,-0.001003962736,-0.000527699012,-1.912972216e-05,-0.0005468287342,-0.0008840564683,3.270257965e-05,-0.0008513538886,-0.001025495171,-2.543247635e-06,-0.001028038419,-0.0009478923673,-7.597975673e-06,-0.0009554903429,-0.0009120209894,3.284510908e-05,-0.0008791758803,-0.0007002161311,-1.090883866e-05,-0.0007111249698,-0.0012696537,-2.259377525e-05,-0.001292247475,-0.001436240235,-2.058089649e-05,-0.001456821131
3.3,-0.0004310685419,5.255039575e-05,-0.0003785181461,-0.0001051346448,5.795207887e-05,-4.718256597e-05,-0.0002406938136,0.0002313364733,-9.357340289e-06,-0.0008588522225,-5.182712594e-05,-0.0009106793484,-0.0003135969019,-1.447526137e-05,-0.0003280721632,-0.0007120215577,5.975629314e-05,-0.0006522652645,-0.0006257127996,-1.874753364e-05,-0.0006444603332,-0.000788819162,0.0001484848856,-0.0006403342763,-0.001147560214,-0.0001310457,-0.001278605914,-0.0008938355268,0.0001621629248,-0.000731672602,-0.0008905070544,0.0001159986389,-0.0007745084155,1.011558651e-05,-0.0001509396128,-0.0001408240263,-0.0009419172552,0.0001365793925,-0.0008053378627,-4.318718525e-05,4.755994139e-05,4.372756146e-06,-0.0004221264826,-0.0002574842262,-0.0006796107088,-0.0007549818245,6.729687714e-05,-0.0006876849474,-0.001245222628,0.0001454582176,-0.00109976441,-0.0008352330954,0.0001810802738,-0.0006541528216,-0.0009884178645,7.81275172e-05,-0.0009102903473,-0.0005160714321,0.0001147169436,-0.0004013544885,-0.0004561323384,-2.670304511e-06,-0.0004588026429,9.599309746e-05,0.0001341309174,0.0002301240149,-0.000733538126,7.898615105e-05,-0.0006545519749,-0.0001124936993,-0.0001419619568,-0.0002544556561,0.000197285534,5.171918122e-05,0.0002490047152,-0.0006172332561,3.961958661e-05,-0.0005776136695,3.785237782e-05,0.0001511654072,0.000189017785,-0.0009731353998,-4.229815974e-05,-0.00101543356,-0.0005353028505,-2.207260374e-05,-0.0005573754543,-0.0008983586127,2.588033774e-05,-0.000872478275,-0.001030990965,-4.386466807e-06,-0.001035377432,-0.0009709954202,-8.827237272e-06,-0.0009798226575,-0.0009331314522,3.104806047e-05,-0.0009020833917,-0.0007383767651,-1.461963701e-05,-0.0007529964021,-0.001305061215,-2.623301651e-05,-0.001331294231,-0.001480167606,-2.532001307e-05,-0.001505487619
3.4,-0.0004059544151,6.36736585e-05,-0.0003422807566,-0.000108665307,5.342905359e-05,-5.523625336e-05,-0.000243580847,0.0002308104849,-1.27703621e-05,-0.0008729439995,-5.270261394e-05,-0.0009256466134,-0.0003196032346,-1.383352596e-05,-0.0003334367605,-0.0007350184019,5.875822703e-05,-0.0006762601749,-0.0006423165901,-1.831407985e-05,-0.00066063067,-0.0008206122181,0.0001465215095,-0.0006740907086,-0.001161366734,-0.0001316206178,-0.001292987351,-0.0009114645195,0.0001647551591,-0.0007467093604,-0.0009002878006,0.0001145417633,-0.0007857460373,-5.71454951e-06,-0.0001561134957,-0.0001618280453,-0.0009727443937,0.0001385653633,-0.0008341790304,-6.707742075e-05,4.343087707e-05,-2.364654368e-05,-0.0004286844858,-0.0002615734764,-0.0006902579622,-0.0007734555695,6.389118091e-05,-0.0007095643886,-0.001263482639,0.0001447084208,-0.001118774219,-0.0008566348847,0.0001780482433,-0.0006785866414,-0.00101862486,7.629528436e-05,-0.0009423295756,-0.0005307385329,0.0001139236842,-0.0004168148486,-0.0004561194658,-3.154967095e-06,-0.0004592744328,0.0001122507171,0.0001361270837,0.0002483778008,-0.0007088933541,8.083440279e-05,-0.0006280589513,-8.827465962e-05,-0.0001413767078,-0.0002296513674,0.0001929005671,4.831357218e-05,0.0002412141393,-0.00064350562,4.342576264e-05,-0.0006000798574,2.958374146e-05,0.0001466574063,0.0001762411477,-0.0009850097543,-4.280605794e-05,-0.001027815812,-0.0005438756078,-2.499171157e-05,-0.0005688673193,-0.0009127991312,1.911844456e-05,-0.0008936806866,-0.001037927786,-6.163100492e-06,-0.001044090887,-0.0009955256173,-9.806089489e-06,-0.001005331707,-0.00095530163,2.86657274e-05,-0.0009266359026,-0.0007780064548,-1.79141159e-05,-0.0007959205707,-0.001341338143,-3.018456763e-05,-0.001371522711,-0.001524669247,-3.025428191e-05,-0.001554923529
3.5,-0.0003804586196,7.477625585e-05,-0.0003056823637,-0.0001121939299,4.885828279e-05,-6.33356471e-05,-0.00024642908,0.0002300484562,-1.638062377e-05,-0.0008870909178,-5.35305445e-05,-0.0009406214623,-0.0003257498044,-1.325335602e-05,-0.0003390031604,-0.0007575667515,5.784849802e-05,-0.0006997182535,-0.0006594436388,-1.786751991e-05,-0.0006773111587,-0.0008531120413,0.0001446726903,-0.0007084393511,-0.001175377346,-0.0001321186615,-0.001307496008,-0.0009293491112,0.0001675525901,-0.0007617965211,-0.0009101322673,0.0001134080173,-0.00079672425,-2.233123162e-05,-0.0001611176495,-0.0001834488811,-0.001005409394,0.0001400064631,-0.0008654029312,-9.219176926e-05,3.933920273e-05,-5.285256653e-05,-0.0004375117166,-0.0002650921335,-0.0007026038501,-0.0007939382845,6.030614926e-05,-0.0007336321352,-0.001283437672,0.0001435220784,-0.001139915594,-0.0008788444821,0.0001748586279,-0.0007039858542,-0.001049394128,7.437884426e-05,-0.0009750152842,-0.0005451671847,0.0001131960713,-0.0004319711134,-0.0004556897661,-3.610749468e-06,-0.0004593005156,0.0001285884172,0.0001380021899,0.000266590607,-0.0006832727636,8.275747331e-05,-0.0006005152903,-6.401028948e-05,-0.0001403208209,-0.0002043311103,0.0001863734289,4.544059407e-05,0.000231814023,-0.0006691116845,4.737871738e-05,-0.0006217329672,1.843883051e-05,0.0001419994876,0.0001604383181,-0.000998034084,-4.302672154e-05,-0.001041060806,-0.0005533220597,-2.788981645e-05,-0.0005812118762,-0.0009272516128,1.239698686e-05,-0.000914854626,-0.001046233409,-7.865399092e-06,-0.001054098808,-0.001021327752,-1.054467806e-05,-0.00103187243,-0.0009783639082,2.57167159e-05,-0.0009526471923,-0.0008188573422,-2.077368225e-05,-0.0008396310244,-0.001378297893,-3.443988539e-05,-0.001412737778,-0.00156949346,-3.539664434e-05,-0.001604890105
3.6,-0.0003546066351,8.58149112e-05,-0.0002687917239,-0.0001157574867,4.42165669e-05,-7.154091981e-05,-0.0002491839298,0.0002290625574,-2.012137243e-05,-0.0009013109363,-5.432053439e-05,-0.0009556314707,-0.0003319654301,-1.273728567e-05,-0.0003447027157,-0.0007795820807,5.702865854e-05,-0.0007225534221,-0.0006769984271,-1.739711759e-05,-0.0006943955447,-0.0008861970995,0.000142959919,-0.0007432371805,-0.001189560812,-0.0001325389431,-0.001322099756,-0.0009474327088,0.0001705522486,-0.0007768804602,-0.000920005921,0.0001125734227,-0.0008074324984,-3.960674117e-05,-0.0001659830121,-0.0002055897533,-0.001039722195,0.0001409085171,-0.0008988136779,-0.0001184293959,3.529308895e-05,-8.313630696e-05,-0.0004483626748,-0.0002680983457,-0.0007164610205,-0.0008162451795,5.655382087e-05,-0.0007596913586,-0.001304901463,0.000141884431,-0.001163017032,-0.0009016798436,0.0001715090963,-0.0007301707473,-0.001080534598,7.237869313e-05,-0.001008155904,-0.0005592964399,0.0001125266209,-0.0004467698189,-0.0004548058898,-4.042831902e-06,-0.0004588487217,0.0001449553466,0.0001396986415,0.0002846539881,-0.0006567759885,8.472483455e-05,-0.0005720511539,-3.969094581e-05,-0.0001387475278,-0.0001784384736,0.0001777416119,4.30726792e-05,0.0002208142911,-0.0006939506137,5.141913741e-05,-0.0006425314763,4.455702358e-06,0.0001372095487,0.000141665251,-0.001012127569,-4.299585035e-05,-0.001055123419,-0.000563548445,-3.07690005e-05,-0.0005943174455,-0.0009416014023,5.694741383e-06,-0.000935906661,-0.001055833811,-9.485237965e-06,-0.001065319049,-0.001048242525,-1.105596862e-05,-0.001059298494,-0.001002157362,2.222771446e-05,-0.000979929648,-0.0008606820757,-2.318503255e-05,-0.0008838671083,-0.001415762281,-3.898747884e-05,-0.00145474976,-0.001614394382,-4.076459028e-05,-0.001655158973
3.7,-0.0003284201784,9.675068035e-05,-0.0002316694981,-0.0001194075863,3.947971449e-05,-7.992787186e-05,-0.0002518006768,0.0002278659288,-2.393474798e-05,-0.0009156333235,-5.508329025e-05,-0.0009707166138,-0.0003381815648,-1.228702483e-05,-0.0003504685896,-0.0008009888787,5.629964248e-05,-0.0007446892362,-0.0006948839964,-1.689235451e-05,-0.0007117763509,-0.0009197497418,0.0001414027481,-0.0007783469937,-0.001203882603,-0.0001328808395,-0.001336763443,-0.0009656599384,0.000173749568,-0.0007919103704,-0.0009298760431,0.0001120110529,-0.0008178649902,-5.741775936e-05,-0.0001707412095,-0.0002281589689,-0.001075498462,0.0001412834791,-0.0009342149831,-0.0001456935579,3.129829731e-05,-0.0001143952606,-0.000460989454,-0.0002706637608,-0.0007316532148,-0.0008401856399,5.264910439e-05,-0.0007875365355,-0.001327678428,0.000139785407,-0.001187893021,-0.000924956765,0.0001679969247,-0.0007569598403,-0.001111857391,7.029508803e-05,-0.001041562303,-0.0005730702362,0.0001119081729,-0.0004611620633,-0.0004534352021,-4.455482027e-06,-0.0004578906841,0.0001612899875,0.000141159568,0.0003024495555,-0.0006294930347,8.670595954e-05,-0.0005427870751,-1.52885373e-05,-0.0001366101445,-0.0001518986818,0.0001670339876,4.117105414e-05,0.0002082050418,-0.000717940374,5.548551633e-05,-0.0006624548576,-1.234529019e-05,0.0001323034812,0.000119958191,-0.001027209834,-4.275208094e-05,-0.001069961915,-0.0005744626843,-3.363061969e-05,-0.000608093304,-0.0009557456572,-1.010324937e-06,-0.0009567559821,-0.001066653533,-1.101427233e-05,-0.001077667806,-0.001076108006,-1.135532274e-05,-0.001087463328,-0.001026529114,1.823249427e-05,-0.001008296619,-0.0009032371262,-2.51401509e-05,-0.0009283772771,-0.001453562848,-4.381289864e-05,-0.001497375747,-0.001659135598,-4.637855605e-05,-0.001705514154
3.8,-0.000301917265,0.0001075490094,-0.0001943682556,-0.0001232077718,3.462347543e-05,-8.858429634e-05,-0.0002542441908,0.0002264726445,-2.777154627e-05,-0.0009300969322,-5.583039039e-05,-0.0009859273226,-0.0003443318822,-1.1903374e-05,-0.0003562352562,-0.0008217204715,5.566192743e-05,-0.0007660585441,-0.0007130022,-1.634304757e-05,-0.0007293452475,-0.0009536562796,0.0001400186952,-0.0008136375844,-0.001218303824,-0.0001331438475,-0.001351447672,-0.00098397598,0.0001771384899,-0.00080683749,-0.0009397102324,0.0001116915763,-0.0008280186561,-7.564575076e-05,-0.0001754233195,-0.0002510690703,-0.00111256024,0.000141148049,-0.000971412191,-0.000173889451,2.735871793e-05,-0.0001465307331,-0.0004751444407,-0.0002728713124,-0.000748015753,-0.0008655646736,4.860949771e-05,-0.0008169551759,-0.001351564719,0.0001372189833,-0.001214345736,-0.0009484900349,0.0001643191822,-0.0007841708528,-0.001143177163,6.812794073e-05,-0.001075049222,-0.0005864372489,0.0001113341598,-0.0004751030891,-0.0004515505145,-4.85209345e-06,-0.000456402608,0.0001775210839,0.0001423298015,0.0003198508854,-0.0006015029494,8.867111344e-05,-0.000512831836,9.243301165e-06,-0.0001338632923,-0.0001246199911,0.0001542718879,3.968713021e-05,0.0001939590181,-0.0007410163404,5.951496991e-05,-0.0006815013705,-3.195955734e-05,0.0001272954252,9.533586788e-05,-0.001043200783,-4.233643179e-05,-0.001085537215,-0.0005859743012,-3.647536357e-05,-0.0006224496648,-0.0009695929933,-7.740548738e-06,-0.000977333542,-0.001078615798,-1.244413649e-05,-0.001091059935,-0.001104760965,-1.146001579e-05,-0.00111622098,-0.001051335619,1.377107232e-05,-0.001037564547,-0.0009462853691,-2.663640694e-05,-0.000972921776,-0.001491541726,-4.88986672e-05,-0.001540440394,-0.001703493462,-5.225958511e-05,-0.001755753047
3.9,-0.0002751126329,0.0001181794604,-0.0001569331725,-0.0001272301514,2.96246119e-05,-9.760553952e-05,-0.0002564883788,0.0002248976496,-3.15907292e-05,-0.0009447480704,-5.657403703e-05,-0.001001322107,-0.0003503518802,-1.158616574e-05,-0.0003619380459,-0.0008417186626,5.511568547e-05,-0.0007866029771,-0.0007312540789,-1.573944997e-05,-0.0007469935289,-0.0009878068714,0.0001388232165,-0.0008489836549,-0.001232780612,-0.000133327438,-0.00136610805,-0.001002326107,0.0001807116094,-0.0008216144977,-0.0009494751932,0.0001115838289,-0.0008378913643,-9.417660958e-05,-0.0001800590391,-0.0002742356487,-0.001150736222,0.0001405225392,-0.001010213683,-0.0002029216322,2.34769017e-05,-0.0001794447305,-0.0004905824268,-0.000274812773,-0.0007653951998,-0.0008921840581,4.445469668e-05,-0.0008477293615,-0.001376349285,0.0001341826434,-0.001242166642,-0.0009720943749,0.0001604729081,-0.0008116214668,-0.001174313339,6.587684006e-05,-0.001108436499,-0.0005993506465,0.0001107988446,-0.000488551802,-0.0004491306776,-5.235231328e-06,-0.000454365909,0.0001935688701,0.0001431568673,0.0003367257374,-0.0005728735157,9.059201524e-05,-0.0004822815005,3.396861845e-05,-0.0001304642677,-9.649564925e-05,0.0001394704696,3.856431395e-05,0.0001780347836,-0.000763129625,6.344407885e-05,-0.0006996855461,-5.439458394e-05,0.0001221975722,6.780298827e-05,-0.001060020222,-4.17918626e-05,-0.001101812085,-0.0005979944348,-3.930339093e-05,-0.0006372978257,-0.0009830630417,-1.451808497e-05,-0.0009975811267,-0.001091642559,-1.376675198e-05,-0.001105409311,-0.001134038192,-1.138878098e-05,-0.001145426973,-0.001076443728,8.888879206e-06,-0.001067554849,-0.0009895979354,-2.767670852e-05,-0.001017274644,-0.001529552232,-5.422415674e-05,-0.001583776389,-0.001747259938,-5.842665032e-05,-0.001805686588
4.0,-0.0002480185939,0.0001286152038,-0.0001194033901,-0.0001315517512,2.446202263e-05,-0.0001070897286,-0.0002585155997,0.0002231566308,-3.535896899e-05,-0.0009596381344,-5.732676938e-05,-0.001016964904,-0.0003561788136,-1.133423413e-05,-0.0003675130477,-0.000860933338,5.466091624e-05,-0.0008062724218,-0.0007495405701,-1.507232527e-05,-0.0007646128953,-0.001022095249,0.0001378297504,-0.0008842654991,-0.001247264256,-0.000133430913,-0.001380695169,-0.001020655668,0.0001844603566,-0.0008361953118,-0.0009591360792,0.0001116554072,-0.0008474806721,-0.0001128999706,-0.0001846761405,-0.000297576111,-0.001189861967,0.0001394301895,-0.001050431778,-0.0002326914552,1.965454594e-05,-0.0002130369093,-0.0005070622698,-0.0002765863024,-0.0007836485722,-0.0009198435273,4.020621894e-05,-0.0008796373084,-0.001401815568,0.0001306773005,-0.001271138268,-0.0009955855357,0.0001564552485,-0.0008391302872,-0.001205091412,6.354120224e-05,-0.00114155021,-0.0006117678293,0.0001102975129,-0.0005014703164,-0.0004461611314,-5.606682804e-06,-0.0004517678142,0.0002093464724,0.0001435919533,0.0003529384257,-0.0005436620754,9.244235368e-05,-0.0004512197217,5.896792869e-05,-0.0001263745718,-6.740664309e-05,0.0001226403881,3.774007318e-05,0.0001603804613,-0.000784245508,6.720980111e-05,-0.0007170357069,-7.966496753e-05,0.00011701971,3.735474248e-05,-0.001077587713,-4.116288861e-05,-0.001118750602,-0.0006104362011,-4.211443839e-05,-0.0006525506395,-0.0009960861052,-2.136444185e-05,-0.001017450547,-0.001105654612,-1.497475136e-05,-0.001120629364,-0.001163777878,-1.116141914e-05,-0.001174939297,-0.001101731222,3.635693043e-06,-0.001098095529,-0.001032955565,-2.826953293e-05,-0.001061225098,-0.001567459363,-5.976534861e-05,-0.001627224711,-0.001790244919,-6.489409417e-05,-0.001855139013
4.1,-0.0002206462137,0.0001388324081,-8.181380565e-05,-0.0001362508604,1.911781823e-05,-0.0001171330422,-0.0002603161285,0.0002212658055,-3.9050323e-05,-0.0009748211259,-5.810114251e-05,-0.001032922268,-0.0003617520232,-1.114541188e-05,-0.0003728974351,-0.0008793220998,5.429755545e-05,-0.0008250245443,-0.0007677634969,-1.433299072e-05,-0.0007820964876,-0.001056418297,0.0001370498053,-0.000919368492,-0.001261701915,-0.0001334532668,-0.001395155182,-0.001038910431,0.0001883752143,-0.0008505352165,-0.0009686563455,0.0001118732686,-0.0008567830769,-0.000131708559,-0.0001893000374,-0.0003210085964,-0.001229780021,0.0001378966401,-0.001091883381,-0.0002630948854,1.589302813e-05,-0.0002472018572,-0.0005243482688,-0.000278293996,-0.0008026422648,-0.0009483421914,3.588712939e-05,-0.000912455062,-0.001427744056,0.0001267078579,-0.001301036198,-0.001018781778,0.0001522635963,-0.0008665181815,-0.001235344271,6.112056849e-05,-0.001174223702,-0.0006236501656,0.0001098266228,-0.0005138235428,-0.0004426343923,-5.967500419e-06,-0.0004486018927,0.0002247615059,0.0001435908482,0.0003683523541,-0.0005139173808,9.419814514e-05,-0.0004197192356,8.433629083e-05,-0.0001215615756,-3.72252848e-05,0.0001037898669,3.71480925e-05,0.0001409379594,-0.0008043420697,7.075045305e-05,-0.0007335916167,-0.0001077868525,0.0001117689158,3.982063239e-06,-0.001095822865,-4.049515749e-05,-0.001136318023,-0.0006232153908,-4.490783211e-05,-0.0006681232229,-0.001008602961,-2.829996557e-05,-0.001036902926,-0.001120571868,-1.606194702e-05,-0.001136633816,-0.001193821048,-1.079847042e-05,-0.001204619518,-0.001127086841,-1.93569545e-06,-0.001129022537,-0.001076149625,-2.842874374e-05,-0.001104578369,-0.001605140179,-6.549450655e-05,-0.001670634685,-0.001832278181,-7.166943894e-05,-0.00190394762
4.2,-0.0001930066176,0.0001488096264,-4.419699127e-05,-0.0001414034919,1.357824851e-05,-0.0001278252434,-0.0002618876212,0.0002192416332,-4.264598804e-05,-0.0009903511152,-5.890938971e-05,-0.001049260505,-0.0003670135428,-1.101655879e-05,-0.0003780301015,-0.0008968499204,5.402554825e-05,-0.0008428243722,-0.0007858266663,-1.351333724e-05,-0.0007993400035,-0.001090675503,0.0001364930602,-0.0009541824433,-0.00127603766,-0.0001333930574,-0.001409430717,-0.001057037059,0.0001924459622,-0.0008645910965,-0.0009779979155,0.000112204326,-0.0008657935895,-0.0001504976458,-0.0001939535174,-0.0003444511632,-0.00127033972,0.000135949171,-0.001134390549,-0.0002940209199,1.219404231e-05,-0.0002818268776,-0.0005422115053,-0.0002800392461,-0.0008222507514,-0.0009774801648,3.15218437e-05,-0.0009459583211,-0.001453915378,0.0001222841769,-0.001331631201,-0.001041505711,0.0001478958071,-0.0008936099038,-0.001264913515,5.861507425e-05,-0.001206298441,-0.0006349627063,0.0001093839056,-0.0005255788007,-0.0004385503779,-6.318030728e-06,-0.0004448684086,0.0002397179871,0.0001431148211,0.0003828328082,-0.0004836822497,9.58379166e-05,-0.0003878443331,0.0001101807046,-0.0001160002592,-5.819554558e-06,8.292726074e-05,3.67203385e-05,0.0001196475992,-0.0008234089386,7.400674567e-05,-0.0007494021929,-0.0001387723064,0.0001064496515,-3.232265492e-05,-0.001114646024,-3.983482839e-05,-0.001154480852,-0.0006362513476,-4.768242901e-05,-0.0006839337766,-0.001020564802,-3.534317166e-05,-0.001055907973,-0.001136313753,-1.702376135e-05,-0.001153337514,-0.001224012943,-1.032094896e-05,-0.001234333892,-0.001152410072,-7.770888958e-06,-0.001160180961,-0.001118982779,-2.817329263e-05,-0.001147156072,-0.001642483951,-7.137996622e-05,-0.001713863918,-0.001873211145,-7.875160202e-05,-0.001951962747
4.3,-0.0001651122083,0.0001585272367,-6.584971645e-06,-0.0001470800304,7.834394058e-06,-0.0001392456363,-0.0002632345164,0.000217100459,-4.613405747e-05,-0.001006279687,-5.976308691e-05,-0.001066042774,-0.0003719088288,-1.094362698e-05,-0.0003828524557,-0.0009134887937,5.384487618e-05,-0.0008596439175,-0.000803636914,-1.260584047e-05,-0.0008162427545,-0.001124768373,0.0001361674573,-0.000988600916,-0.001290213638,-0.000133248307,-0.001423461945,-0.001074983557,0.0001966619293,-0.0008783216276,-0.000987121495,0.0001126160134,-0.0008745054816,-0.0001691645657,-0.0001986568102,-0.0003678213759,-0.001311396547,0.0001336155483,-0.001177780999,-0.0003253507845,8.56025956e-06,-0.000316790525,-0.0005604314138,-0.0002819237467,-0.0008423551605,-0.001007060244,2.713589988e-05,-0.0009799243444,-0.00148011357,0.0001174220153,-0.001362691555,-0.001063586311,0.0001433505251,-0.0009202357862,-0.001293650752,5.602603278e-05,-0.001237624719,-0.0006456738637,0.0001089684028,-0.000536705461,-0.0004339164367,-6.657929253e-06,-0.000440574366,0.0002541186774,0.0001421313944,0.0003962500718,-0.0004529966199,9.734271872e-05,-0.0003556539012,0.0001366170077,-0.0001096749186,2.694208905e-05,6.006405233e-05,3.638890163e-05,9.645295396e-05,-0.0008414460983,7.692285214e-05,-0.0007645232461,-0.0001726240221,0.000101064262,-7.155976007e-05,-0.001133979156,-3.922763915e-05,-0.001173206795,-0.0006494678569,-5.043655965e-05,-0.0006999044166,-0.001031933231,-4.250990165e-05,-0.001074443132,-0.001152799663,-1.785759698e-05,-0.00117065726,-0.001254204201,-9.750126696e-06,-0.001263954328,-0.001177611176,-1.381499765e-05,-0.001191426174,-0.001161269298,-2.752693215e-05,-0.00118879623,-0.001679391933,-7.73862369e-05,-0.00175677817,-0.001912918332,-8.61295572e-05,-0.00199904789
4.4,-0.0001369776096,0.0001679669608,3.098935122e-05,-0.0001533421648,1.882557294e-06,-0.0001514596075,-0.0002643673257,0.0002148581081,-4.950921764e-05,-0.001022653401,-6.067283267e-05,-0.001083326233,-0.0003763874527,-1.09217636e-05,-0.0003873092163,-0.0009292173606,5.375553096e-05,-0.0008754618297,-0.0008211049448,-1.160357558e-05,-0.0008327085204,-0.00115859989,0.0001360792643,-0.001022520625,-0.001304171137,-0.0001330164541,-0.001437187591,-0.001092699533,0.0002010122245,-0.0008916873087,-0.0009959868779,0.0001130767966,-0.0008829100813,-0.0001876084342,-0.000203427955,-0.0003910363891,-0.001352811145,0.0001309227084,-0.001221888437,-0.000356957979,4.995842871e-06,-0.0003519621361,-0.000578797707,-0.0002840441758,-0.0008628418828,-0.001036889489,2.275560461e-05,-0.001014133884,-0.001506129417,0.0001121436698,-0.001393985748,-0.001084860853,0.0001386275654,-0.0009462332878,-0.001321418763,5.335647473e-05,-0.001268062289,-0.0006557550336,0.0001085804178,-0.0005471746158,-0.0004287469441,-6.986163474e-06,-0.0004357331076,0.0002678679191,0.0001406149574,0.0004084828765,-0.0004219004125,9.869601005e-05,-0.0003232044024,0.0001637666703,-0.0001025807175,6.118595282e-05,3.521808175e-05,3.608754779e-05,7.130562954e-05,-0.0008584627245,7.944742724e-05,-0.0007790152972,-0.0002093307176,9.561377401e-05,-0.0001137169436,-0.001153746627,-3.871777526e-05,-0.001192464402,-0.0006627938439,-5.316801915e-05,-0.0007159618631,-0.001042680091,-4.981242355e-05,-0.001092492515,-0.001169949371,-1.85631625e-05,-0.001188512534,-0.001284251762,-9.107322632e-06,-0.001293359085,-0.001202611729,-2.001313028e-05,-0.001222624859,-0.001202835084,-2.651799143e-05,-0.001229353075,-0.001715776651,-8.347444262e-05,-0.001799251093,-0.001951297999,-9.378166554e-05,-0.002045079664
4.5,-0.0001086202006,0.000177111479,6.849127842e-05,-0.0001602401958,-4.275666234e-06,-0.0001645158621,-0.0002653017684,0.0002125294492,-5.277231919e-05,-0.001039511303,-6.164795556e-05,-0.001101159259,-0.0003804035877,-1.094544914e-05,-0.0003913490368,-0.0009440204774,5.375742881e-05,-0.0008902630486,-0.0008381458046,-1.050024206e-05,-0.0008486460466,-0.001192074076,0.0001362330735,-0.001055841003,-0.001317851378,-0.0001326943721,-0.001450545751,-0.001110136146,0.0002054859233,-0.0009046502224,-0.001004553092,0.0001135566021,-0.0008909964901,-0.00020573031,-0.0002082831992,-0.0004140135092,-0.00139444841,0.0001278957765,-0.001266552634,-0.0003887090844,1.506652244e-06,-0.0003872024321,-0.0005971125894,-0.0002864887699,-0.0008836013594,-0.001066780613,1.84075527e-05,-0.00104837306,-0.001531763992,0.0001064783573,-0.001425285635,-0.001105176449,0.0001337282287,-0.0009714482205,-0.001348092385,5.061152546e-05,-0.00129748086,-0.0006651801369,0.0001082213847,-0.0005569587522,-0.0004230623542,-7.300998926e-06,-0.0004303633531,0.0002808749278,0.0001385471784,0.0004194221062,-0.0003904356592,9.98834654e-05,-0.0002905521938,0.0001917539081,-9.472497228e-05,9.702893583e-05,8.416916089e-06,3.57528655e-05,4.416978159e-05,-0.0008744759703,8.153445002e-05,-0.0007929415203,-0.0002488634925,9.009882979e-05,-0.0001587646627,-0.001173875527,-3.834685194e-05,-0.001212222379,-0.0006761636839,-5.587411553e-05,-0.0007320377994,-0.001052786904,-5.725867341e-05,-0.001110045577,-0.00118768332,-1.914274136e-05,-0.001206826062,-0.001314019508,-8.413677141e-06,-0.001322433185,-0.001227345541,-2.631022677e-05,-0.001253655768,-0.001243517502,-2.517919045e-05,-0.001268696693,-0.001751560665,-8.960301304e-05,-0.001841163678,-0.001988271396,-0.0001016759064,-0.002089947302
4.6,-8.006018586e-05,0.000185944162,0.0001058839761,-0.0001678107968,-1.063360743e-05,-0.0001784444042,-0.0002660577477,0.0002101279471,-5.592980062e-05,-0.001056882531,-6.269625879e-05,-0.00111957879,-0.0003839162214,-1.100867097e-05,-0.0003949248924,-0.0009578887142,5.385026633e-05,-0.0009040384479,-0.0008546789595,-9.290202763e-06,-0.0008639691622,-0.001225095698,0.000136631717,-0.001088463981,-0.001331196062,-0.0001322784635,-0.001463474526,-0.001127245751,0.0002100722045,-0.0009171735462,-0.001012778405,0.0001140271518,-0.0008987512536,-0.0002234339764,-0.0002132372125,-0.000436671189,-0.001436177071,0.0001245577143,-0.001311619357,-0.0004204652417,-1.899907879e-06,-0.0004223651496,-0.0006151931693,-0.0002893340865,-0.0009045272559,-0.0010965532,1.41180807e-05,-0.001082435119,-0.001556832377,0.0001004624674,-0.00145636991,-0.001124391069,0.0001286555048,-0.000995735564,-0.001373559049,4.779864428e-05,-0.001325760405,-0.0006739250989,0.0001078936633,-0.0005660314357,-0.0004168877153,-7.599961735e-06,-0.0004244876771,0.0002930573681,0.0001359171853,0.0004289745534,-0.0003586476922,0.0001008927472,-0.000257754945,0.0002207032681,-8.612809839e-05,0.0001345751697,-2.02986639e-05,3.532492183e-05,1.502625793e-05,-0.0008895096771,8.31438149e-05,-0.0008063658622,-0.0002911731306,8.452049268e-05,-0.0002066526379,-0.001194295481,-3.815323464e-05,-0.001232448716,-0.0006895171274,-5.855179559e-05,-0.000748068923,-0.00106224389,-6.485179783e-05,-0.001127095688,-0.001205922864,-1.960136298e-05,-0.001225524227,-0.001343378713,-7.689955222e-06,-0.001351068668,-0.00125175958,-3.265050576e-05,-0.001284410086,-0.001283165217,-2.354735392e-05,-0.001306712571,-0.00178667489,-9.572852173e-05,-0.001882403412,-0.002023780645,-0.0001097709686,-0.002133551613
4.7,-5.132026435e-05,0.0001944489393,0.0001431286749,-0.000176075349,-1.717998567e-05,-0.0001932553346,-0.0002666582661,0.0002076652234,-5.899304264e-05,-0.001074784146,-6.382380503e-05,-0.001138607951,-0.0003868892544,-1.110512992e-05,-0.0003979943843,-0.0009708178545,5.403333699e-05,-0.0009167845175,-0.0008706282246,-7.968539716e-06,-0.0008785967643,-0.00125757017,0.0001372761085,-0.001120294062,-0.00134414807,-0.0001317648321,-0.001475912902,-0.001143981571,0.0002147604447,-0.0009292211267,-0.00102062049,0.0001144622054,-0.0009061582848,-0.0002406273912,-0.0002183031101,-0.0004589305013,-0.001477869902,0.0001209294872,-0.001356940415,-0.0004520843882,-5.215293799e-06,-0.000457299682,-0.0006328741574,-0.000292642215,-0.0009255163724,-0.001126034806,9.912687921e-06,-0.001116122118,-0.0015811674,9.413972837e-05,-0.001487027672,-0.001142374252,0.0001234142282,-0.001018960023,-0.001397719132,4.492777497e-05,-0.001352791357,-0.0006819673602,0.0001076002765,-0.0005743670837,-0.0004102508403,-7.879780886e-06,-0.0004181306211,0.0003043448691,0.0001327215167,0.0004370663859,-0.0003265856146,0.0001017132633,-0.0002248723514,0.0002507375201,-7.682417214e-05,0.0001739133479,-5.087132531e-05,3.474758537e-05,-1.612373994e-05,-0.0009035932227,8.424170431e-05,-0.0008193515184,-0.000336188251,7.888069907e-05,-0.0002573075519,-0.001214938274,-3.817163928e-05,-0.001253109913,-0.0007027991395,-6.119787734e-05,-0.0007639970168,-0.001071048876,-7.259003484e-05,-0.001143638911,-0.001224590686,-1.994682503e-05,-0.001244537511,-0.001372208533,-6.95644321e-06,-0.001379164976,-0.00127581448,-3.897694779e-05,-0.001314791428,-0.001321638258,-2.166288227e-05,-0.00134330114,-0.001821056852,-0.0001018065944,-0.001922863447,-0.002057785713,-0.0001180179605,-0.002175803674
4.8,-2.242506012e-05,0.0002026103123,0.0001801852522,-0.0001850390181,-2.389955578e-05,-0.0002089385739,-0.0002671284333,0.0002051506579,-6.197777543e-05,-0.001093219383,-6.503473661e-05,-0.00115825412,-0.0003892917667,-1.122846487e-05,-0.0004005202316,-0.0009828085181,5.430534502e-05,-0.0009285031731,-0.0008859219043,-6.531125328e-06,-0.0008924530296,-0.00128940377,0.0001381650593,-0.001151238711,-0.001356652715,-0.0001311495234,-0.001487802239,-0.001160297789,0.0002195402817,-0.0009407575074,-0.001028037082,0.0001148377182,-0.0009131993637,-0.0002572247632,-0.0002234923667,-0.0004807171299,-0.00151940469,0.0001170305614,-0.001402374129,-0.000483424337,-8.430329266e-06,-0.0004918546663,-0.0006500109758,-0.0002964585663,-0.000946469542,-0.001155062139,5.81540587e-06,-0.001149246733,-0.001604623296,8.756125173e-05,-0.001517062044,-0.001159007923,0.0001180112363,-0.001040996687,-0.001420486305,4.201133339e-05,-0.001378474971,-0.0006892855466,0.00010734461,-0.0005819409366,-0.0004031804311,-8.136329305e-06,-0.0004113167604,0.0003146820918,0.0001289638905,0.0004436459822,-0.0002943024205,0.0001023359338,-0.0001919664867,0.0002819755857,-6.686108542e-05,0.0002151145003,-8.322447343e-05,3.396883804e-05,-4.925563539e-05,-0.0009167608311,8.480080433e-05,-0.0008319600268,-0.0003838143414,7.318228838e-05,-0.000310632053,-0.001235737848,-3.843282317e-05,-0.001274170671,-0.0007159600025,-6.380934827e-05,-0.0007797693508,-0.001079206437,-8.046686989e-05,-0.001159673306,-0.001243611616,-2.018952274e-05,-0.001263801138,-0.001400396736,-6.232962245e-06,-0.001406629698,-0.00129948435,-4.523117707e-05,-0.001344715528,-0.001358808494,-1.956902211e-05,-0.001378377517,-0.001854649402,-0.0001077928562,-0.001962442258,-0.002090261224,-0.0001263624625,-0.002216623687
4.9,6.599550178e-06,0.0002104134954,0.0002170130456,-0.0001946906762,-3.077386472e-05,-0.0002254645409,-0.000267494639,0.0002025910716,-6.490356742e-05,-0.001112176509,-6.633112691e-05,-0.001178507636,-0.0003910985659,-1.13724693e-05,-0.0004024710352,-0.0009938659767,5.466425736e-05,-0.0009392017194,-0.0009004932676,-4.974700867e-06,-0.0009054679684,-0.001320504185,0.0001392951216,-0.001181209063,-0.001368659451,-0.0001304288031,-0.001499088254,-0.001176150107,0.0002244016548,-0.0009517484524,-0.001034987088,0.0001151319251,-0.0009198551627,-0.0002731490699,-0.0002288146734,-0.0005019637433,-0.00156066601,0.0001128796787,-0.001447786331,-0.0005143464803,-1.153574143e-05,-0.0005258822217,-0.0006664829366,-0.0003008104169,-0.0009672933536,-0.001183482385,1.848114357e-06,-0.001181634271,-0.001627079145,8.078524597e-05,-0.001546293899,-0.001174187548,0.0001124554973,-0.00106173205,-0.001441787929,3.906385796e-05,-0.001402724071,-0.0006958593557,0.0001071301015,-0.0005887292543,-0.0003957043907,-8.364590842e-06,-0.0004040689815,0.0003240311295,0.0001246548468,0.0004486859763,-0.0002618549306,0.0001027529874,-0.0001591019432,0.000314530391,-5.630029207e-05,0.0002582300989,-0.0001172604923,3.294124964e-05,-8.431924264e-05,-0.0009290514394,8.480038816e-05,-0.0008442510513,-0.0004339337114,6.742860084e-05,-0.0003665051106,-0.001256630948,-3.896329309e-05,-0.001295594241,-0.0007289557328,-6.638362055e-05,-0.0007953393534,-0.001086727367,-8.84714049e-05,-0.001175198772,-0.001262913839,-2.03420945e-05,-0.001283255933,-0.001427840659,-5.538978592e-06,-0.001433379637,-0.001322755911,-5.135383021e-05,-0.001374109741,-0.001394560514,-1.731113269e-05,-0.001411871647,-0.001887400135,-0.0001136439403,-0.002001044075,-0.002121193728,-0.0001347466562,-0.002255940384
5.0,3.572720611e-05,0.0002178446653,0.0002535718714,-0.0002050036072,-3.778204613e-05,-0.0002427856533,-0.0002677838253,0.0001999905245,-6.779330076e-05,-0.001131628297,-6.771286497e-05,-0.001199341162,-0.0003922908308,-1.153127729e-05,-0.0004038221081,-0.00100400011,5.510722398e-05,-0.0009488928856,-0.0009142811675,-3.296952417e-06,-0.0009175781199,-0.001350781341,0.0001406604929,-0.001210120849,-0.001380123531,-0.0001295994354,-0.001509722966,-0.001191496457,0.0002293348228,-0.0009621616345,-0.001041431771,0.0001153253649,-0.0009261064064,-0.0002883346041,-0.0002342778317,-0.0005226124358,-0.001601547485,0.000108495818,-0.001493051667,-0.0005447196718,-1.452269824e-05,-0.0005592423701,-0.0006821956558,-0.0003057065684,-0.0009879022242,-0.001211154642,-1.970129875e-06,-0.001213124772,-0.001648441657,7.387603524e-05,-0.001574565622,-0.001187823495,0.000106758153,-0.001081065342,-0.001461565359,3.610121832e-05,-0.001425464141,-0.0007016696324,0.0001069599524,-0.00059470968,-0.0003878484195,-8.558674876e-06,-0.0003964070944,0.0003323732291,0.0001198113077,0.0004521845368,-0.0002293034883,0.0001029577987,-0.0001263456896,0.0003485066932,-4.521614643e-05,0.0003032905467,-0.000152859991,3.162257059e-05,-0.0001212374204,-0.0009405088932,8.422628848e-05,-0.0008562826047,-0.0004864062208,6.162259104e-05,-0.0004247836298,-0.001277558279,-3.978504171e-05,-0.001317343321,-0.0007417485806,-6.891867866e-05,-0.0008106672593,-0.001093628311,-9.658892851e-05,-0.00119021724,-0.001282430245,-2.041897547e-05,-0.001302849221,-0.001454448206,-4.893752534e-06,-0.001459341958,-0.001345627229,-5.728525263e-05,-0.001402912481,-0.001428792752,-1.493611745e-05,-0.00144372887,-0.001919261412,-0.0001193185738,-0.002038579986,-0.002150579584,-0.0001431114519,-0.002293691036
5.1,6.493199768e-05,0.0002248913128,0.0002898233104,-0.0002159368216,-4.490161306e-05,-0.0002608384347,-0.0002680227773,0.0001973502398,-7.067253757e-05,-0.001151532067,-6.917757986e-05,-0.001220709646,-0.0003928566084,-1.169951414e-05,-0.0004045561225,-0.001013225398,5.563057393e-05,-0.0009575948238,-0.0009272306094,-1.496577354e-06,-0.0009287271867,-0.00138014841,0.0001422529906,-0.001237895419,-0.001391007237,-0.0001286589278,-0.001519666165,-0.001206297579,0.0002343303646,-0.0009719672142,-0.001047335716,0.0001154008602,-0.0009319348554,-0.0003027290709,-0.0002398878505,-0.0005426169214,-0.001641953991,0.0001038991192,-0.001538054872,-0.0005744239694,-1.73832793e-05,-0.0005918072487,-0.0006970821382,-0.0003111382741,-0.001008220412,-0.001237951273,-5.623650593e-06,-0.001243574924,-0.001668646886,6.690227977e-05,-0.001601744606,-0.001199842382,0.0001009324656,-0.001098909916,-0.001479774047,3.313948853e-05,-0.001446634558,-0.0007066985889,0.0001068368876,-0.0005998617013,-0.0003796349621,-8.711889972e-06,-0.0003883468521,0.0003397098393,0.0001144560524,0.0004541658917,-0.0001967113586,0.0001029447657,-9.376659297e-05,0.0003839989662,-3.369482649e-05,0.0003503041397,-0.0001898820997,2.997638424e-05,-0.0001599057155,-0.0009511821776,8.307080625e-05,-0.0008681113713,-0.0005410705719,5.576549451e-05,-0.0004853050774,-0.001298465901,-4.091526981e-05,-0.001339381171,-0.0007543074319,-7.141315581e-05,-0.0008257205877,-0.001099931375,-0.0001048016724,-0.001204733047,-0.001302099663,-2.043598065e-05,-0.001322535643,-0.001480138823,-4.316425279e-06,-0.001484455249,-0.001368106269,-6.296634815e-05,-0.001431072618,-0.001461418729,-1.249202947e-05,-0.001473910758,-0.001950190735,-0.0001247786899,-0.002074969425,-0.002178423378,-0.0001513986643,-0.002329822043
5.2,9.418957312e-05,0.0002315426901,0.0003257322632,-0.0002274368055,-5.210922832e-05,-0.0002795460338,-0.0002682374146,0.0001946686468,-7.356876785e-05,-0.00117183021,-7.072060683e-05,-0.001242550817,-0.0003927910789,-1.187241679e-05,-0.0004046634957,-0.001021560895,5.622987572e-05,-0.0009653310194,-0.0009392932508,4.266618358e-07,-0.0009388665889,-0.001408522863,0.0001440620823,-0.001264460781,-0.001401280649,-0.0001276057222,-0.001528886372,-0.001220517475,0.0002393791623,-0.0009811383131,-0.001052667548,0.0001153434726,-0.0009373240758,-0.0003162950204,-0.0002456492767,-0.0005619442971,-0.001681803418,9.911158102e-05,-0.001582691837,-0.0006033540937,-2.01108363e-05,-0.00062346493,-0.0007111026896,-0.0003170810601,-0.00102818375,-0.001263759128,-9.100516481e-06,-0.001272859645,-0.001687660967,5.993479605e-05,-0.001627726171,-0.001210188193,9.499366814e-05,-0.001115194525,-0.001496383544,3.019374464e-05,-0.0014661898,-0.0007109301478,0.0001067629757,-0.0006041671721,-0.0003710825864,-8.816881421e-06,-0.0003798994678,0.0003460629315,0.0001086170872,0.0004546800188,-0.0001641438576,0.0001027092207,-6.143463692e-05,0.0004210894289,-2.183284835e-05,0.0003992565806,-0.0002281658853,2.797277967e-05,-0.0002001931056,-0.0009611255794,8.133261269e-05,-0.0008797929667,-0.0005977460711,4.985529126e-05,-0.0005478907798,-0.001319306684,-4.236604888e-05,-0.001361672733,-0.000766608085,-7.386640079e-05,-0.0008404744857,-0.001105663711,-0.0001130896945,-0.001218753405,-0.001321867881,-2.040997133e-05,-0.001342277853,-0.00150484446,-3.825964584e-06,-0.001508670424,-0.001390209356,-6.833949695e-05,-0.001458548853,-0.001492368356,-1.002769851e-05,-0.001502396055,-0.001980151312,-0.0001299904528,-0.002110141765,-0.002204736881,-0.0001595531408,-0.002364290022
5.3,0.0001234783227,0.0002377903135,0.0003612686362,-0.0002394395563,-5.938142385e-05,-0.0002988209801,-0.0002684521027,0.000191941537,-7.651056571e-05,-0.00119245114,-7.233499277e-05,-0.001264786133,-0.0003920965832,-1.204592428e-05,-0.0004041425075,-0.00102903015,5.690004698e-05,-0.0009721301031,-0.0009504278244,2.471898252e-06,-0.0009479559261,-0.001435827485,0.000146074962,-0.001289752523,-0.001410921963,-0.0001264393198,-0.001537361283,-0.001234123758,0.0002444723786,-0.0009896513793,-0.001057400427,0.0001151404487,-0.0009422599785,-0.0003290106975,-0.0002515655334,-0.0005805762309,-0.001721027856,9.415740357e-05,-0.001626870452,-0.0006314223911,-2.270031533e-05,-0.0006541227064,-0.0007242440471,-0.0003234969035,-0.001047740951,-0.001288480628,-1.239271223e-05,-0.001300873341,-0.001705480134,5.304446122e-05,-0.001652435673,-0.001218823057,8.895872862e-05,-0.001129864328,-0.001511377497,2.727702134e-05,-0.001484100475,-0.0007143503629,0.0001067395067,-0.0006076108561,-0.000362205803,-8.865831142e-06,-0.0003710716341,0.0003514745825,0.0001023268883,0.0004538014707,-0.0001316672346,0.0001022473752,-2.941985941e-05,0.0004598463743,-9.735210732e-06,0.0004501111636,-0.0002675327505,2.558887589e-05,-0.0002419438746,-0.0009703987757,7.901667507e-05,-0.0008913821006,-0.0006562348345,4.388528994e-05,-0.0006123495445,-0.001340041672,-4.414399763e-05,-0.00138418567,-0.0007786333657,-7.627853807e-05,-0.0008549119038,-0.001110856984,-0.0001214318048,-0.001232288789,-0.001341688479,-2.035856102e-05,-0.00136204704,-0.001528510415,-3.440962127e-06,-0.001531951377,-0.001411959563,-7.334952752e-05,-0.00148530909,-0.001521589228,-7.592215758e-06,-0.001529181443,-0.002009112662,-0.000134925099,-0.002144037761,-0.002229538509,-0.0001675246262,-0.002397063135
5.4,0.0001527805041,0.0002436284474,0.0003964089515,-0.0002518727488,-6.66952348e-05,-0.0003185679836,-0.0002686889751,0.0001891623171,-7.952665798e-05,-0.001213310585,-7.401153884e-05,-0.001287322124,-0.0003907823554,-1.221673182e-05,-0.0004029990873,-0.00103566104,5.763549973e-05,-0.0009780255406,-0.0009606003584,4.637136913e-06,-0.0009559632215,-0.00146199123,0.0001482766724,-0.001313714557,-0.001419917245,-0.0001251603453,-0.00154507759,-0.00124708772,0.000249601434,-0.0009974862864,-0.00106151215,0.0001147811622,-0.0009467309873,-0.0003408704365,-0.000257638943,-0.0005985093795,-0.001759574028,8.906279614e-05,-0.001670511231,-0.0006585610247,-2.514863568e-05,-0.0006837096604,-0.0007365178655,-0.0003303364914,-0.001066854357,-0.001312034651,-1.549619946e-05,-0.00132753085,-0.001722129932,4.630026045e-05,-0.001675829672,-0.001225727574,8.284607268e-05,-0.001142881501,-0.001524753537,2.439954547e-05,-0.001500353991,-0.0007169478344,0.0001067669122,-0.0006101809222,-0.0003530152102,-8.850706487e-06,-0.0003618659167,0.0003560059201,9.562151835e-05,0.0004516274385,-9.934734774e-05,0.0001015562966,2.208948885e-06,0.0005003230057,2.486758791e-06,0.0005028097645,-0.0003077895112,2.280897935e-05,-0.0002849805319,-0.0009790667928,7.613417972e-05,-0.0009029326131,-0.0007163244097,3.784312836e-05,-0.0006784812813,-0.00136064111,-4.625016195e-05,-0.001406891272,-0.0007903729861,-7.865047875e-05,-0.0008690234649,-0.001115546638,-0.0001298064208,-0.001245353059,-0.001361523378,-2.029979385e-05,-0.001381823172,-0.001551095882,-3.17930808e-06,-0.00155427519,-0.001433384988,-7.794475245e-05,-0.00151132974,-0.001549047615,-5.234259589e-06,-0.001554281875,-0.002037051008,-0.0001395595611,-0.002176610569,-0.002252853031,-0.0001752692045,-0.002428122236
5.5,0.0001820832047,0.0002490545041,0.0004311377088,-0.0002646578744,-7.402871859e-05,-0.000338686593,-0.000268967264,0.000186322341,-8.264492303e-05,-0.001234313141,-7.573888237e-05,-0.001310052023,-0.0003888639382,-1.238230446e-05,-0.0004012462427,-0.0010414855,5.843030109e-05,-0.0009830551989,-0.0009697841241,6.91924568e-06,-0.0009628648784,-0.001486949905,0.0001506502837,-0.001336299622,-0.001428259645,-0.000123770571,-0.001552030216,-0.001259384065,0.0002547579811,-0.001004626084,-0.001064984845,0.0001142570479,-0.0009507277966,-0.0003518846882,-0.0002638702267,-0.0006157549149,-0.001797402725,8.38551296e-05,-0.001713547596,-0.0006847233141,-2.7455067e-05,-0.0007121783811,-0.0007479585565,-0.0003375414659,-0.001085500022,-0.001334357055,-1.841093411e-05,-0.001352767989,-0.001737663298,3.976728418e-05,-0.001697896014,-0.001230900639,7.667531365e-05,-0.001154225325,-0.001536522961,2.156826959e-05,-0.001514954692,-0.0007187140636,0.0001068447203,-0.0006118693433,-0.0003435178488,-8.763532053e-06,-0.0003522813809,0.0003597355543,8.85396489e-05,0.0004482752032,-6.724829247e-05,0.0001006339047,3.33856122e-05,0.0005425568874,1.471774224e-05,0.0005572746296,-0.0003487319424,1.962434847e-05,-0.000329107594,-0.0009871997493,7.270237689e-05,-0.0009144973724,-0.0007777908581,3.171048622e-05,-0.0007460803719,-0.001381084954,-4.868028556e-05,-0.001429765239,-0.0008018231231,-8.09838728e-05,-0.0008828069959,-0.001119771019,-0.0001381922145,-0.001257963234,-0.001381343057,-2.025177888e-05,-0.001401594836,-0.001572574047,-3.05778264e-06,-0.00157563183,-0.001454516938,-8.207804994e-05,-0.001536594988,-0.001574728849,-3.001399901e-06,-0.001577730249,-0.002063949259,-0.0001438768869,-0.002207826146,-0.002274711359,-0.0001827501171,-0.002457461476
5.6,0.0002113790486,0.0002540693141,0.0004654483627,-0.0002777122623,-8.136133792e-05,-0.0003590736002,-0.00026930268,0.0001834112966,-8.589138333e-05,-0.00125535402,-7.750361969e-05,-0.00133285764,-0.0003863623801,-1.254085294e-05,-0.000398903233,-0.001046539163,5.92783244e-05,-0.0009872608385,-0.0009779594267,9.313958883e-06,-0.0009686454678,-0.001510646695,0.0001531771359,-0.001357469559,-0.001435948385,-0.0001222729207,-0.001558221305,-0.001270990448,0.0002599338745,-0.001011056574,-0.001067804444,0.000113561524,-0.0009542429199,-0.0003620797446,-0.0002702575177,-0.0006323372623,-0.001834487215,7.856157309e-05,-0.001755925642,-0.0007098843544,-2.962142177e-05,-0.0007395057762,-0.0007586205478,-0.0003450466039,-0.001103667152,-0.001355400736,-2.11408182e-05,-0.001376541554,-0.001752157682,3.350482225e-05,-0.00171865286,-0.001234358831,7.046698685e-05,-0.001163891844,-0.001546710126,1.878668747e-05,-0.001527923439,-0.0007196437669,0.0001069715456,-0.0006126722212,-0.0003337177632,-8.59666124e-06,-0.0003423144244,0.000362757532,8.11215548e-05,0.0004438790868,-3.543121768e-05,9.947896793e-05,6.404775025e-05,0.0005865699293,2.684079415e-05,0.0006134107234,-0.0003901486755,1.603270456e-05,-0.000374115971,-0.000994872383,6.874429438e-05,-0.0009261280886,-0.0008404023695,2.546374931e-05,-0.0008149386201,-0.001401362823,-5.142550908e-05,-0.001452788332,-0.0008129858046,-8.328105085e-05,-0.0008962668554,-0.001123570593,-0.0001465684469,-0.00127013904,-0.00140112645,-2.023229028e-05,-0.001421358741,-0.001592931798,-3.09163088e-06,-0.001596023429,-0.00147538811,-8.570798977e-05,-0.0015610961,-0.001598636892,-9.395382665e-07,-0.001599576431,-0.002089796651,-0.0001478664914,-0.002237663142,-0.002295150482,-0.0001899377719,-0.002485088254
5.7,0.0002406665565,0.0002586772493,0.0004993438058,-0.0002909509587,-8.867420469e-05,-0.0003796251634,-0.000269706889,0.0001804176311,-8.928925794e-05,-0.00127632098,-7.929046746e-05,-0.001355611447,-0.0003833033648,-1.269127664e-05,-0.0003959946415,-0.00105086097,6.017337273e-05,-0.000990687597,-0.0009851133972,1.181589516e-05,-0.000973297502,-0.001533032553,0.0001558371459,-0.001377195407,-0.001442987805,-0.000120671459,-0.001563659264,-0.001281887062,0.0002651211369,-0.001016765925,-0.001069960164,0.0001126899093,-0.000957270255,-0.0003714970467,-0.0002767952479,-0.0006482922946,-0.00187081099,7.320760496e-05,-0.001797603385,-0.0007340410129,-3.165196851e-05,-0.0007656929814,-0.0007685751021,-0.0003527819722,-0.001121357074,-0.001375135177,-2.36935342e-05,-0.001398828711,-0.001765711834,2.756505708e-05,-0.001738146777,-0.001236135486,6.424225272e-05,-0.001171893233,-0.001555351577,1.605489361e-05,-0.001539296683,-0.0007197352016,0.0001071451088,-0.0006125900928,-0.0003236168164,-8.343044565e-06,-0.0003319598609,0.0003651788616,7.340815622e-05,0.0004385870178,-3.953450462e-06,9.809109371e-05,9.413764325e-05,0.0006323687289,3.873955873e-05,0.0006711082876,-0.0004318252142,1.203754943e-05,-0.0004197876648,-0.001002163421,6.428834361e-05,-0.0009378750769,-0.0009039232359,1.907563286e-05,-0.0008848476031,-0.001421473445,-5.447335051e-05,-0.001475946795,-0.000823868152,-8.554500891e-05,-0.0009094131609,-0.00112698734,-0.000154914998,-0.001281902338,-0.001420860635,-2.025833606e-05,-0.001441118971,-0.001612169175,-3.294160227e-06,-0.001615463335,-0.001496030802,-8.880003165e-05,-0.001584830834,-0.001620793116,9.074878726e-07,-0.001619885628,-0.002114588256,-0.0001515242509,-0.002266112507,-0.002314213523,-0.0001968090883,-0.002511022612
5.8,0.0002699501256,0.0002628861891,0.0005328363147,-0.0003042884217,-9.59502201e-05,-0.0004002386418,-0.0002701870961,0.0001773289946,-9.285810156e-05,-0.001297096371,-8.108245803e-05,-0.001378178829,-0.0003797163225,-1.28330784e-05,-0.0003925494009,-0.001054492752,6.110926762e-05,-0.0009933834843,-0.0009912398051,1.441859234e-05,-0.0009768212128,-0.001554066476,0.0001586091717,-0.001395457305,-0.001449386483,-0.0001189713602,-0.001568357844,-0.001292056265,0.0002703119284,-0.001021744337,-0.00107144403,0.0001116393404,-0.0009598046901,-0.0003801918486,-0.0002834733871,-0.0006636652356,-0.001906365376,6.781580721e-05,-0.001838549569,-0.000757211281,-3.355314494e-05,-0.000790764426,-0.0007779068717,-0.0003606751305,-0.001138582002,-0.001393545526,-2.608024306e-05,-0.001419625769,-0.001778442579,2.199263831e-05,-0.001756449941,-0.001236279503,5.802255442e-05,-0.001178256949,-0.001562494961,1.336983201e-05,-0.001549125129,-0.0007189905111,0.0001073622705,-0.0006116282406,-0.0003132157409,-7.996506486e-06,-0.0003212122474,0.0003671167599,6.544015309e-05,0.000432556913,2.713211341e-05,9.647071542e-05,0.0001236028288,0.0006799451316,5.030022106e-05,0.0007302453527,-0.0004735477781,7.647245497e-06,-0.0004659005326,-0.001009154769,5.936787629e-05,-0.0009497868929,-0.0009681176691,1.251745007e-05,-0.000955600219,-0.001441423593,-5.780874988e-05,-0.001499232343,-0.0008344814537,-8.777943913e-05,-0.0009222608929,-0.001130064183,-0.0001632122071,-0.00129327639,-0.001440540329,-2.034572246e-05,-0.001460886051,-0.001630298615,-3.676324006e-06,-0.001633974939,-0.001516475187,-9.132776326e-05,-0.00160780295,-0.001641234418,2.498260204e-06,-0.001638736158,-0.002138324458,-0.000154852379,-0.002293176837,-0.002331949591,-0.0002033466043,-0.002535296195
5.9,0.0002992396804,0.0002667073331,0.0005659470135,-0.0003176399577,-0.0001031741708,-0.0004208141285,-0.0002707457418,0.0001741326881,-9.661305369e-05,-0.001317559257,-8.286116829e-05,-0.001400420425,-0.00037563351,-1.296626235e-05,-0.0003885997723,-0.001057478791,6.207990365e-05,-0.0009953988876,-0.0009963388557,1.711455535e-05,-0.0009792243004,-0.001573715609,0.0001614714064,-0.001412244202,-0.00145515634,-0.000117178853,-0.001572335193,-0.0013014822,0.0002754985177,-0.001025983683,-0.001072250406,0.0001104086895,-0.0009618417163,-0.0003882312227,-0.0002902772404,-0.0006785084631,-0.001941147254,6.240518212e-05,-0.001878742072,-0.0007794330193,-3.533318312e-05,-0.0008147662024,-0.0007867103895,-0.0003686533568,-0.001155363746,-0.001410631276,-2.831516421e-05,-0.00143894644,-0.001790481377,1.682492723e-05,-0.00177365645,-0.001234853909,5.182923982e-05,-0.001183024669,-0.001568197791,1.072570176e-05,-0.001557472089,-0.0007174160689,0.0001076190628,-0.0006097970061,-0.0003025153507,-7.552031969e-06,-0.0003100673827,0.0003686957924,5.725727304e-05,0.0004259530655,5.777740634e-05,9.461907558e-05,0.0001523964819,0.0007292769116,6.141315329e-05,0.0007906900649,-0.0005151068402,2.873954583e-06,-0.0005122328856,-0.00101593045,5.402071844e-05,-0.0009619097314,-0.001032752974,5.76158715e-06,-0.001026991387,-0.001461226544,-6.141499415e-05,-0.001522641538,-0.0008448401529,-8.998875952e-05,-0.0009348289124,-0.00113284424,-0.0001714406847,-0.001304284925,-0.001460167168,-2.050867683e-05,-0.001480675845,-0.00164734399,-4.246241411e-06,-0.001651590231,-0.001536747645,-9.327411142e-05,-0.001630021756,-0.001660010874,3.794261156e-06,-0.001656216613,-0.002161010382,-0.0001578590111,-0.002318869393,-0.002348413118,-0.0002095376759,-0.002557950794
6.0,0.0003285500407,0.0002701548706,0.0005987049113,-0.0003309228876,-0.0001103328157,-0.0004412557033,-0.0002713803679,0.0001708160964,-0.0001005642714,-0.001337587565,-8.46069846e-05,-0.00142219455,-0.0003710891404,-1.309123188e-05,-0.0003841803723,-0.001059865398,6.30792736e-05,-0.0009967861241,-0.001000417066,1.989530704e-05,-0.0009805217589,-0.001591955189,0.000164401772,-0.001427553417,-0.00146031188,-0.0001153011488,-0.001575613029,-0.001310150551,0.0002806732493,-0.001029477301,-0.00107237566,0.0001089984792,-0.000963377181,-0.0003956916592,-0.000297187725,-0.0006928793843,-0.001975156945,5.699101923e-05,-0.001918165926,-0.0008007622738,-3.700168535e-05,-0.0008377639592,-0.0007950865933,-0.0003766458137,-0.001171732407,-0.001426404632,-3.041509699e-05,-0.001456819729,-0.001801970296,1.209247645e-05,-0.00178987782,-0.001231934285,4.568317022e-05,-0.001186251115,-0.00157252614,8.114513439e-06,-0.001564411627,-0.0007150228324,0.0001079107155,-0.000607112117,-0.0002915178692,-7.006042015e-06,-0.0002985239112,0.0003700449595,4.889765164e-05,0.0004189426111,8.793934528e-05,9.253819449e-05,0.0001804775398,0.0007803284791,7.197427101e-05,0.0008523027501,-0.0005563004545,-2.267234872e-06,-0.0005585676894,-0.001022575336,4.828869249e-05,-0.0009742866432,-0.00109760201,-1.216077907e-06,-0.001098818088,-0.001480900256,-6.527440826e-05,-0.001546174664,-0.0008549609885,-9.217810683e-05,-0.0009471390953,-0.001135369954,-0.000179581195,-0.001314951149,-0.001479748837,-2.07595724e-05,-0.00150050841,-0.001663339403,-5.008691639e-06,-0.001668348095,-0.001556869146,-9.4632506e-05,-0.001651501652,-0.001677183176,4.760582979e-06,-0.001672422593,-0.002182655233,-0.0001605575608,-0.002343212794,-0.002363662755,-0.0002153738182,-0.002579036574
6.1,0.0003579000166,0.0002732455136,0.0006311455302,-0.0003440575196,-0.0001174149492,-0.0004614724688,-0.000272083718,0.0001673670904,-0.0001047166277,-0.001357060282,-8.629940927e-05,-0.001443359692,-0.0003661187006,-1.320869961e-05,-0.0003793274002,-0.001061700571,6.410146929e-05,-0.0009975991018,-0.001003487346,2.275143758e-05,-0.000980735908,-0.001608768363,0.0001673782849,-0.001441390078,-0.001464869743,-0.0001133463536,-0.001578216096,-0.001318048604,0.0002858285076,-0.001032220096,-0.001071818124,0.0001074107923,-0.0009644073316,-0.0004026564912,-0.0003041820287,-0.00070683852,-0.002008396203,5.158518545e-05,-0.001956811017,-0.0008212713057,-3.85691545e-05,-0.0008598404602,-0.0008031393076,-0.0003845856163,-0.001187724924,-0.001440888669,-3.239895469e-05,-0.001473287624,-0.00181305728,7.819423768e-06,-0.001805237856,-0.001227607248,3.960435732e-05,-0.001188002891,-0.001575553385,5.526749989e-06,-0.001570026635,-0.0007118267214,0.000108231685,-0.0006035950364,-0.0002802283224,-6.356630497e-06,-0.0002865849529,0.0003712947358,4.039735609e-05,0.0004116920919,0.0001175797556,9.023082303e-05,0.0002078105786,0.0008330515934,8.188612584e-05,0.0009149377193,-0.0005969375682,-7.758658306e-06,-0.0006046962265,-0.001029173944,4.221716076e-05,-0.000986956783,-0.001162445168,-8.433883261e-06,-0.001170879051,-0.001500465575,-6.936879677e-05,-0.001569834372,-0.0008648624019,-9.435330381e-05,-0.0009592157057,-0.001137682236,-0.0001876146133,-0.001325296849,-0.00149929815,-2.110873868e-05,-0.001520406889,-0.001678327734,-5.964706438e-06,-0.001684292441,-0.001576853709,-9.54079482e-05,-0.001672261657,-0.001692820121,5.366868276e-06,-0.001687453252,-0.002203271446,-0.0001629660385,-0.002366237484,-0.002377760094,-0.0002208500821,-0.002598610176
6.2,0.0003873112734,0.0002759978981,0.0006633091715,-0.0003569679803,-0.0001244114116,-0.0004813793919,-0.0002728440542,0.0001637743922,-0.000109069662,-0.001375859659,-8.791741197e-05,-0.001463777071,-0.0003607584562,-1.331961029e-05,-0.0003740780665,-0.001063033759,6.51406633e-05,-0.0009978930957,-0.001005569223,2.567265592e-05,-0.0009798965674,-0.001624145904,0.0001703793828,-0.001453766521,-0.001468848479,-0.0001113233602,-0.001580171839,-0.001325165567,0.000290956681,-0.001034208886,-0.001070578242,0.000105649181,-0.000964929061,-0.0004092133,-0.0003112344873,-0.0007204477873,-0.002040866247,4.619666795e-05,-0.001994669579,-0.0008410462613,-4.00464967e-05,-0.000881092758,-0.0008109715921,-0.0003924117207,-0.001203383313,-0.001454115363,-3.428731788e-05,-0.001488402681,-0.001823890904,4.02372718e-06,-0.001819867177,-0.001221969028,3.361166378e-05,-0.001188357364,-0.001577358983,2.952043905e-06,-0.001574406939,-0.00070784898,0.0001085756906,-0.0005992732894,-0.0002686558564,-5.603745544e-06,-0.0002742596019,0.0003725741861,3.179003458e-05,0.0004043642206,0.0001466651707,8.770038592e-05,0.0002343655566,0.0008873861715,9.105875491e-05,0.0009784449264,-0.0006368413167,-1.357985557e-05,-0.0006504211723,-0.001035809403,3.585460192e-05,-0.0009999548008,-0.001227071978,-1.590228187e-05,-0.00124297426,-0.001519944558,-7.367967229e-05,-0.00159362423,-0.0008745640736,-9.652081537e-05,-0.000971084889,-0.001139819614,-0.0001955219339,-0.001335341548,-0.001518832071,-2.156430808e-05,-0.001540396379,-0.001692358921,-7.111371926e-06,-0.001699470293,-0.001596707087,-9.561779672e-05,-0.001692324884,-0.0017069963,5.588382808e-06,-0.001701407917,-0.002222873641,-0.0001651064519,-0.002387980093,-0.002390768407,-0.0002259643417,-0.002616732749
6.3,0.000416807066,0.0002784318743,0.0006952389403,-0.0003695828629,-0.0001313150346,-0.0005008978975,-0.0002736455858,0.0001600279062,-0.0001136176797,-0.001393873346,-8.943982277e-05,-0.001483313169,-0.0003550450159,-1.342507094e-05,-0.0003684700869,-0.001063915662,6.619107849e-05,-0.0009977245836,-0.001006689035,2.864784904e-05,-0.0009780411862,-0.001638085872,0.000173384209,-0.001464701663,-0.001472268348,-0.0001092417259,-0.001581510074,-0.001331492916,0.0002960501324,-0.001035442783,-0.001068658719,0.0001037185707,-0.0009649401481,-0.000415451533,-0.0003183173101,-0.0007337688431,-0.002072565879,4.08323027e-05,-0.002031733576,-0.0008601843255,-4.144453705e-05,-0.0009016288625,-0.0008186820529,-0.0004000704543,-0.001218752507,-0.001466123592,-3.610195068e-05,-0.001502225543,-0.001834615172,7.173910537e-07,-0.001833897781,-0.001215124018,2.772257072e-05,-0.001187401447,-0.001578027244,3.798227562e-07,-0.001577647421,-0.000703116439,0.0001089357548,-0.0005941806843,-0.0002568148058,-4.749307745e-06,-0.0002615641135,0.000374008333,2.310665239e-05,0.0003971149854,0.0001751665859,8.495091653e-05,0.0002601175024,0.0009432612396,9.941031171e-05,0.001042671551,-0.0006758518859,-1.970706256e-05,-0.0006955589484,-0.001042562458,2.92521625e-05,-0.001013310295,-0.001291282164,-2.362205705e-05,-0.001314904221,-0.001539358879,-7.81882485e-05,-0.001617547128,-0.0008840864427,-9.868767485e-05,-0.0009827741175,-0.001141817323,-0.0002032843138,-0.001345101637,-0.001538370603,-2.213207481e-05,-0.001560502678,-0.001705488007,-8.441846012e-06,-0.001713929853,-0.001616425973,-9.52919554e-05,-0.001711717929,-0.001719789848,5.407004601e-06,-0.001714382844,-0.002241477512,-0.0001670041991,-0.002408481711,-0.002402751501,-0.0002307164409,-0.002633467942
6.4,0.0004464108994,0.0002805677318,0.0007269786312,-0.000381835643,-0.0001381205277,-0.0005199561707,-0.0002744689434,0.0001561190208,-0.0001183499226,-0.001410996397,-9.084575222e-05,-0.001501842149,-0.0003490149179,-1.352628267e-05,-0.0003625412005,-0.001064398052,6.724695396e-05,-0.0009971510978,-0.001006880013,3.166515364e-05,-0.0009752148598,-0.001650593255,0.0001763728589,-0.001474220396,-0.001475151125,-0.0001071115449,-0.00158226267,-0.001337024712,0.0003011011727,-0.001035923539,-0.0010660646,0.0001016251578,-0.0009644394423,-0.0004214606012,-0.0003254008421,-0.0007468614433,-0.002103489905,3.549774126e-05,-0.002067992164,-0.0008787903876,-4.277359162e-05,-0.0009215639793,-0.0008263614292,-0.0004075164579,-0.001233877887,-0.001476957213,-3.786527364e-05,-0.001514822486,-0.00184536492,-2.093106087e-06,-0.001847458026,-0.001207183214,2.195301137e-05,-0.001185230202,-0.001577646108,-2.200093353e-06,-0.001579846201,-0.0006976616287,0.0001093042503,-0.0005883573784,-0.0002447254114,-3.797252541e-06,-0.000248522664,0.0003757158591,1.437529519e-05,0.0003900911543,0.0002030591299,8.198697908e-05,0.000285046109,0.001000595941,0.0001068675064,0.001107463447,-0.000713828373,-2.611277123e-05,-0.0007399411443,-0.001049510351,2.246310628e-05,-0.001027047245,-0.001354885911,-3.158297403e-05,-0.001386468885,-0.00155872842,-8.287513808e-05,-0.001641603558,-0.0008934502088,-0.0001008613505,-0.0009943115593,-0.00114370638,-0.0002108831153,-0.001354589495,-0.001557935525,-2.281539745e-05,-0.001580750923,-0.001717773161,-9.945485537e-06,-0.001727718646,-0.001635997989,-9.447219162e-05,-0.00173047018,-0.001731280117,4.811898686e-06,-0.001726468218,-0.002259098901,-0.0001686872878,-0.002427786189,-0.002413772597,-0.0002351073465,-0.002648879944
6.5,0.0004761451012,0.0002824254104,0.0007585705116,-0.0003936648988,-0.0001448243023,-0.0005384892011,-0.0002752917004,0.0001520408816,-0.0001232508188,-0.001427133126,-9.211501809e-05,-0.001519248144,-0.0003427043272,-1.362446963e-05,-0.0003563287968,-0.00106453361,6.830251654e-05,-0.0009962310939,-0.001006182339,3.471204384e-05,-0.0009714702952,-0.001661679668,0.0001793266006,-0.001482353067,-0.001477520028,-0.0001049433253,-0.001582463353,-0.001341757941,0.000306102039,-0.001035655902,-0.001062803377,9.93762952e-05,-0.0009634270821,-0.0004273285419,-0.0003324534295,-0.0007597819714,-0.002133628155,3.019863164e-05,-0.002103429523,-0.0008969735413,-4.404306642e-05,-0.0009410166078,-0.0008340898683,-0.0004147128149,-0.001248802683,-0.001486663287,-3.959987117e-05,-0.001526263158,-0.001856261989,-4.406152035e-06,-0.001860668141,-0.001198262647,1.631728047e-05,-0.001181945367,-0.00157630596,-4.797007167e-06,-0.001581102967,-0.0006915227463,0.0001096729625,-0.0005818497838,-0.0002324141818,-2.753476376e-06,-0.0002351676582,0.0003778071014,5.621060477e-06,0.0003834281619,0.0002303215929,7.881357397e-05,0.0003091351669,0.001059300433,0.0001133658779,0.001172666311,-0.0007506494051,-3.276552769e-05,-0.0007834149328,-0.00105672562,1.554214941e-05,-0.001041183471,-0.001417703405,-3.976296807e-05,-0.001457466373,-0.001578070212,-8.771981423e-05,-0.001665790026,-0.0009026758792,-0.0001030495436,-0.001005725423,-0.001145512813,-0.0002182998954,-0.001363812708,-0.001577549059,-2.361520221e-05,-0.001601164261,-0.001729273936,-1.16079636e-05,-0.0017408819,-0.001655402436,-9.321063323e-05,-0.001748613069,-0.001741545384,3.799800138e-06,-0.001737745584,-0.0022757532,-0.0001701853696,-0.002445938569,-0.002423893191,-0.000239138601,-0.002663031792
