Time,S1D1HbO,S1D1HbR,S1D1HbT,S2D2HbO,S2D2HbR,S2D2HbT,S3D3HbO,S3D3HbR,S3D3HbT,S4D4HbO,S4D4HbR,S4D4HbT,S5D5HbO,S5D5HbR,S5D5HbT,S6D6HbO,S6D6HbR,S6D6HbT,S7D7HbO,S7D7HbR,S7D7HbT,S8D8HbO,S8D8HbR,S8D8HbT,S9D9HbO,S9D9HbR,S9D9HbT,S10D10HbO,S10D10HbR,S10D10HbT,S11D11HbO,S11D11HbR,S11D11HbT,S12D12HbO,S12D12HbR,S12D12HbT,S13D13HbO,S13D13HbR,S13D13HbT,S14D14HbO,S14D14HbR,S14D14HbT,S15D15HbO,S15D15HbR,S15D15HbT,S16D16HbO,S16D16HbR,S16D16HbT,S17D17HbO,S17D17HbR,S17D17HbT,S18D18HbO,S18D18HbR,S18D18HbT,S19D19HbO,S19D19HbR,S19D19HbT,S20D20HbO,S20D20HbR,S20D20HbT,S21D21HbO,S21D21HbR,S21D21HbT,S22D22HbO,S22D22HbR,S22D22HbT,S23D23HbO,S23D23HbR,S23D23HbT,S24D24HbO,S24D24HbR,S24D24HbT,S25D25HbO,S25D25HbR,S25D25HbT,S26D26HbO,S26D26HbR,S26D26HbT,S27D27HbO,S27D27HbR,S27D27HbT,S28D28HbO,S28D28HbR,S28D28HbT,S29D29HbO,S29D29HbR,S29D29HbT,S30D30HbO,S30D30HbR,S30D30HbT,S31D31HbO,S31D31HbR,S31D31HbT,S32D32HbO,S32D32HbR,S32D32HbT,S33D33HbO,S33D33HbR,S33D33HbT,S34D34HbO,S34D34HbR,S34D34HbT,S35D35HbO,S35D35HbR,S35D35HbT,S36D36HbO,S36D36HbR,S36D36HbT
0.0,-0.0001540648108,0.0003636776916,0.0002096128808,-0.0004665753538,0.0001992115359,-0.0002673638179,-0.0005642625092,0.0003125346169,-0.0002517278922,-0.001200892445,0.0002555868132,-0.000945305632,-0.001053006042,0.0002952765173,-0.0007577295245,-0.000688436603,0.0002929905326,-0.0003954460705,-0.0009439177584,0.0001660437798,-0.0007778739786,-0.0007470356975,0.0001653833056,-0.000581652392,-0.0008440146069,0.0002207269869,-0.0006232876199,-0.0007515325272,0.0001829622904,-0.0005685702367,-0.001095451591,0.0004025657564,-0.0006928858346,-0.00113835832,0.0003459778392,-0.0007923804804,-0.0008497964937,0.0002494370844,-0.0006003594093,-0.0006624953796,4.376326789e-05,-0.0006187321117,-0.000794000854,8.551356357e-05,-0.0007084872905,-0.001489358965,1.849794987e-05,-0.001470861016,-0.001350761897,1.277028795e-05,-0.001337991609,-0.001077438908,-6.285929235e-05,-0.0011402982,-0.001067366374,1.541708365e-05,-0.00105194929,-0.0007754925972,0.0001325282838,-0.0006429643134,-0.00101320225,0.0002678918946,-0.0007453103556,-0.000482544484,0.000204397083,-0.0002781474009,-7.6436296e-05,0.0003538906352,0.0002774543392,-0.0001310070647,0.0003386111652,0.0002076041005,-0.0006403315829,1.473130415e-05,-0.0006256002787,-0.0005299864216,1.138601306e-05,-0.0005186004085,-0.0003537635707,-3.25443639e-05,-0.0003863079346,-0.0004561699838,-0.0001361622058,-0.0005923321896,-0.001268763363,4.168350863e-05,-0.001227079854,-0.0009122492983,-3.64612646e-05,-0.0009487105629,-0.001344830443,-3.839078297e-05,-0.001383221226,-0.001222419047,-4.996448525e-05,-0.001272383532,-0.002142641272,0.0004882146967,-0.001654426575,-0.001424511085,0.0002096443266,-0.001214866758,-0.0008169041652,-0.0004448491822,-0.001261753347,-0.0009601072473,8.964078007e-05,-0.0008704664672
0.1,-9.447907758e-05,0.0003766485091,0.0002821694315,-0.0003913999333,0.0002092212111,-0.0001821787222,-0.0005053366741,0.0003221541028,-0.0001831825713,-0.001147714692,0.0002648499372,-0.0008828647545,-0.000994290149,0.0003023287974,-0.0006919613516,-0.0006448444293,0.0003039235469,-0.0003409208824,-0.0008907746911,0.0001740549049,-0.0007167197862,-0.0007039665651,0.0001727533308,-0.0005312132344,-0.0007924032692,0.0002269683567,-0.0005654349126,-0.0007233122089,0.0001862263445,-0.0005370858644,-0.001063649069,0.0004191821357,-0.0006444669335,-0.001094936716,0.0003598698707,-0.0007350668456,-0.0008346751739,0.0002624435102,-0.0005722316637,-0.0006292699366,4.434657027e-05,-0.0005849233663,-0.0007784131776,8.709975761e-05,-0.00069131342,-0.001476460022,2.259161415e-05,-0.001453868408,-0.00132498443,1.759079617e-05,-0.001307393634,-0.00105888345,-6.196016738e-05,-0.001120843617,-0.001039556592,2.060483639e-05,-0.001018951755,-0.000733346141,0.0001396981049,-0.0005936480362,-0.0009751787946,0.0002827552212,-0.0006924235734,-0.000442680738,0.0002148945474,-0.0002277861905,-1.049225498e-05,0.0003663761116,0.0003558838566,-6.546001456e-05,0.0003474792779,0.0002820192633,-0.0006062198752,1.534092047e-05,-0.0005908789547,-0.0005168828165,6.317312081e-06,-0.0005105655044,-0.0003274537339,-1.679912117e-05,-0.000344252855,-0.0004478442436,-0.0001371324526,-0.0005849766962,-0.001245692805,3.957973794e-05,-0.001206113067,-0.000893198353,-3.897713624e-05,-0.0009321754892,-0.001316416601,-4.049107459e-05,-0.001356907675,-0.001186089949,-5.39314137e-05,-0.001240021363,-0.002125015555,0.0004692690256,-0.00165574653,-0.001382648224,0.0001888549118,-0.001193793312,-0.0008495650537,-0.0004056333319,-0.001255198386,-0.0009340249475,9.452648393e-05,-0.0008394984636
0.2,-3.817170133e-05,0.0003872445957,0.0003490728943,-0.0003179003175,0.0002185375145,-9.936280303e-05,-0.0004481581337,0.0003303528441,-0.0001178052896,-0.001093202913,0.000274525952,-0.0008186769615,-0.0009330946368,0.0003087102134,-0.0006243844234,-0.0006003044136,0.0003145495728,-0.0002857548407,-0.0008342464997,0.000181793073,-0.0006524534267,-0.0006584080279,0.000179940421,-0.0004784676069,-0.0007365909864,0.000233213384,-0.0005033776024,-0.0006924349885,0.0001891967619,-0.0005032382267,-0.00102892766,0.0004351505966,-0.0005937770631,-0.001050103531,0.0003732655666,-0.0006768379645,-0.0008156399155,0.000274497546,-0.0005411423694,-0.0005945707493,4.451703963e-05,-0.0005500537097,-0.0007598010468,8.818102191e-05,-0.0006716200249,-0.001459462349,2.629270966e-05,-0.001433169639,-0.001294447426,2.275631905e-05,-0.001271691107,-0.001036387276,-6.097982517e-05,-0.001097367101,-0.001006867435,2.57589623e-05,-0.0009811084727,-0.0006889734203,0.0001465131644,-0.0005424602559,-0.0009355712555,0.000297272023,-0.0006382992325,-0.0004016908006,0.0002252026312,-0.0001764881693,5.63132532e-05,0.0003787083898,0.000435021643,1.07452159e-06,0.0003555168863,0.0003565914078,-0.000570919656,1.569006475e-05,-0.0005552295912,-0.0005025611558,8.594824963e-07,-0.0005017016733,-0.0002984786086,-1.384176282e-06,-0.0002998627849,-0.0004372217774,-0.000138689483,-0.0005759112604,-0.001217967601,3.7392153e-05,-0.001180575448,-0.0008703892952,-4.162059131e-05,-0.0009120098865,-0.001282099304,-4.253074423e-05,-0.001324630048,-0.001143337681,-5.801823647e-05,-0.001201355917,-0.002097922366,0.0004488270882,-0.001649095277,-0.001331121821,0.0001670730719,-0.001164048749,-0.0008804652908,-0.0003606446192,-0.00124110991,-0.0009002545873,9.917534683e-05,-0.0008010792404
0.3,1.481247372e-05,0.0003954776722,0.0004102901459,-0.0002463041961,0.0002271437666,-1.91604295e-05,-0.0003928654415,0.0003371581423,-5.570729928e-05,-0.001037725538,0.0002846374664,-0.0007530880711,-0.0008697285934,0.0003144112413,-0.0005553173521,-0.0005550358106,0.0003248402461,-0.0002301955645,-0.0007746243662,0.0001892397847,-0.0005853845816,-0.000610561443,0.0001869316146,-0.0004236298284,-0.0006768942757,0.0002394405665,-0.0004374537092,-0.0006590861999,0.0001918621893,-0.0004672240105,-0.00099151731,0.0004504092474,-0.0005411080626,-0.001003994026,0.0003861339963,-0.0006178600301,-0.0007926970328,0.00028557409,-0.0005071229428,-0.0005585483237,4.429936862e-05,-0.000514248955,-0.0007382262291,8.878282679e-05,-0.0006494434023,-0.001438404819,2.957390644e-05,-0.001408830913,-0.001259235379,2.825934332e-05,-0.001230976036,-0.001010010503,-5.992754299e-05,-0.001069938046,-0.000969398254,3.086680791e-05,-0.0009385314461,-0.0006426014558,0.0001529542097,-0.0004896472462,-0.0008945456526,0.0003114273219,-0.0005831183307,-0.0003597404184,0.0002352990808,-0.0001244413376,0.0001238977779,0.0003909081057,0.0005148058836,6.846768719e-05,0.0003627272094,0.0004311948966,-0.0005345082721,1.580182987e-05,-0.0005187064423,-0.000487037723,-4.947361869e-06,-0.0004919850848,-0.0002666957905,1.35720035e-05,-0.000253123787,-0.0004242221776,-0.0001408317077,-0.0005650538854,-0.001185620406,3.515967943e-05,-0.001150460727,-0.0008438946203,-4.436663796e-05,-0.0008882612583,-0.001241919852,-4.447678575e-05,-0.001286396638,-0.001094255881,-6.22151311e-05,-0.001156471013,-0.002061249213,0.0004270963706,-0.001634152843,-0.001269988401,0.0001445535037,-0.001125434897,-0.0009089635458,-0.0003104258783,-0.001219389424,-0.0008586548021,0.0001035445632,-0.0007551102388
0.4,6.440962506e-05,0.0004013576346,0.0004657672597,-0.0001768670674,0.0002350212244,5.815415693e-05,-0.0003396169383,0.0003425930843,2.976146016e-06,-0.0009816680346,0.0002952019074,-0.0006864661272,-0.00080451326,0.000319427553,-0.0004850857069,-0.0005092731925,0.0003347667912,-0.0001745064013,-0.0007122206404,0.0001963773427,-0.0005158432977,-0.0005606463166,0.0001937126428,-0.0003669336738,-0.0006136580323,0.0002456264442,-0.000368031588,-0.0006234688985,0.0001942127563,-0.0004292561422,-0.0009516605987,0.0004648997364,-0.0004867608623,-0.0009567563476,0.0003984358702,-0.0005583204774,-0.0007658893709,0.0002956625588,-0.0004702268121,-0.0005213707311,4.371792576e-05,-0.0004776528053,-0.0007137742009,8.893436696e-05,-0.0006248398339,-0.001413353263,3.241339107e-05,-0.001380939872,-0.001219463232,3.408852431e-05,-0.001185374707,-0.0009798358844,-5.881616344e-05,-0.001038652048,-0.0009272794597,3.591822622e-05,-0.0008913612335,-0.0005944704507,0.0001590034942,-0.0004354669565,-0.0008522692693,0.0003252071112,-0.000527062158,-0.0003170020817,0.0002451633284,-7.183875338e-05,0.0001921600932,0.000402994601,0.0005951546943,0.000136576236,0.0003691228883,0.0005056991242,-0.0004970705679,1.569818774e-05,-0.0004813723801,-0.0004703332361,-1.106102683e-05,-0.0004813942629,-0.0002319975724,2.794609297e-05,-0.0002040514794,-0.0004087791129,-0.0001435518674,-0.0005523309803,-0.001148712178,3.292225621e-05,-0.001115789921,-0.0008138106798,-4.718833222e-05,-0.000860999012,-0.001195960143,-4.62986016e-05,-0.001242258744,-0.001038986409,-6.650714627e-05,-0.001105493555,-0.002014964401,0.0004043139696,-0.001610650432,-0.001199358643,0.0001215583105,-0.001077800332,-0.0009343527074,-0.0002556193965,-0.001189972104,-0.0008091459656,0.0001076082084,-0.0007015377572
0.5,0.0001105320263,0.0004048909815,0.0005154230078,-0.0001098741261,0.0002421487883,0.0001322746622,-0.0002885947768,0.000346675229,5.808045216e-05,-0.0009254310332,0.0003062308936,-0.0006192001397,-0.0007377813968,0.0003237598375,-0.0004140215594,-0.0004632651558,0.0003443003165,-0.0001189648393,-0.0006473672437,0.0002031888791,-0.0004441783646,-0.0005088995476,0.000200267824,-0.0003086317236,-0.0005472539366,0.000251745717,-0.0002955082196,-0.0005858031151,0.000196240147,-0.0003895629681,-0.0009096114352,0.0004785678061,-0.0004310436291,-0.0009085518449,0.0004101248832,-0.0004984269617,-0.0007352962581,0.0003047658716,-0.0004305303865,-0.0004832231336,4.279620816e-05,-0.0004404269255,-0.0006865533662,8.86680156e-05,-0.0005978853506,-0.001384401972,3.479576377e-05,-0.001349606208,-0.001175275933,4.022889587e-05,-0.001135047037,-0.0009459685788,-5.766180705e-05,-0.001003630386,-0.0008806719847,4.090561649e-05,-0.0008397663682,-0.0005448331382,0.0001646450874,-0.0003801880508,-0.0008089113288,0.0003385982609,-0.0004703130679,-0.0002736553747,0.0002547765366,-1.887883808e-05,0.0002609806837,0.0004149860596,0.0006759667433,0.0002052453648,0.0003747263739,0.0005799717387,-0.0004587003027,1.539982491e-05,-0.0004433004777,-0.0004524732872,-1.743753304e-05,-0.0004699108203,-0.0001943133472,4.162085084e-05,-0.0001526924963,-0.0003908409245,-0.0001468372217,-0.0005376781462,-0.001107331831,3.072023682e-05,-0.001076611594,-0.0007802573304,-5.005669177e-05,-0.0008303140222,-0.001144342185,-4.796868523e-05,-0.00119231087,-0.0009777193469,-7.087364165e-05,-0.001048592989,-0.001959114858,0.0003807402934,-0.001578374564,-0.001119398887,9.835357886e-05,-0.001021045308,-0.0009558745496,-0.0001969538727,-0.001152828422,-0.0007517146443,0.0001113600559,-0.0006403545884
0.6,0.0001530661695,0.0004060800597,0.0005591462292,-4.563931802e-05,0.0002485031119,0.0002028637939,-0.0002400061531,0.0003494160633,0.0001094099103,-0.0008694277389,0.0003177295936,-0.0005516981453,-0.0006698759293,0.0003274136769,-0.0003424622524,-0.0004172723386,0.0003534121462,-6.386019239e-05,-0.0005804133754,0.0002096583895,-0.0003707549859,-0.0004555738806,0.0002065801,-0.0002489937807,-0.0004780776745,0.0002577715831,-0.0002203060914,-0.0005463243047,0.0001979376963,-0.0003483866085,-0.0008656330173,0.0004913638885,-0.0003742691289,-0.0008595546228,0.0004211497552,-0.0004384048677,-0.0007010321895,0.0003128988041,-0.0003881333854,-0.0004443062289,4.155644306e-05,-0.0004027497858,-0.0006566939357,8.801895372e-05,-0.000568674982,-0.001351674472,3.671267879e-05,-0.001314961793,-0.001126847416,4.666222347e-05,-0.001080185193,-0.0009085356563,-5.64835033e-05,-0.0009650191596,-0.0008297662996,4.58238481e-05,-0.0007839424515,-0.0004939531265,0.0001698652498,-0.0003240878766,-0.0007646426506,0.0003515883668,-0.0004130542837,-0.000229886526,0.0002641216135,3.423508756e-05,0.000330225679,0.0004268999702,0.0007571256492,0.0002743142207,0.0003795703984,0.0006538846191,-0.0004195011714,1.492600769e-05,-0.0004045751637,-0.0004334886525,-2.403132226e-05,-0.0004575199747,-0.0001536113007,5.448658656e-05,-9.912471415e-05,-0.0003703707086,-0.0001506699126,-0.0005210406213,-0.001061594335,2.8593721e-05,-0.001033000614,-0.0007433764206,-5.294074869e-05,-0.0007963171693,-0.001087226312,-4.946309206e-05,-0.001136689404,-0.0009106908617,-7.528806629e-05,-0.0009859789279,-0.001893822807,0.0003566530123,-0.001537169795,-0.001030333092,7.520741695e-05,-0.0009551256747,-0.0009727394024,-0.0001352254898,-0.001107964892,-0.0006864161955,0.0001148145609,-0.0005716016347
0.7,0.0001918752571,0.0004049233672,0.0005967986242,1.549963856e-05,0.0002540591623,0.0002695588009,-0.0001940808222,0.0003508213409,0.0001567405187,-0.0008140801101,0.0003296960625,-0.0004843840475,-0.0006011471727,0.0003303994655,-0.0002707477072,-0.0003715643747,0.0003620741486,-9.490226079e-06,-0.0005117218636,0.0002157707693,-0.0002959510944,-0.0004009350799,0.000212631182,-0.0001883038979,-0.0004065445183,0.0002636762202,-0.0001428682981,-0.0005052806325,0.0001993004813,-0.0003059801513,-0.0008199947069,0.0005032436849,-0.000316751022,-0.0008099491684,0.000431456572,-0.0003784925964,-0.0006632440302,0.0003200858657,-0.0003431581645,-0.0004048332564,4.001934786e-05,-0.0003648139085,-0.0006243461874,8.702493853e-05,-0.0005373212489,-0.001315322536,3.816313406e-05,-0.001277159402,-0.001074378225,5.336752334e-05,-0.001021010702,-0.00086768475,-5.530257285e-05,-0.0009229873229,-0.0007747801889,5.067018402e-05,-0.0007241100049,-0.0004421018773,0.0001746528247,-0.0002674490526,-0.0007196339451,0.0003641656027,-0.0003554683423,-0.000185886964,0.0002731832091,8.729624512e-05,0.0003997542148,0.0004387539589,0.0008385081737,0.0003436240609,0.0003836985086,0.0007273225695,-0.0003795868728,1.429453899e-05,-0.0003652923338,-0.0004134151907,-3.079536186e-05,-0.0004442105526,-0.0001098992925,6.644353034e-05,-4.345576215e-05,-0.0003473456705,-0.0001550273161,-0.0005023729865,-0.001011637239,2.658194665e-05,-0.0009850552927,-0.0007033290756,-5.580771163e-05,-0.0007591367872,-0.001024807652,-5.076169427e-05,-0.001075569346,-0.0008381781931,-7.971812222e-05,-0.0009178963153,-0.001819279561,0.0003323407765,-0.001486938785,-0.0009324435018,5.238906374e-05,-0.000880054438,-0.0009841483775,-7.127464074e-05,-0.001055423018,-0.0006133742184,0.0001180053674,-0.000495368851
0.8,0.0002268060276,0.0004014169752,0.0006282230028,7.318994468e-05,0.0002587911222,0.0003319810669,-0.0001510650939,0.0003508922645,0.0001998271706,-0.0007598138769,0.0003421206305,-0.0004176932464,-0.0005319488383,0.0003327322986,-0.0001992165397,-0.0003264159135,0.0003702590166,4.384310311e-05,-0.0004416643398,0.0002215118267,-0.000220152513,-0.000345258114,0.0002184017299,-0.000126856384,-0.0003330837687,0.0002694312832,-6.365248554e-05,-0.0004629294063,0.0002003254053,-0.0002626040009,-0.0007729681898,0.0005141686956,-0.0002587994942,-0.0007599260987,0.0004409909086,-0.0003189351901,-0.0006221072375,0.0003263590394,-0.0002957481981,-0.0003650259317,3.820406083e-05,-0.0003268218709,-0.0005896782168,8.572624233e-05,-0.0005039519745,-0.001275523453,3.915338995e-05,-0.001236370063,-0.001018091786,6.032170738e-05,-0.0009577700791,-0.0008235818223,-5.414167565e-05,-0.0008777234979,-0.000715955175,5.544420963e-05,-0.0006605109654,-0.0003895548396,0.0001789996397,-0.0002105551999,-0.000674053152,0.0003763187029,-0.000297734449,-0.0001418511147,0.0002819477312,0.0001400966165,0.0004694281142,0.00045056699,0.0009199951042,0.0004130282371,0.0003871656122,0.0008001938493,-0.0003390800836,1.352198673e-05,-0.0003255580969,-0.0003922932382,-3.768121511e-05,-0.0004299744533,-6.322465378e-05,7.740475171e-05,1.418009793e-05,-0.0003217559948,-0.0001598822497,-0.0004816382445,-0.0009576166638,2.472274658e-05,-0.0009328939173,-0.0006602924329,-5.862326607e-05,-0.0007189156989,-0.000957311517,-5.18482008e-05,-0.001009159718,-0.0007604928572,-8.412611133e-05,-0.0008446189686,-0.001735735548,0.0003080954386,-0.001427640109,-0.0008260691496,3.016799873e-05,-0.0007959011509,-0.0009893147821,-5.961750042e-06,-0.0009952765321,-0.0005327768388,0.0001209815319,-0.0004117953069
0.9,0.0002576985978,0.0003955569517,0.0006532555496,0.0001270745312,0.0002626734373,0.0003897479685,-0.0001112133771,0.0003496274308,0.0002384140537,-0.0007070531406,0.0003549854691,-0.0003520676714,-0.0004626338576,0.0003344317754,-0.0001282020822,-0.0002821023522,0.0003779405365,9.583818431e-05,-0.0003706162348,0.00022686827,-0.0001437479648,-0.0002888232664,0.0002238715226,-6.495174384e-05,-0.0002581332394,0.0002750083417,1.687510221e-05,-0.0004195334562,0.0002010112892,-0.000218522167,-0.0007248237951,0.000524106703,-0.0002007170921,-0.0007096773866,0.0004496995427,-0.0002599778439,-0.0005778221348,0.0003317559472,-0.0002460661876,-0.0003251101545,3.612826594e-05,-0.0002889818886,-0.0005528734578,8.416568918e-05,-0.0004687077686,-0.001232476604,3.969656114e-05,-0.001192780043,-0.0009582302108,6.750023987e-05,-0.0008907299709,-0.000776408655,-5.302367669e-05,-0.0008294323316,-0.0006535523174,6.014761988e-05,-0.0005934046975,-0.0003365877346,0.0001829008757,-0.0001536868589,-0.0006280626517,0.0003880370978,-0.0002400255539,-9.797386818e-05,0.0002904033521,0.0001924294839,0.0005391226545,0.0004623609019,0.001001483556,0.00048240304,0.0003900385196,0.0008724415595,-0.0002981105463,1.262416959e-05,-0.0002854863767,-0.0003701666897,-4.46391732e-05,-0.0004148058629,-1.36728957e-05,8.729906834e-05,7.362617264e-05,-0.0002936037817,-0.0001652029774,-0.000458806759,-0.0008997041325,2.305197116e-05,-0.0008766521613,-0.0006144567887,-6.135207054e-05,-0.0006758088592,-0.0008849890325,-5.2709928e-05,-0.0009376989605,-0.000677974119,-8.846930331e-05,-0.0007664434223,-0.001643488589,0.0002842032855,-0.001359285304,-0.0007116028496,8.812036461e-06,-0.0007027908131,-0.0009874829712,5.985459857e-05,-0.0009276283727,-0.0004448711741,0.0001238026189,-0.0003210685553
1.0,0.0002843977969,0.0003873426546,0.0006717404515,0.0001768033931,0.0002656819039,0.000442485297,-7.477828248e-05,0.0003470255234,0.0002722472409,-0.0006562153967,0.0003682644571,-0.0002879509395,-0.0003935511003,0.0003355217413,-5.802935893e-05,-0.0002388960029,0.0003850939377,0.0001461979348,-0.0002989527383,0.0002318276969,-6.712504133e-05,-0.0002319130364,0.0002290196321,-2.89340433e-06,-0.0001821348272,0.0002803792278,9.824440053e-05,-0.0003753581736,0.0002013589744,-0.0001739991992,-0.0006758277026,0.0005330322208,-0.0001427954819,-0.0006593926821,0.0004575319176,-0.0002018607645,-0.0005306108477,0.0003363186848,-0.0001942921629,-0.0002853121979,3.380851977e-05,-0.0002515036781,-0.0005141281896,8.238860725e-05,-0.0004317395824,-0.001186400542,3.981195413e-05,-0.001146588588,-0.0008950507269,7.487766669e-05,-0.0008201730602,-0.000726360867,-5.197061888e-05,-0.0007783314858,-0.0005878484389,6.478370939e-05,-0.0005230647295,-0.0002834736906,0.000186355325,-9.71183656e-05,-0.0005818169767,0.0003993111102,-0.0001825058665,-5.444800098e-05,0.0002985399286,0.0002440919276,0.0006087379043,0.0004741622667,0.001082900171,0.0005516589428,0.0003923965348,0.0009440554776,-0.0002568125737,1.16166625e-05,-0.0002451959112,-0.0003470820616,-5.161849779e-05,-0.0003987005594,3.863423491e-05,9.607359719e-05,0.0001347078321,-0.0002629024605,-0.0001709530645,-0.000433855525,-0.000838085042,2.160283565e-05,-0.0008164822063,-0.0005660237729,-6.395846639e-05,-0.0006299822393,-0.0008081139552,-5.333741857e-05,-0.0008614513738,-0.0005909841523,-9.270052632e-05,-0.0006836846786,-0.001542874132,0.0002609377134,-0.001281936419,-0.0005894878802,-1.141613025e-05,-0.0006009040105,-0.000977944919,0.0001253355426,-0.0008526093764,-0.0003499578952,0.0001265339071,-0.0002234239881
1.1,0.0003067651418,0.0003767808309,0.0006835459727,0.0002220446741,0.0002677948534,0.0004898395275,-4.199972945e-05,0.0003430887576,0.0003010890281,-0.000607707426,0.0003819233981,-0.0002257840279,-0.0003250434282,0.000336030051,1.098662278e-05,-0.0001970630679,0.0003916963614,0.0001946332935,-0.0002270463286,0.0002363786135,9.332284949e-06,-0.0001748101483,0.0002338246188,5.90144705e-05,-0.0001055315289,0.0002855162829,0.000179984754,-0.0003306694441,0.000201371407,-0.0001292980371,-0.0006262401993,0.0005409268856,-8.531331367e-05,-0.0006092575212,0.0004644416436,-0.0001448158776,-0.0004807147855,0.0003400931941,-0.0001406215914,-0.0002458556066,3.126075174e-05,-0.0002145948549,-0.0004736491143,8.044255036e-05,-0.000393206564,-0.001137531187,3.952425211e-05,-0.001098006935,-0.0008288233435,8.242795386e-05,-0.0007463953896,-0.0006736469872,-5.10029321e-05,-0.0007246499193,-0.0005191334643,6.935658165e-05,-0.0004497768827,-0.0002304813011,0.0001893655552,-4.111574593e-05,-0.0005354610869,0.0004101321536,-0.0001253289333,-1.146161498e-05,0.0003063488202,0.0002948872052,0.0006782107539,0.000486004593,0.001164215347,0.0006207522229,0.0003943321703,0.001015084393,-0.000215322181,1.051517199e-05,-0.000204807009,-0.0003230876631,-5.856775983e-05,-0.0003816554229,9.354074107e-05,0.0001036958698,0.0001972366109,-0.0002296766401,-0.0001770913287,-0.0004067679688,-0.000772958645,2.040527279e-05,-0.0007525533722,-0.0005152054895,-6.640736536e-05,-0.0005816128548,-0.0007269808093,-5.372403194e-05,-0.0007807048413,-0.0004999049371,-9.676935813e-05,-0.0005966742952,-0.001434259915,0.000238555333,-0.001195704582,-0.0004602149437,-3.026389767e-05,-0.0004904788414,-0.0009600556306,0.0001896756985,-0.0007703799321,-0.000248387287,0.0001292422506,-0.0001191450364
1.2,0.0003246910366,0.0003638902771,0.0006885813138,0.0002624952887,0.0002689945164,0.0005314898051,-1.309333783e-05,0.0003378268308,0.000324733493,-0.0005619219247,0.000395920554,-0.0001660013706,-0.0002574467813,0.0003359884119,7.854163068e-05,-0.0001568613227,0.0003977273866,0.0002408660639,-0.0001552656783,0.0002405104708,8.524479249e-05,-0.0001177964029,0.0002382647454,0.0001204683425,-2.876553027e-05,0.0002903925285,0.0002616269982,-0.0002857322388,0.0002010536714,-8.467856743e-05,-0.0005763146252,0.0005477797611,-2.853486416e-05,-0.000559453,0.0004703881406,-8.906485942e-05,-0.0004283923915,0.0003431292374,-8.526315412e-05,-0.0002069586418,2.850087806e-05,-0.0001784577638,-0.0004316509322,7.837674669e-05,-0.0003532741855,-0.001086120839,3.88626574e-05,-0.001047258182,-0.0007598295822,9.012461753e-05,-0.0006697049647,-0.0006184885655,-5.013876891e-05,-0.0006686273344,-0.0004477088654,7.387025278e-05,-0.0003738386126,-0.0001778731769,0.0001919381106,1.406493377e-05,-0.0004891287753,0.0004204930013,-6.863577402e-05,3.080447511e-05,0.0003138227204,0.0003446271955,0.0007475276835,0.0004979307833,0.001245458467,0.0006896967609,0.000395951937,0.001085648698,-0.0001737739344,9.335873109e-06,-0.0001644380613,-0.0002982327631,-6.543522459e-05,-0.0003636679877,0.000150858219,0.0001101555485,0.0002610137675,-0.0001939620701,-0.0001835721431,-0.0003775342132,-0.0007045386481,1.948538784e-05,-0.0006850532603,-0.0004622239835,-6.866525348e-05,-0.000530889237,-0.0006419039197,-5.386547128e-05,-0.0006957693909,-0.0004051359639,-0.0001006240227,-0.0005057599866,-0.001318045048,0.0002172955738,-0.001100749474,-0.0003243194793,-4.749440533e-05,-0.0003718138846,-0.0009332482067,0.0002521133291,-0.0006811348775,-0.0001405570043,0.0001319925322,-8.56447206e-06
1.3,0.0003381065519,0.0003487063968,0.0006868129487,0.0002978909327,0.000269268483,0.0005671594157,1.176123661e-05,0.0003312607734,0.00034302201,-0.0005192342598,0.0004102073963,-0.0001090268635,-0.0001910894384,0.0003354323179,0.0001443428795,-0.0001185380361,0.0004031695293,0.0002846314931,-8.397501969e-05,0.000244213714,0.0001602386943,-6.115166836e-05,0.0002423182281,0.0001811665598,4.772354904e-05,0.0002949818432,0.0003427053923,-0.0002408093141,0.0002004129868,-4.039632723e-05,-0.0005262963619,0.0005535875499,2.729118793e-05,-0.0005101557512,0.0004753383098,-3.481744138e-05,-0.0003739169396,0.000345481096,-2.843584358e-05,-0.0001688319244,2.554545876e-05,-0.0001432864657,-0.0003883536969,7.624132286e-05,-0.0003121123741,-0.001032437063,3.786006665e-05,-0.0009945769968,-0.0006883614386,9.794060572e-05,-0.0005904208328,-0.0005611206617,-4.939334415e-05,-0.0006105140059,-0.0003738865335,7.832779352e-05,-0.00029555874,-0.0001259042795,0.0001940838463,6.817956678e-05,-0.0004429405124,0.0004303882171,-1.255229532e-05,7.217956786e-05,0.0003209556497,0.0003931352175,0.0008167376076,0.0005099955224,0.00132673313,0.0007585750904,0.0003973769525,0.001155952043,-0.0001322975293,8.095854187e-06,-0.0001242016751,-0.0002725665271,-7.216923694e-05,-0.000344735764,0.0002103681584,0.0001154656405,0.0003258337988,-0.0001558053792,-0.0001903461384,-0.0003461515177,-0.0006330531345,1.886501059e-05,-0.0006141881239,-0.0004073101938,-7.070122378e-05,-0.0004780114175,-0.0005532164782,-5.375912612e-05,-0.0006069756043,-0.0003070914395,-0.0001042137165,-0.000411305156,-0.001194661107,0.0001973817573,-0.0009972793496,-0.0001823792084,-6.289145787e-05,-0.0002452706663,-0.0008970483713,0.0003119375767,-0.0005851107946,-2.691075922e-05,0.0001348445356,0.0001079337764
1.4,0.0003469939641,0.000331284844,0.0006782788081,0.0003280153728,0.0002686110386,0.0005966264114,3.243111557e-05,0.0003234260312,0.0003558571468,-0.0004799985883,0.0004247294869,-5.526910138e-05,-0.000126290412,0.0003344010418,0.0002081106298,-8.232755439e-05,0.0004080086874,0.000325681133,-1.353281047e-05,0.0002474798924,0.000233947082,-5.152223791e-06,0.0002459635943,0.0002408113705,0.0001235012449,0.0002992592179,0.0004227604628,-0.000196159445,0.0001994586988,3.299253756e-06,-0.0004764212469,0.0005583547177,8.193347087e-05,-0.0004615372312,0.0004792682305,1.773099932e-05,-0.0003175737998,0.0003472083153,2.963451551e-05,-0.0001316759075,2.241230982e-05,-0.0001092635977,-0.0003439797227,7.408641315e-05,-0.0002698933095,-0.0009767604937,3.655233375e-05,-0.0009402081599,-0.0006147195156,0.0001058479528,-0.0005088715628,-0.0005017916448,-4.877832698e-05,-0.0005505699718,-0.0002979870513,8.273052877e-05,-0.0002152565226,-7.481938281e-05,0.0001958183018,0.000120998919,-0.0003970002087,0.0004398147051,4.281449639e-05,0.0001125063193,0.0003277431047,0.0004402494239,0.0008859632711,0.0005222670922,0.001408230363,0.0008275470568,0.0003987429859,0.001226290043,-9.101411435e-05,6.813679285e-06,-8.420043507e-05,-0.000246136535,-7.871859958e-05,-0.0003248551346,0.0002718256159,0.0001196629577,0.0003914885736,-0.0001152631998,-0.0001973612043,-0.0003126244042,-0.0005587428193,1.856125238e-05,-0.000540181567,-0.0003507018731,-7.248792813e-05,-0.0004231898012,-0.0004612685791,-5.340325849e-05,-0.0005146718376,-0.000206195939,-0.0001074909789,-0.0003136869179,-0.001064571906,0.0001790204724,-0.0008855514336,-3.501154608e-05,-7.62626738e-05,-0.0001112742199,-0.0008510873335,0.000368493825,-0.0004825935084,9.206293217e-05,0.0001378502785,0.0002299132107
1.5,0.000351395512,0.0003117038627,0.0006630993747,0.0003527089332,0.0002670242047,0.0006197331379,4.8839378e-05,0.0003143744633,0.0003632138413,-0.0004445429947,0.0004394274637,-5.115531017e-06,-6.335637694e-05,0.0003329376232,0.0002695812462,-4.844827485e-05,0.0004122345509,0.000363786276,5.571094525e-05,0.0002503018889,0.0003060128342,4.993186681e-05,0.0002491801928,0.0002991120596,0.0001981420546,0.0003032010518,0.0005013431064,-0.0001520350079,0.0001982022523,4.616724439e-05,-0.0004269132702,0.0005620934961,0.0001351802259,-0.0004137620451,0.0004821648876,6.840284247e-05,-0.0002596561865,0.000348375038,8.871885151e-05,-9.567805206e-05,1.912096174e-05,-7.655709032e-05,-0.0002987500038,7.196125791e-05,-0.0002267887459,-0.000919381135,3.497767787e-05,-0.0008844034571,-0.0005392098271,0.0001138173757,-0.0004253924513,-0.0004407615183,-4.830142299e-05,-0.0004890629413,-0.0002203366677,8.707731755e-05,-0.0001332593502,-2.484960619e-05,0.0001971618873,0.0001723122812,-0.0003513910742,0.0004487722307,9.738115649e-05,0.0001516443898,0.0003341821973,0.0004858265871,0.0009554090545,0.0005348281402,0.001490237195,0.000896854114,0.0004001996268,0.001297053741,-5.003254756e-05,5.5099806e-06,-4.452256696e-05,-0.0002189869217,-8.503295428e-05,-0.000304019876,0.0003349646293,0.0001228076561,0.0004577722855,-7.240042419e-05,-0.0002045636496,-0.0002769640738,-0.0004818577269,1.858601792e-05,-0.0004632717089,-0.0002926407073,-7.400234732e-05,-0.0003666430546,-0.0003664236806,-5.279625574e-05,-0.0004192199364,-0.0001028784613,-0.0001104138697,-0.000213292331,-0.0009282704238,0.000162398187,-0.0007658722368,0.0001171296246,-8.744106672e-05,2.968855789e-05,-0.0007951115531,0.0004211882166,-0.0003739233365,0.0002158321784,0.0001410522291,0.0003568844076
1.6,0.0003514199433,0.0002900654664,0.0006414854096,0.0003718757014,0.0002645184396,0.000636394141,6.097188062e-05,0.0003041753091,0.0003651471897,-0.0004131640583,0.0004542381575,4.107409917e-05,-2.577496944e-06,0.0003310887685,0.0003285112716,-1.709928164e-05,0.0004158409613,0.0003987416796,0.000123418368,0.00025267426,0.000376092628,0.0001038399086,0.0002519487797,0.0003557886883,0.0002712338995,0.0003067853646,0.0005780192641,-0.0001086793291,0.0001966570838,8.797775473e-05,-0.0003779820921,0.000564823697,0.0001868416049,-0.0003669856848,0.0004840274615,0.0001170417767,-0.0002004589299,0.0003490470583,0.0001485881283,-6.101006962e-05,1.569288732e-05,-4.53171823e-05,-0.0002528803814,6.991330813e-05,-0.0001829670733,-0.0008605936443,3.317623076e-05,-0.0008274174135,-0.0004621397445,0.0001218180239,-0.0003403217206,-0.0003782989009,-4.796620396e-05,-0.0004262651049,-0.0001412632298,9.136405756e-05,-4.989917224e-05,2.379118255e-05,0.0001981397377,0.0002219309203,-0.0003061716089,0.0004572638204,0.0001510922115,0.0001894740304,0.000340271661,0.0005297456913,0.001025363067,0.0005477751409,0.001573138208,0.0009668175869,0.0004019084584,0.001368726045,-9.446088321e-06,4.208003031e-06,-5.23808529e-06,-0.0001911565826,-9.106313966e-05,-0.0002822197222,0.0003995047302,0.0001249819095,0.0005244866397,-2.728795793e-05,-0.0002118992894,-0.0002391872474,-0.0004026534898,1.894555096e-05,-0.0003837079389,-0.0002333694852,-7.522632413e-05,-0.0003085958093,-0.0002690540817,-5.193615726e-05,-0.000320990239,2.433921306e-06,-0.0001129479011,-0.0001105139798,-0.0007862747999,0.0001476781375,-0.0006385966624,0.0002733578151,-9.628614216e-05,0.0001770716729,-0.000728988329,0.0004694911366,-0.0002594971924,0.0003438228761,0.0001444829466,0.0004883058227
1.7,0.0003472461292,0.0002664957265,0.0006137418556,0.0003854884561,0.0002611129924,0.0006466014485,6.88809424e-05,0.0002929152714,0.0003617962138,-0.0003861217175,0.0004690958554,8.297413787e-05,5.577677847e-05,0.0003289046012,0.0003846813796,1.154274709e-05,0.000418826164,0.0004303689111,0.000189267371,0.0002545936123,0.0004438609833,0.0001563234084,0.0002542520212,0.0004105754296,0.0003423822319,0.0003099918429,0.0006523740748,-6.632451489e-05,0.0001948383795,0.0001285138646,-0.0003298212084,0.0005665723088,0.0002367511004,-0.0003213524491,0.0004848674991,0.00016351505,-0.0001402713569,0.0003492874595,0.0002090161026,-2.782590872e-05,1.215151892e-05,-1.567438981e-05,-0.0002065778905,6.798732302e-05,-0.0001385905674,-0.0008006926425,3.118962367e-05,-0.0007695030188,-0.0003838141715,0.000129817432,-0.0002539967396,-0.0003146775434,-4.777217317e-05,-0.0003624497166,-6.109213337e-05,9.55835669e-05,3.449143353e-05,7.090897398e-05,0.0001987813025,0.0002696902765,-0.0002613730246,0.0004652960752,0.0002039230506,0.00022589888,0.0003460117836,0.0005719106636,0.00109619231,0.0005612165329,0.001657408842,0.001037830192,0.0004040402933,0.001441870485,3.066981337e-05,2.934022799e-06,3.360383616e-05,-0.0001626781385,-9.676148268e-05,-0.0002594396211,0.0004651572782,0.0001262879073,0.0005914451856,1.999914259e-05,-0.0002193141925,-0.0001993150499,-0.0003213886461,1.964015715e-05,-0.0003017484889,-0.0001731301327,-7.614689527e-05,-0.000249277028,-0.0001695367464,-5.082046321e-05,-0.0002203572096,0.0001093211678,-0.0001150677279,-5.746560135e-06,-0.000639126917,0.0001350018682,-0.0005041250488,0.0004329576329,-0.0001026852223,0.0003302724106,-0.0006527071689,0.0005129388019,-0.000139768367,0.0004754192738,0.0001481660292,0.0006235853029
1.8,0.0003391229839,0.0002411442508,0.0005802672347,0.00039359043,0.0002568358872,0.0006504263172,7.26853943e-05,0.00028069779,0.0003533831843,-0.0003636351236,0.0004839336668,0.0001202985432,0.000111461011,0.0003264382622,0.0004378992732,3.732584605e-05,0.000421192934,0.00045851878,0.0002529545096,0.0002560589506,0.0005090134602,0.0002071479666,0.0002560748386,0.0004632228052,0.0004112131298,0.0003128017671,0.0007240148969,-2.519023034e-05,0.0001927627235,0.0001675724932,-0.0002826072481,0.000567372926,0.0002847656779,-0.0002769945242,0.0004847079708,0.0002077134466,-7.937147851e-05,0.0003491528039,0.0002697813254,3.739023805e-06,8.522150655e-06,1.226117446e-05,-0.0001600377957,6.622457894e-05,-9.381321671e-05,-0.0007399690653,2.906053396e-05,-0.0007109085313,-0.0003045328752,0.0001377815225,-0.0001667513528,-0.000250173245,-4.771509647e-05,-0.0002978883415,1.985669561e-05,9.972579768e-05,0.0001195824933,0.0001163306118,0.0001991198201,0.0003154504319,-0.0002169988682,0.0004728794292,0.0002558805609,0.0002608474289,0.0003514043941,0.0006122518231,0.001168331079,0.0005752696809,0.00174360076,0.00111034136,0.0004067716253,0.001517112985,7.025815822e-05,1.717506001e-06,7.197566422e-05,-0.0001335781653,-0.0001020820523,-0.0002356602176,0.0005316306373,0.0001268452888,0.0006584759261,6.938249111e-05,-0.0002267550578,-0.0001573725667,-0.0002383235391,2.066416423e-05,-0.0002176593749,-0.0001121628553,-7.675653817e-05,-0.0001889193935,-6.82505264e-05,-4.944611815e-05,-0.0001176966445,0.0002173730023,-0.0001167584819,0.0001006145205,-0.0004873963121,0.000124497135,-0.0003628991771,0.0005951876622,-0.0001065549358,0.0004886327264,-0.000566378392,0.0005511331784,-1.52452136e-05,0.0006099641844,0.0001521174781,0.0007620816626
1.9,0.0003273655313,0.0002141828276,0.000541548359,0.0003962937882,0.0002517235393,0.0006480173275,7.256713104e-05,0.0002676415866,0.0003402087176,-0.0003458796461,0.0004986849006,0.0001528052545,0.0001642559649,0.000323745421,0.0004880013859,6.012411145e-05,0.0004229486483,0.0004830727597,0.0003141968537,0.0002570720002,0.0005712688538,0.0002560941505,0.0002574046543,0.0005134988048,0.0004773754259,0.0003151979417,0.0007925733676,1.451660939e-05,0.0001904477096,0.000204964319,-0.000236500295,0.0005672650951,0.0003307648001,-0.0002340328751,0.0004835819896,0.0002495491146,-1.802306877e-05,0.0003486912674,0.0003306681987,3.356741527e-05,4.831792295e-06,3.839920756e-05,-0.0001134417104,6.466243191e-05,-4.877927852e-05,-0.0006787080036,2.683220947e-05,-0.0006518757942,-0.0002245893025,0.0001456745226,-7.891477985e-05,-0.0001850615347,-4.778764732e-05,-0.000232849182,0.0001012704356,0.0001037781597,0.0002050485952,0.0001599033702,0.0001991917066,0.0003590950768,-0.0001730268627,0.0004800282669,0.0003070014042,0.0002942730402,0.0003564529028,0.000650725943,0.001242263944,0.0005900568963,0.00183232084,0.001184837862,0.0004102804817,0.001595118344,0.0001092793452,5.908429419e-07,0.0001098701882,-0.0001038787109,-0.0001069809827,-0.0002108596936,0.0005986339938,0.0001267879611,0.000725421955,0.0001207800654,-0.0002341694386,-0.0001133893732,-0.0001537204884,2.200605673e-05,-0.0001317144317,-5.070606846e-05,-7.705340344e-05,-0.0001277594719,3.442511175e-05,-4.780964532e-05,-1.338453357e-05,0.0003261891072,-0.0001180165233,0.0002081725839,-0.0003316895286,0.0001162899317,-0.0002153995969,0.0007592829815,-0.0001078428985,0.000651440083,-0.0004702310537,0.0005837412593,0.0001135102056,0.0007467593548,0.0001563466169,0.0009031059717
2.0,0.0003123478657,0.0001858032951,0.0004981511609,0.0003937756122,0.0002458201101,0.0006395957223,6.876497424e-05,0.0002538786302,0.0003226436045,-0.0003329847459,0.0005132843562,0.0001802996103,0.0002139701996,0.0003208837809,0.0005348539805,7.98383051e-05,0.0004241053894,0.0005039436945,0.0003727333236,0.0002576375337,0.0006303708573,0.0003029577839,0.0002582316392,0.0005611894231,0.0005405424728,0.000317164715,0.0008577071879,5.260171649e-05,0.0001879115564,0.0002405132729,-0.0001916446785,0.000566293623,0.0003746489445,-0.0001925794422,0.0004815319407,0.0002889524985,4.352440881e-05,0.0003479428355,0.0003914672443,6.155886742e-05,1.108964404e-06,6.266783183e-05,-6.695686599e-05,6.33343853e-05,-3.622480685e-06,-0.0006171877234,2.454799175e-05,-0.0005926397317,-0.0001442705573,0.0001534588739,9.188316552e-06,-0.0001196160015,-4.79802918e-05,-0.0001675962933,0.0001828439153,0.0001077258013,0.0002905697166,0.0002014938687,0.0001990357903,0.000400529659,-0.0001294124638,0.0004867607636,0.0003573482997,0.0003261527863,0.0003611622839,0.0006873150702,0.001318505295,0.0006057008113,0.001924206106,0.001261821744,0.0004147419178,0.001676563662,0.0001477086259,-4.114473014e-07,0.0001472971786,-7.359971645e-05,-0.0001114169382,-0.0001850166547,0.0006658799286,0.0001262603569,0.0007921402855,0.0001741050545,-0.0002415059832,-6.740092871e-05,-6.784425509e-05,2.364870499e-05,-4.41955501e-05,1.100351491e-05,-7.704145107e-05,-6.603793616e-05,0.0001381106513,-4.590750855e-05,9.220314274e-05,0.000435377657,-0.000118849517,0.0003165281401,-0.0001726610894,0.0001105156126,-6.214547683e-05,0.0009244583447,-0.0001065299198,0.000817928425,-0.0003646114488,0.0006104940574,0.0002458826086,0.0008850666409,0.0001608561993,0.00104592284
2.1,0.0002944944842,0.0001562148295,0.0004507093137,0.0003862728152,0.0002391767916,0.0006254496068,6.156711723e-05,0.0002395516904,0.0003011188076,-0.0003250322006,0.0005276694257,0.0002026372251,0.0002604418976,0.0003179126421,0.0005783545397,9.639622991e-05,0.0004246800813,0.0005210763112,0.0004283262715,0.0002577637005,0.0006860899719,0.0003475504048,0.0002585489947,0.0006060993995,0.0006004143414,0.0003186880993,0.0009191024408,8.888356558e-05,0.0001851727216,0.0002740562872,-0.0001481695053,0.0005645078426,0.0004163383373,-0.0001527390339,0.0004786092797,0.0003258702458,0.0001050341188,0.0003469409532,0.000451975072,8.762870891e-05,-2.616599259e-06,8.501210965e-05,-2.073617049e-05,6.227057923e-05,4.153440874e-05,-0.00055567888,2.225077121e-05,-0.0005334281088,-6.385771156e-05,0.0001610953595,9.723764796e-05,-5.410677997e-05,-4.828218957e-05,-0.0001023889695,0.0002642798181,0.0001115518866,0.0003758317047,0.0002409871756,0.000198692402,0.0004396795776,-8.609339755e-05,0.000493098414,0.0004070050165,0.0003564854676,0.0003655389451,0.0007220244128,0.001397577465,0.0006223194503,0.002019896916,0.001341787553,0.00042032342,0.001762110973,0.0001855325158,-1.253990354e-06,0.0001842785254,-4.276177482e-05,-0.0001153516699,-0.0001581134447,0.0007330857892,0.0001254135517,0.0008584993409,0.000229264313,-0.0002487147002,-1.945038719e-05,1.903827305e-05,2.556967287e-05,4.460794592e-05,7.273131605e-05,-7.673033662e-05,-3.999020578e-06,0.0002424275249,-4.373673861e-05,0.0001986907863,0.0005445538538,-0.0001192760009,0.0004252778528,-1.102011239e-05,0.0001073240708,9.630395838e-05,0.001089912689,-0.000102632544,0.000987280145,-0.0002499823253,0.0006311854827,0.0003812031575,0.001024111115,0.0001656415807,0.001189752695
2.2,0.0002742715645,0.0001256408832,0.0003999124476,0.0003740773679,0.0002318511504,0.0006059285184,5.13033727e-05,0.0002248116006,0.0002761149733,-0.000322054216,0.000541780913,0.0002197266969,0.0003035415364,0.0003148925161,0.0006184340525,0.0001097534002,0.0004246945875,0.0005344479876,0.0004807639819,0.0002574623159,0.0007382262979,0.0003897005414,0.0002583532177,0.0006480537591,0.00065672094,0.0003197559318,0.0009764768718,0.0001231942815,0.000182249513,0.0003054437945,-0.0001061884414,0.0005619608313,0.0004557723899,-0.0001146095013,0.0004748747965,0.0003602652953,0.0001662795763,0.0003457149317,0.000511994508,0.0001117073143,-6.314333567e-06,0.0001053929807,2.508149922e-05,6.149844912e-05,8.657994834e-05,-0.0004944428149,1.998227312e-05,-0.0004744605417,1.63745029e-05,0.000168543572,0.0001849180749,1.120145724e-05,-4.868189215e-05,-3.748043492e-05,0.000345289449,0.0001152379536,0.0004605274026,0.0002782865578,0.0001982024502,0.000476489008,-4.29945332e-05,0.0004990653787,0.0004560708455,0.0003852890457,0.0003695905609,0.0007548796065,0.00147998872,0.000640021299,0.002120010019,0.00142520017,0.0004271804167,0.001852380587,0.0002227447045,-1.902074445e-06,0.00022084263,-1.13887145e-05,-0.0001187505422,-0.0001301392567,0.0007999742678,0.0001244016456,0.0009243759134,0.0002861568648,-0.0002557472031,3.040966162e-05,0.0001066596205,2.774161439e-05,0.0001344012349,0.0001342461693,-7.613501518e-05,5.811115408e-05,0.0003470002453,-4.12957457e-05,0.0003057044996,0.0006533398702,-0.000119324679,0.0005340151912,0.0001524714884,0.0001068762419,0.0002593477303,0.001254835392,-9.620520332e-05,0.001158630188,-0.0001269226539,0.000645672444,0.0005187497901,0.001163087039,0.0001706890258,0.001333776065
2.3,0.0002521789448,9.431594059e-05,0.0003464948854,0.0003575322539,0.0002239064861,0.0005814387401,3.833773788e-05,0.0002098143328,0.0002481520707,-0.0003240313743,0.0005555635421,0.0002315321678,0.000343175271,0.000311884715,0.0006550599861,0.0001198941257,0.0004241757157,0.0005440698414,0.0005298641011,0.000256749074,0.0007866131751,0.0004292558108,0.0002576442756,0.0006869000864,0.0007092257767,0.0003203580089,0.001029583786,0.000155381195,0.0001791597337,0.0003345409287,-6.579888081e-05,0.0005587086107,0.0004929097299,-7.828023551e-05,0.0004703988616,0.0003921186261,0.0002270425994,0.0003442925498,0.0005713351492,0.0001337398728,-9.953251418e-06,0.0001237866214,7.037113811e-05,6.104325548e-05,0.0001314143936,-0.0004337285573,1.778215057e-05,-0.0004159464067,9.615907374e-05,0.0001757626043,0.0002719216781,7.605229265e-05,-4.916781066e-05,2.688448199e-05,0.0004255945584,0.0001187643135,0.0005443588718,0.0003133136561,0.0001976065815,0.0005109202376,-3.284044261e-08,0.0005046877981,0.0005046549577,0.0004125975239,0.0003733259485,0.0007859234724,0.001566211393,0.000658900556,0.002225111949,0.001512473548,0.0004354519814,0.001947925529,0.000259341852,-2.323111797e-06,0.0002570187402,2.049021546e-05,-0.0001215829613,-0.0001010927459,0.0008662742116,0.0001233781308,0.0009896523424,0.0003446726397,-0.0002625569118,8.211572787e-05,0.0001947538853,3.013273086e-05,0.0002248866161,0.0001953221495,-7.527520449e-05,0.0001200469451,0.0004514594295,-3.858521921e-05,0.0004128742103,0.0007613662763,-0.0001190335023,0.0006423327741,0.0003170095111,0.0001093316118,0.0004263411229,0.001418414354,-8.734140032e-05,0.001331072954,3.872145852e-06,0.0006538777875,0.0006577499334,0.001301166025,0.0001759738264,0.001477139852
2.4,0.0002287423958,6.248217289e-05,0.0002912245687,0.0003370273729,0.0002154110596,0.0005524384326,2.306096117e-05,0.0001947180228,0.000217778984,-0.0003308909138,0.0005689662494,0.0002380753356,0.0003792881327,0.0003089508511,0.0006882389839,0.0001268326063,0.0004231551277,0.0005499877339,0.0005754771857,0.0002556436663,0.000831120852,0.0004660851172,0.0002564256585,0.0007225107757,0.000757729449,0.0003204861514,0.0010782156,0.0001853084688,0.0001759204027,0.0003612288716,-2.708118203e-05,0.000554809373,0.000527728191,-4.383041557e-05,0.0004652613378,0.0004214309222,0.0002871118003,0.0003427024467,0.000629814247,0.0001536860814,-1.350233928e-05,0.0001401837421,0.0001150215854,6.092822817e-05,0.0001759498136,-0.000373769266,1.568699049e-05,-0.0003580822755,0.0001752387062,0.0001827117757,0.0003579504819,0.0001402007622,-4.972862154e-05,9.047214068e-05,0.0005049298835,0.0001221103471,0.0006270402306,0.0003460084446,0.0001969443809,0.0005429528255,4.287748154e-05,0.0005099930894,0.0005528705709,0.000438457248,0.0003767549427,0.0008152121906,0.001656660082,0.0006790326684,0.002335692751,0.001603950194,0.0004452567843,0.002049206978,0.0002953193338,-2.487813005e-06,0.0002928315208,5.283844574e-05,-0.0001238227227,-7.098427693e-05,0.0009317224747,0.0001224915682,0.001054214043,0.00040469133,-0.0002690992157,0.0001355921144,0.0002830583648,3.270723338e-05,0.0003157655982,0.0002557402324,-7.417486851e-05,0.0001815653639,0.0005554448122,-3.560908374e-05,0.0005198357285,0.0008682737556,-0.0001184484983,0.0007498252573,0.0004817642659,0.0001148285404,0.0005965928063,0.00157984469,-7.617336427e-05,0.001503671325,0.0001415902462,0.0006557961047,0.0007973863509,0.001437505439,0.0001814593937,0.001618964832
2.5,0.0002045052793,3.038604157e-05,0.0002348913209,0.000312994243,0.0002064371342,0.0005194313772,5.882596362e-06,0.0001796801291,0.0001855627255,-0.0003425060218,0.0005819424194,0.0002394363976,0.0004118660461,0.0003061522554,0.0007180183015,0.000130613454,0.0004216691568,0.0005522826108,0.0006174893195,0.0002541697963,0.0008716591158,0.0005000800747,0.0002547043246,0.0007547843993,0.0008020719765,0.0003201341992,0.001122206176,0.0002128581979,0.0001725475456,0.0003854057436,9.901372899e-06,0.0005503227527,0.0005602241256,-1.13284767e-05,0.0004595511653,0.0004482226886,0.0003462813671,0.0003409759245,0.0006872572915,0.0001715192665,-1.693097086e-05,0.0001545882956,0.0001589353807,6.117423953e-05,0.0002201096203,-0.0003147793673,1.372942482e-05,-0.0003010499424,0.0002533674348,0.0001893513303,0.0004427187651,0.0002034161871,-5.035377309e-05,0.000153062414,0.0005830454844,0.0001252546528,0.0007083001371,0.0003763284667,0.0001962535308,0.0005725819975,8.581963236e-05,0.0005150091527,0.0006008287851,0.000462922708,0.0003798881728,0.0008428108808,0.001751670189,0.0007004702653,0.002452140454,0.001699881543,0.0004566894048,0.002156570947,0.000330666801,-2.370937778e-06,0.0003282958633,8.561019232e-05,-0.000125448282,-3.983808965e-05,0.0009960665124,0.0001218804694,0.001117946982,0.0004660810777,-0.000275331558,0.0001907495196,0.000371313826,3.542580948e-05,0.0004067396354,0.0003152891767,-7.286174997e-05,0.0002424274267,0.0006586073797,-3.237549226e-05,0.0006262318875,0.0009737138177,-0.0001176223953,0.0008560914224,0.000645899921,0.0001234616893,0.0007693616103,0.001738335817,-6.286955165e-05,0.001675466266,0.0002853054317,0.0006515008542,0.0009368062859,0.001571255837,0.0001870980619,0.001758353898
2.6,0.0001800191144,-1.725081166e-06,0.0001782940332,0.0002858989464,0.0001970599033,0.0004829588497,-1.277753622e-05,0.0001648548588,0.0001520773226,-0.000358696524,0.0005944501444,0.0002357536204,0.0004409362051,0.0003035493835,0.0007444855886,0.0001313112928,0.0004197585005,0.0005510697934,0.0006558232074,0.0002523550442,0.0009081782516,0.0005311552485,0.0002524905545,0.000783645803,0.0008421337044,0.000319297965,0.001161431669,0.0002379308158,0.0001690560299,0.0004069868457,4.510174833e-05,0.0005453091392,0.0005904108875,1.916698896e-05,0.0004533654688,0.0004725324577,0.0004043497034,0.0003391478531,0.0007434975565,0.0001872248455,-2.020939567e-05,0.0001670154498,0.000202028221,6.179915894e-05,0.00026382738,-0.0002569531998,1.193749243e-05,-0.0002450157074,0.0003303110992,0.0001956431449,0.000525954244,0.0002654840291,-5.103407435e-05,0.0002144499548,0.0006597079841,0.0001281751974,0.0007878831815,0.0004042473284,0.00019556897,0.0005998162984,0.0001288687804,0.0005197635134,0.0006486322937,0.0004860521041,0.000382736753,0.000868788857,0.001851477769,0.0007232396454,0.002574717414,0.001800409923,0.0004698171656,0.002270227088,0.0003653635117,-1.951559111e-06,0.0003634119526,0.0001187483849,-0.0001264428528,-7.694467821e-06,0.001059066868,0.0001216679039,0.001180734772,0.0005286967431,-0.0002812133169,0.0002474834262,0.0004592634066,3.824617702e-05,0.0004975095836,0.0003737655201,-7.136686562e-05,0.0003023986545,0.0007606103005,-2.88977674e-05,0.0007317125331,0.001077348207,-0.0001166132264,0.0009607349808,0.0008085925123,0.0001352620105,0.0009438545228,0.001893115836,-4.762985893e-05,0.001845485977,0.0004339831282,0.000641150819,0.001075133947,0.001701567584,0.0001928333323,0.001894400916
2.7,0.000155833308,-3.360623785e-05,0.0001222270701,0.0002562336454,0.0001873564037,0.0004435900491,-3.249804213e-05,0.0001503908661,0.000117892824,-0.0003792309154,0.0006064524449,0.0002272215295,0.0004665660122,0.0003012012669,0.0007677672791,0.000129029437,0.0004174677642,0.0005464972012,0.000690437855,0.0002502305392,0.0009406683942,0.0005592474241,0.0002497977161,0.0008090451402,0.0008778351863,0.0003179752173,0.001195810404,0.0002604451117,0.0001654594494,0.0004259045611,7.848782144e-05,0.0005398290461,0.0006183168675,4.760591279e-05,0.0004468077047,0.0004944136175,0.0004611176301,0.0003372568805,0.0007983745105,0.0002007984366,-2.330927619e-05,0.0001774891604,0.0002442279341,6.281713373e-05,0.0003070450678,-0.0002004650345,1.033420982e-05,-0.0001901308246,0.0004058467075,0.000201551409,0.0006073981165,0.0003262066491,-5.176221071e-05,0.0002744444384,0.0007347004207,0.000130849649,0.0008655500697,0.0004297528991,0.0001949221885,0.0006246750876,0.0001720870118,0.0005242825288,0.0006963695406,0.0005079030889,0.0003853120133,0.0008932151022,0.001956202107,0.0007473379488,0.002703540055,0.001905553249,0.0004846776091,0.002390230858,0.0003993736763,-1.212917228e-06,0.000398160759,0.0001521825204,-0.0001267942439,2.538827652e-05,0.00112049916,0.000121956345,0.001242455505,0.000592377869,-0.0002867054666,0.0003056724024,0.0005466509232,4.112379167e-05,0.0005877747149,0.0004309732153,-6.972390742e-05,0.0003612493079,0.000861129006,-2.519514266e-05,0.0008359338634,0.001178847922,-0.0001154831221,0.0010633648,0.0009690442812,0.0001501830708,0.001119227352,0.002043434131,-3.067899855e-05,0.002012755133,0.000586492115,0.0006249937071,0.001211485822,0.001827597502,0.0001986026466,0.002026200149
2.8,0.0001324849,-6.501818593e-05,6.746671406e-05,0.0002245076831,0.0001774044505,0.0004019121336,-5.286404954e-05,0.0001364291534,8.356510385e-05,-0.0004038293628,0.0006179173527,0.0002140879899,0.0004888612802,0.0002991650221,0.0007880263023,0.0001238979493,0.0004148448978,0.0005387428471,0.0007213274749,0.0002478304367,0.0009691579116,0.000584314551,0.0002466419454,0.0008309564964,0.0009091368335,0.000316165786,0.001225302619,0.0002803384328,0.0001617701023,0.0004421085351,0.0001100411664,0.0005339425814,0.0006439837478,7.394594703e-05,0.0004399847812,0.0005139307282,0.0005163862979,0.0003353455342,0.0008517318321,0.000212244121,-2.620415822e-05,0.0001860399628,0.0002854732293,6.423793969e-05,0.000349711169,-0.0001454695819,8.937145419e-06,-0.0001365324365,0.0004797615259,0.0002070431538,0.0006868046797,0.0003854033479,-5.253304343e-05,0.0003328703045,0.0008078212647,0.0001332558498,0.0009410771145,0.0004528459205,0.0001943407373,0.0006471866578,0.0002155192555,0.0005285907008,0.0007441099562,0.0005285292072,0.0003876253355,0.0009161545427,0.002065832424,0.0007727310661,0.00283856349,0.0020151936,0.0005012766496,0.00251647025,0.0004326423412,-1.421280624e-07,0.0004325002131,0.0001858268535,-0.0001264945185,5.933233502e-05,0.001180155491,0.0001228231669,0.001302978658,0.0006569469111,-0.0002917702639,0.0003651766472,0.0006332198452,4.401265626e-05,0.0006772325015,0.0004867238729,-6.796860481e-05,0.0004187552681,0.0009598513572,-2.129318405e-05,0.0009385581732,0.001277893398,-0.000114297356,0.001163596042,0.001126494378,0.0001680946763,0.001294589055,0.002188564123,-1.225870639e-05,0.002176305417,0.000741622928,0.0006033645743,0.001344987502,0.00194851664,0.0002043398116,0.002152856451
2.9,0.000110489376,-9.573069902e-05,1.475867702e-05,0.0001912394541,0.0001672815761,0.0003585210303,-7.3473984e-05,0.0001231011209,4.962713686e-05,-0.0004321672162,0.000628817829,0.0001966506128,0.0005079645068,0.0002974953982,0.000805459905,0.0001160715028,0.0004119405777,0.0005280120805,0.0007485203723,0.0002451912562,0.0009937116284,0.0006063350529,0.0002430417489,0.0008493768018,0.0009360389844,0.0003138718177,0.001249910802,0.0002975675455,0.000157999093,0.0004555666385,0.0001397564486,0.0005277090377,0.0006674654863,9.815197365e-05,0.0004330040258,0.0005311559994,0.0005699558064,0.0003334603614,0.0009034161678,0.0002215732467,-2.886978887e-05,0.0001927034579,0.0003257126763,6.606641967e-05,0.0003917790959,-9.210197777e-05,7.757880605e-06,-8.434409716e-05,0.0005518530852,0.0002120885641,0.0007639416493,0.000442910322,-5.334365148e-05,0.0003895666705,0.000878883664,0.0001353722452,0.001014255909,0.0004735395431,0.0001938478705,0.0006673874136,0.0002591906466,0.0005327099856,0.0007919006322,0.0005479774501,0.0003896879925,0.0009376654426,0.002180219558,0.0007993522955,0.002979571853,0.002129070449,0.0005195873782,0.002648657828,0.00046509243,1.269978134e-06,0.0004663624081,0.0002195794568,-0.0001255396913,9.403976552e-05,0.001237845005,0.0001243172031,0.001362162208,0.0007222083324,-0.0002963711847,0.0004258371477,0.0007187139562,4.686612642e-05,0.0007655800827,0.0005408383347,-6.613812819e-05,0.0004747002065,0.001056478898,-1.722389832e-05,0.001039255,0.001374176956,-0.0001131234596,0.001261053496,0.001280226924,0.0001887832238,0.001469010147,0.002327807788,7.380207436e-06,0.002335187996,0.0008981128641,0.0005766779689,0.001474790833,0.002063520055,0.0002099767066,0.002273496762
3.0,9.033310847e-05,-0.0001255258114,-3.519270292e-05,0.0001569495721,0.0001570639379,0.00031401351,-9.394481611e-05,0.0001105267435,1.658192743e-05,-0.0004638788109,0.0006391315829,0.000175252772,0.0005240535126,0.0002962443161,0.0008202978287,0.0001057272878,0.000408807506,0.0005145347938,0.0007720780985,0.0002423511138,0.001014429212,0.0006253077287,0.0002390175058,0.0008643252345,0.000958582354,0.0003110980894,0.001269680443,0.0003121101366,0.0001541565284,0.000466266665,0.0001676413973,0.0005211865495,0.0006888279468,0.0001201948594,0.0004259711199,0.0005461659793,0.0006216257409,0.0003316516953,0.0009532774363,0.0002288037401,-3.128432227e-05,0.0001975194178,0.0003649041312,6.830201308e-05,0.0004332061443,-4.047686391e-05,6.801522226e-06,-3.367534168e-05,0.0006219308108,0.0002166611582,0.000838591969,0.0004985809557,-5.419315594e-05,0.0004443877998,0.0009477155884,0.0001371782038,0.001084893792,0.0004918596311,0.0001934622034,0.0006853218345,0.0003031052227,0.0005366590217,0.0008397642444,0.0005662869274,0.0003915108759,0.0009577978033,0.002299072445,0.0008271017873,0.003126174232,0.002246778585,0.0005395495314,0.002786328116,0.0004966232992,3.02885782e-06,0.000499652157,0.0002533224441,-0.0001239296356,0.0001293928086,0.001293393459,0.0001264565425,0.001419850001,0.0007879487128,-0.000300473083,0.0004874756298,0.0008028796509,4.963768119e-05,0.0008525173321,0.0005931493692,-6.427051147e-05,0.0005288788578,0.001150729453,-1.30256404e-05,0.001137703813,0.001467407183,-0.000112030028,0.001355377155,0.0014295768,0.0002119576449,0.001641534445,0.002460503035,2.7984535e-05,0.00248848757,0.001054676202,0.000545414911,0.001600091113,0.002171838511,0.0002154445813,0.002387283092
3.1,7.246693894e-05,-0.0001542009141,-8.173397516e-05,0.0001221547208,0.0001468251481,0.0002689798689,-0.0001139163688,9.881284826e-05,-1.510352049e-05,-0.0004985618081,0.0006488408704,0.0001502790623,0.0005373398211,0.0002954603403,0.0008328001615,9.306284417e-05,0.0004054995209,0.0004985623651,0.0007920943744,0.0002393488369,0.001031443211,0.0006412517824,0.0002345908344,0.0008758426168,0.0009768480693,0.0003078522378,0.001284700307,0.0003239663671,0.0001502517462,0.0004742181133,0.0001937167636,0.0005144317502,0.0007081485139,0.0001400485594,0.000418989357,0.0005590379164,0.0006711975929,0.0003299729205,0.001001170513,0.0002339594557,-3.342852541e-05,0.0002005309303,0.0004030143193,7.093844055e-05,0.0004739527599,9.31284686e-06,6.066541438e-06,1.53793883e-05,0.0006898189023,0.0002207379582,0.0009105568605,0.0005522862455,-5.508237278e-05,0.0004972038728,0.001014160521,0.0001386543536,0.001152814874,0.0005078450041,0.0001931973984,0.0007010424025,0.0003472452403,0.0005404523694,0.0008876976096,0.0005834882102,0.0003931041549,0.0009765923651,0.002421958649,0.0008558468943,0.003277805544,0.002367770344,0.0005610697294,0.002928840074,0.0005271106783,5.13627457e-06,0.0005322469528,0.0002869231297,-0.0001216681891,0.0001652549407,0.001346641925,0.0001292276134,0.001475869538,0.0008539375943,-0.0003040424691,0.0005498951252,0.0008854688027,5.228170637e-05,0.000937750509,0.0006435045196,-6.240400317e-05,0.0005811005165,0.001242340294,-8.74288512e-06,0.001233597409,0.001557313837,-0.0001110849228,0.001446228914,0.001573932946,0.0002372594723,0.001811192419,0.002586034013,4.930303391e-05,0.002635337047,0.001210036848,0.0005101072637,0.001720144111,0.002272750745,0.0002206756285,0.002493426374
3.2,5.729980483e-05,-0.0001815716553,-0.0001242718504,8.736102945e-05,0.0001366350124,0.0002239960419,-0.0001330556128,8.805148914e-05,-4.500412365e-05,-0.000535782567,0.0006579323014,0.0001221497344,0.0005480656767,0.000295188054,0.0008432537307,7.829347926e-05,0.0004020704816,0.0004803639608,0.0008086928847,0.0002362229521,0.001044915837,0.0006542062312,0.0002297838273,0.0008839900585,0.0009909563018,0.0003041448409,0.001295101143,0.0003331597106,0.0001462935437,0.0004794532543,0.0002180155616,0.0005074994313,0.0007255149929,0.0001576854533,0.0004121597662,0.0005698452195,0.0007184775725,0.0003284797245,0.001046957297,0.0002370690303,-3.528603159e-05,0.0002017829987,0.0004400180022,7.396365072e-05,0.0005139816529,5.719642426e-05,5.545021545e-06,6.27414458e-05,0.0007553592671,0.0002242996604,0.0009796589274,0.0006039146454,-5.601334064e-05,0.0005479013047,0.001078077702,0.000139783058,0.00121786076,0.0005215467539,0.000193062029,0.0007146087829,0.0003915704006,0.0005440999512,0.0009356703518,0.0005996028456,0.0003944770018,0.0009940798474,0.002548308528,0.0008854235813,0.003433732109,0.002491362009,0.0005840226286,0.003075384638,0.0005564075941,7.590456942e-06,0.0005639980511,0.0003202355326,-0.0001187633056,0.000201472227,0.001397444489,0.0001325858795,0.001530030369,0.0009199286632,-0.0003070479146,0.0006128807486,0.0009662410578,5.475431946e-05,0.001020995377,0.0006917681694,-6.057632401e-05,0.0006311918454,0.00133107069,-4.425791173e-06,0.001326644899,0.001643651779,-0.0001103529471,0.001533298832,0.001712738997,0.0002642758961,0.001977014893,0.002703842755,7.108871324e-05,0.002774931469,0.001362959281,0.0004713222438,0.001834281524,0.002365594369,0.0002256054139,0.002591199783
3.3,4.519180515e-05,-0.0002074745978,-0.0001622827926,5.305637393e-05,0.0001265582406,0.0001796146146,-0.0001510614124,7.831851779e-05,-7.274289459e-05,-0.0005750828303,0.0006663966435,9.131381317e-05,0.0005564990332,0.0002954673767,0.0008519664099,6.164902505e-05,0.0003985730634,0.0004602220885,0.0008220234019,0.0002330106237,0.001055034026,0.0006642282598,0.000224618242,0.0008888465019,0.001001062981,0.0002999893763,0.001301052358,0.0003397366067,0.0001422904121,0.0004820270189,0.0002405812882,0.0005004422779,0.0007410235661,0.0001730705892,0.0004055814111,0.0005786520003,0.0007632783391,0.0003272298337,0.001090508173,0.0002381640415,-3.684358065e-05,0.0002013204609,0.0004758964372,7.736008581e-05,0.000553256523,0.0001031241575,5.223222076e-06,0.0001083473796,0.0008184132518,0.0002273307467,0.001045743999,0.0006533707396,-5.698880657e-05,0.0005963819331,0.001139341196,0.0001405490149,0.001279890211,0.000533026402,0.0001930596962,0.0007260860982,0.0004360168751,0.0005476067772,0.0009836236523,0.0006146428861,0.0003956374451,0.001010280331,0.002677423383,0.0009156390305,0.003593062413,0.002616744808,0.0006082531051,0.003224997913,0.000584346094,1.038631612e-05,0.0005947324101,0.000353101808,-0.0001152270972,0.0002378747108,0.001445664813,0.0001364584599,0.001582123273,0.0009856610355,-0.0003094606234,0.0006762004121,0.001044965037,5.701419179e-05,0.001101979229,0.0007378224176,-5.882391617e-05,0.0006789985015,0.001416702992,-1.29468404e-07,0.001416573523,0.001726203198,-0.0001098934671,0.001616309731,0.001845491617,0.0002925551612,0.002138046778,0.002813439631,9.310005809e-05,0.002906539689,0.001512273753,0.0004296488669,0.00194192262,0.002449773688,0.0002301764445,0.002679950132
3.4,3.64471523e-05,-0.0002317694942,-0.0001953223419,1.970203513e-05,0.0001166532866,0.0001363553217,-0.0001676693766,6.967253455e-05,-9.799684201e-05,-0.0006159875415,0.00067422861,5.82410685e-05,0.0005629267559,0.0002963329263,0.0008592596821,4.336997257e-05,0.0003950576956,0.0004384276682,0.0008322564259,0.0002297466776,0.001062003104,0.0006713906575,0.0002191147852,0.0008905054427,0.001007354827,0.0002954021021,0.001302756929,0.0003437649542,0.0001382507707,0.0004820157249,0.0002614653734,0.0004933107388,0.0007547761122,0.0001861561316,0.000399351283,0.0005855074146,0.0008054194392,0.0003262831488,0.001131702588,0.0002372767524,-3.809116175e-05,0.0001991855907,0.0005106353007,8.110522449e-05,0.0005917405252,0.0001470644117,5.082410105e-06,0.0001521468219,0.0008788614736,0.0002298195907,0.001108681064,0.000700572718,-5.801172567e-05,0.0006425609924,0.001197837714,0.000140939895,0.001338777609,0.0005423533774,0.0001931893074,0.0007355426848,0.0004804966459,0.0005509728747,0.001031469521,0.0006286106482,0.000396592296,0.001025202944,0.002808488543,0.0009462755392,0.003754764082,0.002743001351,0.0006335795347,0.003376580885,0.0006107399484,1.351556792e-05,0.0006242555163,0.0003853537088,-0.0001110757218,0.000274277987,0.001491171965,0.0001407484414,0.001631920406,0.001050860681,-0.000311255135,0.0007396055456,0.001121418645,5.902329026e-05,0.001180441935,0.000781566855,-5.71812863e-05,0.0007243855687,0.001499042149,4.086996654e-06,0.001503129146,0.001804778088,-0.0001097585571,0.001695019531,0.001971737172,0.0003216234952,0.002293360667,0.002914411166,0.0001151015026,0.003029512669,0.001656893942,0.000385686239,0.002042580181,0.00252476369,0.0002343427244,0.002759106414
3.5,3.130822066e-05,-0.0002543409557,-0.000223032735,-1.227512631e-05,0.0001069715346,9.469640828e-05,-0.0001826559347,6.215438528e-05,-0.0001205015495,-0.000658013204,0.0006814266082,2.341340421e-05,0.0005676470081,0.0002978135366,0.0008654605447,2.370336781e-05,0.0003915717589,0.0004152751267,0.000839577138,0.0002264628178,0.001066039956,0.0006757789555,0.0002132925829,0.0008890715384,0.001010043556,0.0002904018905,0.001300445446,0.000345331913,0.0001341831632,0.0004795150763,0.000280724521,0.0004861530145,0.0007668775355,0.0001968776954,0.0003935633338,0.0005904410292,0.0008447273939,0.0003257017095,0.001170429103,0.0002344381217,-3.902203745e-05,0.0001954160843,0.000544222443,8.517234017e-05,0.0006293947832,0.0001889994503,5.09998301e-06,0.0001940994333,0.0009366019008,0.0002317587169,0.001168360618,0.0007454491606,-5.908474117e-05,0.0006863644195,0.001253463703,0.0001409469696,0.001394410672,0.0005496026667,0.0001934454248,0.0007430480916,0.0005248979095,0.0005541933628,0.001079091272,0.000641499073,0.0003973471212,0.001038846194,0.002940592314,0.0009770957424,0.003917688057,0.002869128119,0.0006597981891,0.003528926308,0.0006353886179,1.696669761e-05,0.0006523553155,0.0004168145395,-0.0001063291577,0.0003104853818,0.001533836295,0.0001453402482,0.001679176544,0.001115242288,-0.000312410104,0.0008028321845,0.001195389283,6.074748187e-05,0.001256136765,0.0008229177267,-5.568045885e-05,0.0007672372679,0.001577914304,8.161613648e-06,0.001586075918,0.001879213636,-0.0001099919385,0.001769221697,0.002091067281,0.0003510022142,0.002442069495,0.003006425649,0.0001368625304,0.003143288179,0.001795827942,0.0003400323403,0.002135860282,0.002590110879,0.0002380743374,0.002828185216
3.6,2.995211639e-05,-0.0002750993182,-0.0002451472018,-4.248859237e-05,9.755700432e-05,5.506841195e-05,-0.0001958406423,5.578724681e-05,-0.0001400533955,-0.0007006759674,0.0006879923929,-1.268357452e-05,0.0005709620913,0.0002999319892,0.0008708940805,2.899088426e-06,0.0003881590002,0.0003910580887,0.0008441797847,0.0002231870618,0.001067366846,0.0006774891171,0.0002071688449,0.000884657962,0.001009360378,0.0002850100411,0.001294370419,0.0003445416915,0.0001300963798,0.0004746380713,0.0002984187105,0.0004790151144,0.0007774338249,0.0002051539962,0.000388306495,0.0005934604912,0.0008810365688,0.000325549055,0.001206585624,0.0002296768653,-3.963268535e-05,0.00019004418,0.0005766459105,8.953141902e-05,0.0006661773295,0.0002289211076,5.250828608e-06,0.0002341719362,0.0009915471592,0.0002331452686,0.001224692428,0.0007879359638,-6.020960025e-05,0.0007277263635,0.001306122604,0.0001405656853,0.001446688289,0.0005548534245,0.000193818741,0.0007486721655,0.0005690871703,0.0005572587613,0.001126345932,0.0006532930276,0.0003979063218,0.001051199349,0.003072751034,0.001007849022,0.004080600056,0.002994063771,0.0006866886424,0.003680752413,0.0006580826504,2.072482057e-05,0.000678807471,0.0004473020586,-0.0001010108956,0.000346291163,0.00157352601,0.000150105571,0.001723631581,0.001178512101,-0.0003129091765,0.0008656029249,0.001266674967,6.215695254e-05,0.00132883192,0.0008618071678,-5.435046971e-05,0.0008074566981,0.001653165493,1.203061271e-05,0.001665196105,0.001949373588,-0.0001106285903,0.001838744998,0.002203114711,0.000380222762,0.002583337473,0.003089237355,0.0001581553647,0.00324739272,0.001928184825,0.0002932726062,0.002221457431,0.002645432769,0.0002413605654,0.002886793334
3.7,3.249078656e-05,-0.000293980656,-0.0002614898695,-7.059520878e-05,8.844658147e-05,1.785137269e-05,-0.0002070860841,5.0577215e-05,-0.0001565088691,-0.0007434986938,0.0006939305851,-4.956810871e-05,0.0005731727766,0.0003027049291,0.0008758777057,-1.879295313e-05,0.0003848590639,0.0003660661108,0.000846263482,0.0002199433795,0.001066206861,0.000676626424,0.0002007586864,0.0008773851103,0.001005551547,0.0002792500929,0.00128480164,0.000341513798,0.0001259995112,0.0004675133093,0.0003146102883,0.0004719409621,0.0007865512504,0.0002108899883,0.0003836620854,0.0005945520738,0.000914191362,0.0003258890738,0.001240080436,0.0002230199759,-3.99227063e-05,0.0001830972696,0.0006078927307,9.415010577e-05,0.0007020428364,0.0002668274402,5.508726004e-06,0.0002723361662,0.001043622308,0.0002339815542,0.001277603862,0.0008279742541,-6.138656642e-05,0.0007665876877,0.001355723328,0.0001397961057,0.001495519433,0.0005581888655,0.0001942967691,0.0007524856346,0.0006129132392,0.0005601556553,0.001173068895,0.0006639716563,0.0003982733872,0.001062245044,0.003203938914,0.001038278667,0.004242217581,0.003116721521,0.0007140198542,0.003830741375,0.0006786105008,2.477150033e-05,0.0007033820012,0.0004766325149,-9.51475555e-05,0.0003814849594,0.001610104828,0.000154909655,0.001765014483,0.001240372121,-0.0003127419683,0.0009276301528,0.001335086821,6.322638371e-05,0.001398313205,0.0008981829122,-5.321686124e-05,0.000844966051,0.001724661177,1.562966513e-05,0.001740290843,0.002015148379,-0.0001116947584,0.001903453621,0.002307552159,0.0004088370799,0.002716389239,0.003162689232,0.0001787526701,0.003341441903,0.00205317857,0.0002459691268,0.002299147696,0.002690417566,0.000244210826,0.002934628392
3.8,3.897455192e-05,-0.0003109460763,-0.0002719715244,-9.629541567e-05,7.967056556e-05,-1.662485012e-05,-0.0002162956067,4.651424015e-05,-0.0001697813665,-0.0007860167136,0.0006992481036,-8.676860998e-05,0.0005745743377,0.0003061428896,0.0008807172273,-4.112460462e-05,0.0003817071122,0.0003405825076,0.000846029714,0.0002167515326,0.001062781247,0.0006733054852,0.0001940751038,0.000867380589,0.0009988749106,0.0002731476089,0.001272022519,0.0003363816855,0.0001219019635,0.000458283649,0.0003293638912,0.0004649725496,0.0007943364409,0.0002139820227,0.0003797013302,0.0005936833529,0.0009440493809,0.0003267846816,0.001270834062,0.0002144943584,-3.989474554e-05,0.0001745996129,0.000637948653,9.899449819e-05,0.0007369431512,0.0003027207793,5.847578517e-06,0.0003085683579,0.001092763754,0.0002342754899,0.001327039244,0.000865509667,-6.261399275e-05,0.0008028956742,0.001402180466,0.0001386431144,0.001540823581,0.0005596970479,0.0001948646715,0.0007545617194,0.0006562127004,0.0005628676581,0.001219080358,0.0006735115534,0.0003984512625,0.001071962816,0.003333119722,0.001068129094,0.004401248816,0.003236022504,0.0007415564138,0.003977578918,0.0006967664397,2.908454965e-05,0.0007258509894,0.0005046255618,-8.876846633e-05,0.0004158570954,0.001643430999,0.0001596175827,0.001803048582,0.001300525447,-0.0003119049056,0.0009886205415,0.001400452298,6.393485106e-05,0.001464387149,0.0009320081882,-5.230124268e-05,0.0008797069456,0.001792286524,1.889515345e-05,0.001811181677,0.002076455778,-0.0001132081465,0.001963247631,0.00240409512,0.0004364225158,0.002840517635,0.003226713036,0.0001984271359,0.003425140172,0.002170129969,0.0001986516632,0.002368781632,0.00272482425,0.0002466539508,0.002971478201
3.9,4.939757232e-05,-0.0003259805431,-0.0002765829708,-0.0001193320581,7.125323352e-05,-4.807882462e-05,-0.0002234100236,4.35732619e-05,-0.0001798367617,-0.0008277825961,0.0007039536492,-0.0001238289469,0.0005754535189,0.0003102503678,0.0008857038866,-6.385076739e-05,0.0003787335799,0.0003148828125,0.000843680842,0.0002136271144,0.001057307956,0.0006676505557,0.0001871291218,0.0008547796775,0.0009895966693,0.0002667298755,0.001256326545,0.0003292912294,0.0001178134332,0.0004471046626,0.000342746413,0.0004581501062,0.0008008965192,0.0002143228726,0.0003764833772,0.0005908062498,0.0009704845438,0.0003282966101,0.001298781154,0.0002041286797,-3.955448047e-05,0.0001645741993,0.0006667984196,0.0001040297171,0.0007708281368,0.0003366065338,6.242428924e-06,0.0003428489627,0.001138918942,0.0002340407932,0.001372959735,0.0009004925691,-6.38881858e-05,0.0008366043833,0.001445415703,0.0001371163129,0.001582532016,0.0005594716507,0.0001955060241,0.0007549776748,0.0006988158137,0.0005653764755,0.001264192289,0.0006818902199,0.000398442673,0.001080332893,0.003459276832,0.0010971525,0.004556429332,0.003350926795,0.0007690644586,0.004119991254,0.0007123587198,3.363789421e-05,0.000745996614,0.0005311093054,-8.190525052e-05,0.0004492040549,0.001673357772,0.000164099712,0.001837457484,0.00135868169,-0.0003104014981,0.001048280192,0.001462617779,6.426548653e-05,0.001526883266,0.0009632610021,-5.162096842e-05,0.0009116400337,0.001855946581,2.176536105e-05,0.001877711942,0.002133240799,-0.0001151781993,0.0020180626,0.002492506815,0.0004625830877,0.002955089903,0.003281326079,0.0002169538332,0.003498279912,0.002278466362,0.0001518106376,0.002430276999,0.002748482467,0.0002487363877,0.002997218854
4.0,6.370321895e-05,-0.0003390914463,-0.0002753882273,-0.0001394895213,6.321323748e-05,-7.627628378e-05,-0.0002284046531,4.171545801e-05,-0.0001866891951,-0.000868370548,0.0007080573786,-0.0001603131694,0.0005760853307,0.0003150259535,0.0008911112842,-8.673089051e-05,0.0003759641042,0.0002892332137,0.0008394185099,0.0002105817551,0.001050000265,0.0006597952161,0.0001799300749,0.000839725291,0.0009779875189,0.000260025478,0.001238012997,0.0003203984735,0.0001137438156,0.000434142289,0.0003548262733,0.0004515122216,0.000806338495,0.0002118050642,0.0003740537286,0.0005858587928,0.000993388857,0.0003304825556,0.001323871413,0.0001919545974,-3.891071927e-05,0.0001530438781,0.0006944258356,0.0001092203258,0.0008036461614,0.0003684915168,6.670361544e-06,0.0003751618784,0.001182045851,0.0002332968023,0.001415342653,0.0009328782736,-6.520352814e-05,0.0008676747455,0.001485359065,0.0001352296704,0.001620588735,0.0005576119258,0.000196203405,0.0007538153308,0.0007405517138,0.0005676629312,0.001308214645,0.0006890891937,0.0003982503223,0.001087339516,0.003581439204,0.001125114576,0.00470655378,0.003460459932,0.0007963169838,0.004256776916,0.0007252168224,3.840170216e-05,0.0007636185245,0.0005559245231,-7.459136621e-05,0.0004813331569,0.001699735004,0.0001682356035,0.001867970607,0.001414561195,-0.0003082418197,0.001106319375,0.001521449412,6.420503899e-05,0.001585654451,0.0009919321177,-5.118887563e-05,0.0009407432421,0.001915565318,2.418159091e-05,0.001939746909,0.002185473552,-0.0001176064741,0.002067867078,0.002572602382,0.0004869491044,0.003059551486,0.003326624494,0.000234114696,0.00356073919,0.002377718608,0.0001058917012,0.00248361031,0.00276129183,0.0002505192587,0.003011811089
4.1,8.178803185e-05,-0.0003503070182,-0.0002685189864,-0.0001565941824,5.556384151e-05,-0.0001010303408,-0.0002312874458,4.08895875e-05,-0.0001903978583,-0.0009073808683,0.0007115708011,-0.0001958100672,0.000576729051,0.0003204625523,0.0008971916032,-0.0001095310863,0.000373419615,0.0002638885287,0.0008334412154,0.000207623422,0.001041064637,0.0006498809605,0.00017248595,0.0008223669105,0.0009643178776,0.0002530637822,0.00121738166,0.0003098664649,0.0001097030483,0.0004195695132,0.0003656717382,0.0004450959017,0.0008107676399,0.0002063219593,0.000372443086,0.0005787650453,0.001012672284,0.0003333967766,0.001346069061,0.0001780070413,-3.797559163e-05,0.0001400314497,0.0007208131991,0.0001145306562,0.0008353438552,0.0003983809556,7.11137344e-06,0.000405492329,0.001222111528,0.0002320678153,0.001454179343,0.0009626263956,-6.655268373e-05,0.0008960737119,0.001521948836,0.0001330010569,0.001654949893,0.0005542215122,0.0001969388915,0.0007511604038,0.0007812522232,0.0005697079466,0.00135096017,0.0006950964103,0.0003978770367,0.001092973447,0.003698702428,0.001151799246,0.004850501674,0.0035637343,0.0008230984608,0.00438683276,0.0007351967917,4.334298913e-05,0.0007785397808,0.0005789273664,-6.686149275e-05,0.0005120658736,0.001722411103,0.0001719166665,0.00189432777,0.001467897402,-0.0003054414163,0.001162455986,0.001576831858,6.374347508e-05,0.001640575333,0.00101802161,-5.101300711e-05,0.0009670086028,0.001971082898,2.608937104e-05,0.001997172269,0.002233144385,-0.0001204870521,0.002112657332,0.002644252037,0.0005091754009,0.003153427438,0.003362773521,0.000249703259,0.00361247678,0.002467513909,6.129260473e-05,0.002528806514,0.002763220541,0.0002520739862,0.003015294527
4.2,0.0001035041431,-0.0003596746277,-0.0002561704846,-0.0001705160753,4.8313087e-05,-0.0001222029883,-0.0002320981106,4.103343304e-05,-0.0001910646775,-0.0009444445267,0.000714506818,-0.0002299377086,0.0005776235752,0.0003265477306,0.0009041713057,-0.0001320268527,0.0003711165473,0.0002390896946,0.0008259410543,0.000204756756,0.00103069781,0.000638054867,0.0001648037409,0.0008028586079,0.0009488525495,0.0002458744266,0.001194726976,0.0002978614593,0.0001057009565,0.0004035624158,0.0003753485529,0.0004389366038,0.0008142851567,0.0001977670615,0.0003716668198,0.0005694338814,0.001028261163,0.0003370899007,0.001365351063,0.0001623237243,-3.676472837e-05,0.0001255589959,0.0007459401708,0.0001199249563,0.0008658651271,0.0004262742692,7.549159169e-06,0.0004338234283,0.001259089447,0.0002303819484,0.001489471396,0.0009896990153,-6.792670442e-05,0.0009217723109,0.001555129837,0.00013045173,0.001685581567,0.0005494063908,0.0001976945887,0.0007471009796,0.0008207542828,0.0005714934828,0.001392247766,0.0006999076957,0.0003973259674,0.001097233663,0.003810245159,0.001177012452,0.004987257611,0.003659965749,0.0008492087496,0.004509174499,0.0007421842811,4.842671684e-05,0.0007906109979,0.0005999904406,-5.875073648e-05,0.0005412397042,0.001741234578,0.0001750483351,0.001916282913,0.001518437518,-0.0003020200615,0.001216417457,0.00162866554,6.287364926e-05,0.001691539189,0.001041534504,-5.109635479e-05,0.0009904381489,0.002022451392,2.743977123e-05,0.002049891163,0.002276256829,-0.0001238069573,0.002152449871,0.002707384334,0.0005289383075,0.003236322641,0.003389995542,0.0002635280403,0.003653523582,0.002547563086,1.836398416e-05,0.002565927071,0.002754303439,0.000253476447,0.003007779886
4.3,0.0001286609727,-0.0003672589546,-0.0002385979819,-0.0001811708809,4.146398457e-05,-0.0001397068963,-0.0002309075351,4.207534787e-05,-0.0001888321872,-0.0009792276036,0.0007168797844,-0.0002623478192,0.0005789828631,0.0003332641947,0.0009122470578,-0.0001540060578,0.000369067174,0.0002150611162,0.0008171002486,0.0002019834318,0.00101908368,0.0006244669637,0.0001568898442,0.000781356808,0.0009318456183,0.0002384869359,0.001170332554,0.0002845490917,0.0001017471684,0.0003862962601,0.0003839174927,0.0004330683145,0.0008169858071,0.000186033069,0.0003717250012,0.0005577580702,0.001040096266,0.0003416084014,0.001381704667,0.0001449443829,-3.529730095e-05,0.0001096470819,0.0007697824655,0.00012536728,0.0008951497454,0.0004521605043,7.971697764e-06,0.000460132202,0.00129295618,0.0002282696751,0.001521225855,0.001014057968,-6.931497598e-05,0.000944742992,0.001584850676,0.0001276057605,0.001712456437,0.0005432727213,0.0001984531867,0.000741725908,0.0008589015393,0.0005730033525,0.001431904892,0.0007035276383,0.0003966008523,0.001100128491,0.003915341922,0.00120058507,0.005115926992,0.00374848631,0.0008744662999,0.00462295261,0.0007460955847,5.361716083e-05,0.0007997127456,0.0006190027115,-5.029377927e-05,0.0005687089322,0.001756055156,0.0001775522827,0.001933607439,0.001565942253,-0.0002980006494,0.001267941604,0.001676863615,6.159097878e-05,0.001738454594,0.001062476468,-5.143674059e-05,0.001011039728,0.002069630001,2.81906084e-05,0.002097820609,0.002314819849,-0.0001275466981,0.002187273151,0.002761988803,0.0005459332416,0.003307922045,0.003408556637,0.000275414732,0.003683971369,0.002617642822,-2.258536543e-05,0.002595057456,0.002734639956,0.0002548001573,0.002989440113
4.4,0.0001570274523,-0.0003731400236,-0.0002161125713,-0.0001885209918,3.501484797e-05,-0.0001535061438,-0.0002278165269,4.393591901e-05,-0.0001838806079,-0.001011435077,0.0007187054933,-0.0002927295841,0.0005809925306,0.0003405904064,0.0009215829371,-0.0001752716304,0.0003672800324,0.000192008402,0.0008070883902,0.0001993025566,0.001006390947,0.0006092680956,0.0001487505514,0.000758018647,0.0009135365364,0.0002309305082,0.001144467045,0.0002700912431,9.785111084e-05,0.0003679423539,0.0003914325865,0.0004275236635,0.00081895625,0.000171012604,0.000372602585,0.000543615189,0.001048131674,0.0003469931762,0.00139512485,0.0001259103898,-3.359584989e-05,9.231453995e-05,0.0007923107807,0.0001308212206,0.0009231320013,0.0004760146737,8.371603842e-06,0.0004843862775,0.001323688354,0.0002257623213,0.001549450675,0.001035662147,-7.070505027e-05,0.0009649570966,0.001611061036,0.000124489416,0.001735550452,0.000535925469,0.0001991984354,0.0007351239044,0.0008955458298,0.0005742237749,0.001469769605,0.0007059702593,0.0003957062413,0.001101676501,0.004013373308,0.001222375021,0.005235748329,0.003828753841,0.0008987106287,0.004727464469,0.0007468773671,5.887921311e-05,0.0008057565802,0.00063586904,-4.152413285e-05,0.0005943449071,0.001766725089,0.0001793684886,0.001946093577,0.001610185536,-0.0002934083411,0.001316777195,0.001721350067,5.989310539e-05,0.001781243172,0.001080850631,-5.202694019e-05,0.001028823691,0.00211258119,2.830730711e-05,0.002140888497,0.002348841363,-0.0001316811132,0.00221716025,0.00280811594,0.0005598749861,0.003367990926,0.003418752709,0.0002852086516,0.003703961361,0.002677575914,-6.127993304e-05,0.002616295981,0.002704392418,0.0002561096202,0.002960502038
4.5,0.0001883359334,-0.000377411044,-0.0001890751106,-0.0001925745424,2.89598587e-05,-0.0001636146837,-0.0002229530951,4.652974437e-05,-0.0001764233508,-0.001040813406,0.000720001025,-0.0003208123813,0.0005838084662,0.0003485013155,0.0009323097817,-0.0001956433839,0.0003657603475,0.0001701169636,0.0007960612424,0.0001967110964,0.0009927723389,0.0005926089783,0.0001403926128,0.0007330015911,0.0008941481332,0.0002232339296,0.001117382063,0.0002546441581,9.402203956e-05,0.0003486661977,0.000397940594,0.0004223340177,0.0008202746117,0.0001526015871,0.0003742695929,0.00052687118,0.001052334958,0.0003532771771,0.001405612135,0.0001052652285,-3.168591067e-05,7.357931786e-05,0.0008134902972,0.0001362496573,0.0009497399545,0.0004977960908,8.746275402e-06,0.0005065423662,0.0013512609,0.0002228908431,0.001574151743,0.001054465884,-7.2082416e-05,0.0009823834682,0.00163371011,0.0001211306186,0.001754840729,0.0005274683781,0.0001999154929,0.000727383871,0.0009305490906,0.0005751436706,0.001505692761,0.0007072597598,0.0003946476477,0.001101907408,0.004103834041,0.001242268626,0.005346102666,0.00390035897,0.0009218040896,0.004822163059,0.0007445058891,6.417939744e-05,0.0008086852865,0.000650510109,-3.247358496e-05,0.0006180365241,0.00177310127,0.000180456545,0.001953557815,0.001650954941,-0.000288269961,0.00136268498,0.001762059636,5.777961252e-05,0.001819839248,0.001096656169,-5.285510779e-05,0.001043801061,0.002151268791,2.776335956e-05,0.002179032151,0.002378324616,-0.000136180559,0.002242144057,0.002845873555,0.0005705006381,0.003416374193,0.003420896634,0.000292778186,0.00371367482,0.002727214144,-9.746799726e-05,0.002629746147,0.002663784709,0.0002574549696,0.002921239678
4.6,0.0002222881453,-0.0003801760389,-0.0001578878936,-0.00019338218,2.32898081e-05,-0.0001700923719,-0.0002164682354,4.976726054e-05,-0.0001667009749,-0.001067151723,0.0007207844559,-0.0003463672666,0.0005875575705,0.0003569691301,0.0009445267005,-0.0002149587425,0.0003645103266,0.0001495515842,0.0007841613309,0.0001942042909,0.0009783656218,0.0005746405596,0.0001318237529,0.0007064643125,0.0008738864927,0.0002154255223,0.001089312015,0.000238357816,9.026906191e-05,0.000328626878,0.0004034817077,0.0004175295038,0.0008210112115,0.0001307046173,0.0003766815807,0.000507386198,0.001052688108,0.0003604827372,0.001413170845,8.305577794e-05,-2.959547665e-05,5.346030128e-05,0.0008332808399,0.0001416145963,0.0009748954362,0.0005174490882,9.09783605e-06,0.0005265469242,0.001375646898,0.0002196851602,0.001595332058,0.00107041905,-7.343028435e-05,0.000996988766,0.001652746781,0.0001175585841,0.001770305365,0.0005180050479,0.0002005912003,0.0007185962482,0.0009637856326,0.0005757548532,0.001539540486,0.0007074312466,0.0003934316867,0.001100862933,0.004186338465,0.00126018123,0.005446519695,0.003963028966,0.0009436329679,0.004906661934,0.0007389862221,6.948660561e-05,0.0008084728277,0.00066286303,-2.317184307e-05,0.000639691187,0.001775048415,0.000180795676,0.001955844091,0.001688053089,-0.0002826135392,0.00140543955,0.001798939137,5.525183951e-05,0.001854190977,0.001109888467,-5.390552051e-05,0.001055982947,0.002185658101,2.654040273e-05,0.002212198504,0.00240326764,-0.0001410122795,0.002262255361,0.002875420168,0.0005775736642,0.003452993832,0.003415307733,0.0002980185812,0.003713326314,0.002766427961,-0.0001309141139,0.002635513847,0.002613101082,0.0002588679984,0.00287196908
4.7,0.000258562365,-0.0003815473881,-0.0001229850231,-0.0001910325885,1.799281582e-05,-0.0001730397727,-0.0002085310741,5.355650683e-05,-0.0001549745673,-0.001090282038,0.0007210745031,-0.0003692075354,0.0005923397498,0.0003659640049,0.0009583037547,-0.0002330726989,0.0003635292845,0.0001304565856,0.0007715196865,0.0001917760225,0.000963295709,0.0005555150653,0.0001230530197,0.0006785680849,0.0008529417937,0.0002075330528,0.001060474847,0.0002213759386,8.660114657e-05,0.0003079770852,0.0004080907606,0.0004131389699,0.0008212297305,0.0001052407662,0.0003797806278,0.000485021394,0.001049188153,0.0003686193232,0.001417807476,5.933377479e-05,-2.735432677e-05,3.197944802e-05,0.0008516373603,0.0001468771599,0.0009985145203,0.0005349055011,9.432794152e-06,0.0005443382953,0.001396818414,0.0002161740928,0.001612992507,0.001083468634,-7.472956915e-05,0.001008739065,0.001668121251,0.0001138035821,0.001781924833,0.000507640188,0.0002012143191,0.0007088545071,0.000995144159,0.0005760522509,0.00157119641,0.000706531051,0.0003920662478,0.001098597299,0.004260622511,0.001276057103,0.005536679614,0.004016627799,0.0009641079559,0.004980735755,0.0007303514259,7.477265588e-05,0.0008051240818,0.0006728823187,-1.364638558e-05,0.0006592359332,0.001772443098,0.000180383356,0.001952826454,0.001721299701,-0.0002764678096,0.001444831892,0.001831948811,5.23127442e-05,0.001884261556,0.001120539917,-5.515960679e-05,0.00106538031,0.002215717037,2.462790495e-05,0.002240344942,0.002423664403,-0.0001461416915,0.002277522712,0.002896957081,0.0005808873951,0.003477844476,0.003402303645,0.0003008553031,0.003703158948,0.002795104717,-0.0001613961703,0.002633708546,0.002552685268,0.0002603583298,0.002813043598
4.8,0.0002968202261,-0.0003816435095,-8.482328332e-05,-0.0001856483795,1.305483911e-05,-0.0001725935404,-0.000199324545,5.780474404e-05,-0.000141519801,-0.001110079158,0.0007208902285,-0.0003891889295,0.0005982299292,0.0003754545789,0.0009736845081,-0.0002498576483,0.0003628136657,0.0001129560174,0.0007582576296,0.0001894191542,0.0009476767838,0.000535386798,0.0001140909542,0.0006494777522,0.0008314890072,0.0001995835921,0.001031072599,0.0002038358596,8.302712221e-05,0.0002868629818,0.0004117980376,0.000409189924,0.0008209879616,7.614816157e-05,0.000383496851,0.0004596450126,0.001041847074,0.0003776818516,0.001419528926,3.415670162e-05,-2.499324412e-05,9.163457493e-06,0.0008685101627,0.0001519977942,0.001020507957,0.0005500875939,9.761386144e-06,0.00055984898,0.001414747283,0.0002123856982,0.001627132981,0.001093560803,-7.595922498e-05,0.001017601578,0.001679787104,0.0001098966235,0.001789683728,0.0004964801531,0.0002017756586,0.0006982558117,0.00102452886,0.0005760341205,0.001600562981,0.000704616302,0.00039056064,0.001095176942,0.004326541538,0.001289868647,0.005616410186,0.004061152028,0.000983164065,0.005044316093,0.0007186612952,8.001271078e-05,0.0007986740059,0.0006805406529,-3.922562075e-06,0.0006766180908,0.001765178053,0.0001792328828,0.001944410936,0.001750533462,-0.0002698615136,0.001480671949,0.001861062419,4.896674737e-05,0.001910029167,0.00112860031,-5.659713505e-05,0.001072003175,0.002241417044,2.202253227e-05,0.002263439576,0.002439505628,-0.0001515333942,0.002287972234,0.002910721028,0.0005802666088,0.003490987637,0.003382193519,0.0003012468428,0.003683440361,0.002813153064,-0.0001887073714,0.002624445692,0.002482939669,0.0002619086671,0.002744848336
4.9,0.0003367118835,-0.0003805868364,-4.387495286e-05,-0.0001773834841,8.45994189e-06,-0.0001689235422,-0.0001890423357,6.241991919e-05,-0.0001266224165,-0.001126460792,0.0007202509136,-0.0004062098783,0.000605279302,0.0003854083908,0.0009906876928,-0.0002652036216,0.0003623570585,9.715343692e-05,0.0007444877228,0.0001871258587,0.0009316135814,0.0005144120514,0.0001049496274,0.0006193616788,0.000809687854,0.0001916033458,0.0010012912,0.0001858678326,7.955563794e-05,0.0002654234705,0.0004146292142,0.0004057084595,0.0008203376737,4.338636176e-05,0.0003877504348,0.0004311367966,0.001030691306,0.0003876491236,0.00141834043,7.587731666e-06,-2.254318684e-05,-1.495545517e-05,0.000883844461,0.0001569367298,0.001040781191,0.0005629101698,1.009672197e-05,0.0005730068917,0.001429404902,0.0002083477578,0.001637752659,0.001100642396,-7.709689694e-05,0.001023545499,0.001687702651,0.0001058689759,0.001793571627,0.0004846324046,0.0002022680198,0.0006869004245,0.001051859322,0.0005757021265,0.001627561448,0.0007017536596,0.0003889256316,0.001090679291,0.004384064313,0.001301615043,0.005685679356,0.004096722861,0.001000760045,0.005097482906,0.0007040002689,8.518559204e-05,0.0007891858609,0.0006858289502,5.976069341e-06,0.0006918050196,0.001753165883,0.000177370521,0.001930536404,0.001775613159,-0.0002628226294,0.00151279053,0.001886265622,4.521955045e-05,0.001931485172,0.001134056324,-5.819737857e-05,0.001075858946,0.002262732941,1.872739156e-05,0.002281460332,0.002450778212,-0.0001571519573,0.002293626255,0.002916978535,0.0005755663773,0.003492544912,0.003355271876,0.0002991866668,0.003654458543,0.002820508188,-0.0002126606995,0.002607847489,0.002404322892,0.0002634701161,0.002667793009
5.0,0.0003778791786,-0.0003785020946,-6.229159607e-07,-0.0001664221985,4.190425657e-06,-0.0001622317729,-0.0001778871437,6.731199264e-05,-0.0001105751511,-0.001139387973,0.0007191761188,-0.000420211854,0.0006135157658,0.0003957922473,0.001009308013,-0.0002790190811,0.0003621502448,8.313116372e-05,0.000730313669,0.0001848879198,0.0009152015889,0.000492748059,9.56425723e-05,0.0005883906313,0.0007876821245,0.0001836174862,0.0009712996107,0.0001675938313,7.619504908e-05,0.0002437888804,0.0004166045196,0.0004027191442,0.0008193236638,6.936529181e-06,0.0003924541785,0.0003993907077,0.001015760845,0.0003984821709,0.001414243016,-2.030512759e-05,-2.003451207e-05,-4.033963965e-05,0.0008975792312,0.0001616546747,0.001059233906,0.0005732813515,1.045389116e-05,0.0005837352426,0.001440760593,0.0002040882716,0.001644848865,0.001104661391,-7.811969371e-05,0.001026541697,0.001691830939,0.0001017515787,0.001793582518,0.000472204106,0.0002026860073,0.0006748901133,0.001077069432,0.000575061236,0.001652130668,0.0006980173454,0.0003871734063,0.001085190752,0.004433264089,0.001311320514,0.005744584603,0.004123575322,0.001016877414,0.005140452736,0.0006864744022,9.027406807e-05,0.0007767484702,0.0006887556114,1.602728306e-05,0.0007047828945,0.001736341567,0.0001748327416,0.001911174309,0.001796418217,-0.0002553779562,0.001541040261,0.001907552988,4.1077986e-05,0.001948630974,0.001136890213,-5.994009968e-05,0.001076950113,0.002279641648,1.475136704e-05,0.002294393015,0.002457463483,-0.0001629627166,0.002294500766,0.002916021675,0.0005666685287,0.003482690204,0.003321814016,0.0002947031877,0.003616517204,0.002817134165,-0.0002330931733,0.002584040992,0.002317343245,0.0002649601175,0.002582303363
5.1,0.0004199573443,-0.000375514804,4.444254027e-05,-0.0001529791771,2.269555318e-07,-0.0001527522216,-0.0001660697198,7.239412303e-05,-9.36755968e-05,-0.001148865504,0.0007176858138,-0.0004311796901,0.000622944049,0.0004065725922,0.001029516641,-0.0002912320638,0.000362181306,7.094924218e-05,0.0007158295705,0.0001826969609,0.0008985265314,0.0004705513944,8.618462586e-05,0.0005567360203,0.0007655989711,0.0001756500547,0.0009412490258,0.0001491262477,7.295324513e-05,0.0002220794928,0.0004177376359,0.00040024487,0.0008179825059,-3.319981729e-05,0.0003975164721,0.0003643166548,0.0009971076319,0.0004101229744,0.001407230606,-4.945017699e-05,-1.749632481e-05,-6.69465018e-05,0.0009096457015,0.0001661136995,0.001075759401,0.0005811024493,1.084906864e-05,0.0005919515179,0.001448778921,0.0001996358859,0.001648414807,0.001105566658,-7.900496295e-05,0.001026561695,0.001692138607,9.757447563e-05,0.001789713082,0.000459300429,0.0002030258883,0.0006623263173,0.001100105827,0.000574119476,0.001674225303,0.0006934868265,0.0003853175295,0.001078804356,0.004474308224,0.001319032366,0.00579334059,0.00414204584,0.001031519197,0.005173565037,0.0006662076803,9.526510067e-05,0.000761472781,0.0006893451064,2.620973265e-05,0.000715554839,0.001714663811,0.0001716638011,0.001886327612,0.001812849101,-0.0002475534471,0.001565295654,0.001924924616,3.654997762e-05,0.001961474593,0.001137078322,-6.1806282e-05,0.00107527204,0.002292120427,1.010870116e-05,0.002302229129,0.002459535386,-0.0001689326582,0.002290602728,0.002908163417,0.0005534773615,0.003461640778,0.003282074282,0.0002878566438,0.003569930926,0.002803023977,-0.0002498695485,0.002553154429,0.002222547685,0.0002662645686,0.002488812253
5.2,0.0004625764052,-0.0003717499314,9.082647374e-05,-0.0001372991118,-3.451219206e-06,-0.000140750331,-0.0001538078255,7.758370635e-05,-7.622411912e-05,-0.001154941905,0.0007158004002,-0.0004391415048,0.0006335463474,0.0004177158941,0.001051262241,-0.0003017911625,0.0003624358088,6.064464635e-05,0.0007011193724,0.0001805445949,0.0008816639673,0.000447976538,7.659173792e-05,0.0005245682759,0.0007435489827,0.0001677240203,0.000911273003,0.0001305670615,6.983749253e-05,0.000200404554,0.0004180350227,0.0003983067199,0.0008163417425,-7.70024565e-05,0.0004028446223,0.0003258421658,0.0009747935342,0.0004224940481,0.001397287582,-7.977280642e-05,-1.495591572e-05,-9.472872214e-05,0.0009199660731,0.0001702782455,0.001090244319,0.0005862679531,1.129859952e-05,0.0005975665526,0.001453417034,0.0001950202156,0.001648437249,0.001103307833,-7.973105983e-05,0.001023576773,0.001688594409,9.336633806e-05,0.001781960747,0.0004460233671,0.0002032856157,0.0006493089827,0.001120926605,0.0005728876146,0.00169381422,0.0006882447043,0.0003833729414,0.001071617646,0.004507447852,0.001324818875,0.005832266727,0.004152559597,0.001044708441,0.005197268038,0.0006433382136,0.0001001499529,0.0007434881665,0.0006876364028,3.650253485e-05,0.0007241389376,0.001688115976,0.0001679136651,0.001856029641,0.001824828004,-0.0002393753146,0.00158545269,0.001938383648,3.164464063e-05,0.001970028289,0.001134590322,-6.377863082e-05,0.001070811691,0.002300145655,4.818869348e-06,0.002304964525,0.002456959828,-0.0001750311823,0.002281928645,0.002893730485,0.0005359161683,0.003429646653,0.003236287308,0.0002787332226,0.003515020531,0.00277820002,-0.0002628863717,0.002515313649,0.002120508475,0.0002672433776,0.002387751852
5.3,0.0005053636645,-0.0003673306017,0.0001380330628,-0.0001196547191,-6.865899082e-06,-0.0001265206182,-0.0001413241677,8.280329742e-05,-5.852087024e-05,-0.001157708278,0.0007135405047,-0.0004441677729,0.0006452842916,0.0004291890414,0.001074473333,-0.000310665786,0.0003628970851,5.223129909e-05,0.0006862573399,0.0001784225463,0.0008646798862,0.0004251752883,6.688081646e-05,0.0004920561048,0.0007216275984,0.0001598614989,0.0008814890973,0.0001120079572,6.685434343e-05,0.0001788623007,0.0004174962355,0.0003969238929,0.0008144201284,-0.0001244335521,0.0004083484722,0.0002839149201,0.0009488889945,0.0004354988765,0.001384387871,-0.0001111954646,-1.243818888e-05,-0.0001236336535,0.0009284530548,0.000174116141,0.001102569196,0.0005886667335,1.181814708e-05,0.0006004848806,0.001454623474,0.00019027206,0.001644895534,0.001097836286,-8.02780943e-05,0.001017558191,0.001681168635,8.915410432e-05,0.00177032274,0.0004324716649,0.000203464959,0.0006359366239,0.001139500858,0.0005713787929,0.001710879651,0.0006823752805,0.0003813558886,0.001063731169,0.004533008561,0.001328767039,0.005861775599,0.004155618548,0.001056486511,0.005212105059,0.0006180149358,0.0001049241251,0.0007229390609,0.0006836818663,4.688486567e-05,0.0007305667319,0.001656707662,0.0001636360868,0.001820343748,0.001832300253,-0.0002308715968,0.001601428656,0.001947935658,2.637250967e-05,0.001974308168,0.001129389863,-6.584191763e-05,0.001063547945,0.0023036931,-1.093344496e-06,0.002302599755,0.002449696096,-0.0001812305683,0.002268465527,0.002873053759,0.000513925048,0.003386978807,0.003184671097,0.0002674383043,0.003452109402,0.002742717534,-0.0002720767184,0.002470640815,0.002011810557,0.0002677374321,0.002279547989
5.4,0.0005479481583,-0.000362376762,0.0001855713963,-0.0001003423494,-1.003944416e-05,-0.0001103817935,-0.0001288428592,8.798143517e-05,-4.086142403e-05,-0.001157295857,0.0007109265581,-0.0004463692985,0.0006581025063,0.0004409597036,0.00109906221,-0.0003178454766,0.0003635465812,4.57011046e-05,0.0006713099021,0.0001763227754,0.0008476326776,0.0004022972065,5.706961577e-05,0.0004593668223,0.000699917707,0.000152083995,0.000852001702,9.353141667e-05,6.400958931e-05,0.000157541006,0.0004161153064,0.0003961136517,0.0008122289581,-0.0001754374596,0.0004139440045,0.0002385065449,0.0009194729932,0.0004490229919,0.001368495985,-0.0001436368738,-9.965061448e-06,-0.0001536019353,0.0009350104965,0.0001775994882,0.001112609985,0.0005881849728,1.242206972e-05,0.0006006070425,0.001452339425,0.0001854234747,0.0016377629,0.001089107733,-8.06285659e-05,0.001008479167,0.001669834328,8.496272399e-05,0.001754797052,0.0004187417329,0.0002035656266,0.0006223073595,0.001155808997,0.0005696081467,0.001725417143,0.0006759638303,0.0003792837011,0.001055247531,0.004551381857,0.001330980198,0.005882362055,0.004151790069,0.001066911177,0.005218701246,0.0005903952664,0.0001095871524,0.0006999824188,0.0006775469461,5.733559166e-05,0.0007348825377,0.001620477598,0.0001588866535,0.001779364251,0.001835236681,-0.0002220737702,0.001613162911,0.001953589765,2.074585746e-05,0.001974335623,0.001121436627,-6.798322871e-05,0.001053453398,0.002302739984,-7.597770713e-06,0.002295142213,0.002437700425,-0.0001875062211,0.002250194204,0.002846458903,0.0004874602129,0.003333919116,0.003127430664,0.000254090655,0.003381521319,0.002696672083,-0.0002774155143,0.002419256569,0.001897041215,0.0002675754956,0.00216461671
5.5,0.0005899666689,-0.0003570037897,0.0002329628792,-7.96759157e-05,-1.299427262e-05,-9.267018832e-05,-0.0001165849513,9.305333425e-05,-2.353161701e-05,-0.001153872627,0.0007079782801,-0.0004458943466,0.0006719330337,0.0004529965834,0.001124929617,-0.0003233385772,0.0003643642078,4.102563061e-05,0.0006563383239,0.0001742375852,0.0008305759091,0.0003794905733,4.717660172e-05,0.0004266671751,0.0006784925553,0.0001444124807,0.0008229050361,7.521226283e-05,6.130820746e-05,0.0001365204703,0.0004138826254,0.0003958912187,0.0008097738441,-0.000229939288,0.0004195562866,0.0001896169986,0.0008866339091,0.0004629356616,0.001349569571,-0.000177011044,-7.554954209e-06,-0.0001845659982,0.0009395349246,0.00018070535,0.001120240275,0.0005847103481,1.312310157e-05,0.0005978334497,0.001446502308,0.0001805075627,0.001627009871,0.00107708612,-8.076779819e-05,0.0009963183222,0.001654570192,8.081500599e-05,0.001735385198,0.0004049286577,0.000203591361,0.0006085200188,0.001169843205,0.0005675925059,0.001737435711,0.0006690961503,0.000377174432,0.001046270582,0.004563016282,0.00133157555,0.005894591832,0.004141695359,0.001076054553,0.005217749911,0.0005606437314,0.0001141422689,0.0006747860003,0.0006693103389,6.783299539e-05,0.0007371433343,0.001579497359,0.0001537210448,0.001733218404,0.001833636657,-0.0002130180494,0.001620618608,0.001955360353,1.477902655e-05,0.001970139379,0.001110688988,-7.019211918e-05,0.001040496869,0.002297268056,-1.465893622e-05,0.00228260912,0.002420930661,-0.0001938368787,0.002227093782,0.002814259676,0.0004564952648,0.003270754941,0.003064761666,0.0002388181184,0.003303579784,0.002640210062,-0.0002789250226,0.002361285039,0.00177678202,0.0002665805338,0.002043362554
5.6,0.0006310697683,-0.0003513212053,0.000279748563,-5.798083502e-05,-1.575249127e-05,-7.373332629e-05,-0.0001047642956,9.796137308e-05,-6.802922565e-06,-0.001147639716,0.0007047141948,-0.000442925521,0.0006866993144,0.0004652694993,0.001151968814,-0.0003271708442,0.0003653286422,3.815779799e-05,0.0006414011444,0.0001721596619,0.0008135608062,0.0003569030017,3.722073206e-05,0.0003941237337,0.0006574179311,0.0001368672403,0.0007942851714,5.711892122e-05,5.875428585e-05,0.0001158732071,0.0004107865141,0.0003962696033,0.0008070561174,-0.0002878430612,0.000425121242,0.0001372781808,0.0008504700953,0.0004770923631,0.001327562458,-0.0002112267733,-5.22250576e-06,-0.0002164492791,0.0009419174026,0.0001834162999,0.001125333703,0.00057813629,1.393225619e-05,0.0005920685462,0.001437050498,0.0001755579177,0.001612608416,0.001061747595,-8.068417982e-05,0.0009810634149,0.001635364035,7.673154991e-05,0.001712095585,0.0003911263545,0.0002035480656,0.0005946744201,0.001181607256,0.0005653502338,0.001746957489,0.0006618578589,0.0003750464674,0.001036904326,0.004568407191,0.001330681564,0.005899088755,0.004125996802,0.001084000917,0.005209997719,0.0005289310766,0.0001185959275,0.0006475270041,0.0006590639175,7.83546153e-05,0.0007374185328,0.001533874509,0.0001481941812,0.00168206869,0.001827530721,-0.0002037461621,0.001623784558,0.001953268149,8.488665651e-06,0.001961756815,0.001097106346,-7.246066271e-05,0.001024645684,0.002287266443,-2.223632478e-05,0.002265030118,0.002399350418,-0.0002002047959,0.002199145623,0.00277675332,0.000421024718,0.003197778038,0.002996853898,0.0002217545095,0.003218608407,0.002573539242,-0.0002766794579,0.002296859784,0.001651602578,0.0002645753307,0.001916177909
5.7,0.0006709264014,-0.0003454317048,0.0003254946966,-3.558941974e-05,-1.833572273e-05,-5.392514247e-05,-9.358474614e-05,0.0001026553539,9.070607786e-06,-0.001138828101,0.0007011512603,-0.0004376768408,0.0007023187991,0.0004777493064,0.001180068105,-0.000329384478,0.0003664176047,3.703312671e-05,0.000626555563,0.0001700820446,0.0007966376076,0.0003346811422,2.722115072e-05,0.0003619022929,0.0006367530502,0.0001294675452,0.0007662205954,3.931392998e-05,5.635095602e-05,9.566488601e-05,0.0004068139736,0.0003972594259,0.0008040733995,-0.0003490303891,0.0004305862105,8.155582149e-05,0.00081108917,0.000491338188,0.001302427358,-0.0002461880381,-2.978516989e-06,-0.0002491665551,0.0009420452161,0.0001857208834,0.0011277661,0.0005683653306,1.485879876e-05,0.0005832241293,0.001423927609,0.000170607889,0.001594535498,0.001043083414,-8.03692746e-05,0.0009627141392,0.001612215473,7.273067994e-05,0.001684946152,0.0003774265044,0.0002034439407,0.0005808704451,0.001191115343,0.0005629011579,0.001754016501,0.0006543332094,0.0003729181838,0.001027251393,0.004568085058,0.001328435325,0.005896520383,0.004105384152,0.001090844458,0.00519622861,0.000495433328,0.0001229572094,0.0006183905374,0.0006469118428,8.887718577e-05,0.0007357890286,0.00148375374,0.0001423608247,0.001626114565,0.001816981807,-0.0001943055634,0.001622676243,0.001947340085,1.893803413e-06,0.001949233888,0.001080650639,-7.478342895e-05,0.00100586721,0.002272733407,-3.028475251e-05,0.002242448654,0.002372931591,-0.0002065958457,0.002166335745,0.002734215452,0.0003810697944,0.003115285246,0.002923894357,0.0002030373598,0.003126931717,0.002496936781,-0.0002708079407,0.002226128841,0.001522055774,0.00026138737,0.001783443144
5.8,0.0007092264663,-0.0003394305983,0.000369795868,-1.283810116e-05,-2.076506894e-05,-3.36031701e-05,-8.323885589e-05,0.0001070925829,2.385372705e-05,-0.001127695764,0.000697304679,-0.0004303910848,0.000718704143,0.0004904077334,0.001209111876,-0.0003300376918,0.0003676081697,3.757047785e-05,0.000611857602,0.0001679980595,0.0007798556616,0.0003129694938,1.719683996e-05,0.0003301663338,0.0006165502481,0.0001222312746,0.0007387815227,2.185369299e-05,5.410035717e-05,7.595405016e-05,0.0004019506142,0.0003988688096,0.0008008194238,-0.00041336,0.000435909617,2.254961702e-05,0.0007686059843,0.0005055119948,0.001274117979,-0.0002817952329,-8.300271999e-07,-0.0002826252601,0.0009398033349,0.0001876138243,0.001127417159,0.0005553112393,1.591015131e-05,0.0005712213906,0.001407085388,0.0001656899389,0.001572775327,0.001021101298,-7.981783896e-05,0.0009412834592,0.001585137288,6.882832453e-05,0.001653965613,0.0003639165916,0.0002032895014,0.0005672060929,0.001198390145,0.0005602664487,0.001758656594,0.0006466035209,0.0003708076462,0.001017411167,0.004562603009,0.001324979856,0.005887582865,0.004080560223,0.001096686952,0.005177247175,0.0004603305202,0.000127237178,0.0005875676982,0.0006329687413,9.937665389e-05,0.0007323453952,0.001429315237,0.0001362777588,0.001565592996,0.001802084786,-0.0001847492181,0.001617335568,0.001937608128,-4.984237654e-06,0.001932623891,0.0010612871,-7.715741298e-05,0.0009841296871,0.002253676932,-3.875482222e-05,0.00221492211,0.002341655135,-0.0002129995665,0.002128655569,0.00268689293,0.0003366862338,0.003023579164,0.002846069614,0.0001828060926,0.003028875706,0.002410753997,-0.0002614961416,0.002149257856,0.001388674451,0.0002568530956,0.001645527547
5.9,0.0007456818505,-0.0003334055658,0.0004122762847,9.934133124e-06,-2.306105751e-05,-1.312692439e-05,-7.390749302e-05,0.0001112378439,3.73303509e-05,-0.001114525091,0.000693187906,-0.0004213371852,0.0007357636049,0.0005032172345,0.001238980839,-0.000329204595,0.0003688771295,3.967253451e-05,0.0005973614316,0.0001659012601,0.0007632626917,0.0002919087592,7.166275033e-06,0.0002990750342,0.0005968541258,0.0001151745769,0.0007120287027,4.787867411e-06,5.200361712e-05,5.679148453e-05,0.0003961802166,0.0004011033447,0.0007972835613,-0.0004806679511,0.0004410601404,-3.96078107e-05,0.0007231399818,0.000519450924,0.001242590906,-0.0003179468192,1.219565711e-06,-0.0003167272534,0.0009350759797,0.0001890957291,0.001124171709,0.0005389002577,1.709166496e-05,0.0005559919227,0.001386485316,0.0001608352347,0.001547320551,0.000995825491,-7.902772461e-05,0.0009167977664,0.001554155578,6.503788585e-05,0.001619193463,0.0003506777243,0.0002030974067,0.0005537751309,0.001203460633,0.0005574683544,0.001760928988,0.0006387455439,0.0003687323157,0.00100747786,0.004552524869,0.001320461563,0.005872986432,0.004052227313,0.001101635484,0.005153862797,0.0004238051596,0.000131448206,0.0005552533656,0.0006173572924,0.0001098282225,0.0007271855149,0.001370770354,0.0001300072778,0.001500777632,0.001782964757,-0.0001751351721,0.001607829585,0.001924107895,-1.212202278e-05,0.001911985872,0.001038984759,-7.95818684e-05,0.0009594028904,0.002230114659,-4.759345767e-05,0.002182521201,0.002305511065,-0.0002194091837,0.002086101881,0.002634995297,0.0002879729932,0.002922968291,0.00276356791,0.0001612001083,0.002924768018,0.002315418636,-0.000248987676,0.00206643096,0.001251969749,0.0002508216845,0.001502791434
6.0,0.0007800270174,-0.0003274365723,0.0004525904451,3.238732485e-05,-2.524340984e-05,7.143915002e-06,-6.575941747e-05,0.0001150632981,4.930388065e-05,-0.001099620061,0.0006888127847,-0.000410807276,0.0007534015686,0.0005161509198,0.001269552488,-0.0003269748923,0.0003702013659,4.322647357e-05,0.0005831186245,0.0001637853832,0.0007469040077,0.0002716344028,-2.852886118e-06,0.0002687815167,0.0005777011185,0.0001083116637,0.0006860127822,-1.184098529e-05,5.006083929e-05,3.8219854e-05,0.000389484624,0.0004039660912,0.0007934507151,-0.0005507679151,0.0004460156734,-0.0001047522417,0.00067481269,0.0005329950163,0.001207807706,-0.0003545407058,3.170365568e-06,-0.0003513703403,0.0009277486812,0.0001901723009,0.001117920982,0.0005190722058,1.840626549e-05,0.0005374784713,0.00136209983,0.000156073425,0.001518173255,0.0009672962647,-7.799956573e-05,0.0008892966989,0.001519309453,6.137018356e-05,0.001580679637,0.0003377830335,0.0002028822075,0.000540665241,0.001206360265,0.00055452985,0.001760890115,0.0006308301381,0.0003667088214,0.0009975389595,0.004538415121,0.001315027961,0.005853443082,0.004021075674,0.001105800312,0.005126875987,0.0003860407955,0.0001356032592,0.0005216440548,0.0006002058558,0.0001202063558,0.0007204122117,0.001308355707,0.0001236211917,0.001431976899,0.001759774799,-0.0001655260329,0.001594248766,0.001906878199,-1.949418244e-05,0.001887384017,0.001013717441,-8.205798638e-05,0.0009316594549,0.002202074229,-5.674454316e-05,0.002145329685,0.002264499051,-0.0002258214706,0.00203867758,0.002578686767,0.0002350799176,0.002813766684,0.00267658206,0.0001383567115,0.002814938772,0.00221143608,-0.0002335859644,0.001977850115,0.001112431641,0.0002431585617,0.001355590203
6.1,0.0008120204309,-0.0003215958278,0.0004904246031,5.418352865e-05,-2.733056708e-05,2.685296156e-05,-5.894985154e-05,0.0001185482848,5.959843323e-05,-0.001083302607,0.0006841896775,-0.0003991129292,0.0007715201021,0.0005291825629,0.001300702665,-0.0003234527892,0.000371558171,4.810538187e-05,0.0005691782702,0.0001616443173,0.0007308225875,0.0002522760716,-1.284403711e-05,0.0002394320345,0.0005591203784,0.0001016548133,0.0006607751917,-2.799688515e-05,4.827113155e-05,2.02742464e-05,0.0003818446311,0.0004074576216,0.0007893022527,-0.0006234506477,0.0004507621583,-0.0001726884894,0.0006237459791,0.0005459916607,0.00116973764,-0.0003914747187,5.02581604e-06,-0.0003864489027,0.0009177111345,0.0001908533536,0.001108564488,0.0004957824165,1.985403528e-05,0.0005156364518,0.001333914385,0.0001514325074,0.001485346892,0.0009355697922,-7.673617811e-05,0.0008588336141,0.001480651373,5.783353943e-05,0.001538484912,0.0003252973281,0.0002026601658,0.000527957494,0.001207126225,0.0005514743187,0.001758600544,0.0006229216166,0.0003647528814,0.000987674498,0.004520831705,0.001308825747,0.005829657451,0.003987774893,0.001109292923,0.005097067816,0.0003472212362,0.0001397150741,0.0004869363103,0.0005816468032,0.0001304847278,0.000712131531,0.001242327326,0.0001172042256,0.001359531551,0.001732693808,-0.0001559882445,0.001576705564,0.001885962538,-2.707353072e-05,0.001858889007,0.0009854659805,-8.458845316e-05,0.0009008775273,0.002169595191,-6.614971806e-05,0.002103445473,0.002218631012,-0.0002322362397,0.001986394773,0.002518080636,0.000178213241,0.002696293877,0.00258531426,0.0001144092957,0.002699723556,0.002099390868,-0.0002156559483,0.00188373492,0.0009705322141,0.0002337488868,0.001204281101
6.2,0.0008414477048,-0.0003159477477,0.0005254999571,7.499196963e-05,-2.933906472e-05,4.565290492e-05,-5.361758332e-05,0.0001216789884,6.806140505e-05,-0.001065907773,0.0006793275071,-0.0003865802655,0.0007900220167,0.0005422866311,0.001332308648,-0.0003187547481,0.0003729255136,5.417076551e-05,0.0005555885338,0.0001594720866,0.0007150606205,0.0002339581533,-2.27917431e-05,0.0002111664102,0.0005411361829,9.521456596e-05,0.0006363507489,-4.364888116e-05,4.663271925e-05,2.983838092e-06,0.0003732420948,0.0004115761355,0.0007848182303,-0.0006984820553,0.0004552922044,-0.000243189851,0.000570061795,0.0005582992912,0.001128361086,-0.0004286459753,6.792521549e-06,-0.0004218534538,0.0009048609075,0.0001911519228,0.00109601283,0.0004690050439,2.143185415e-05,0.0004904368981,0.001301931071,0.000146938779,0.00144886985,0.000900719128,-7.524181144e-05,0.0008254773166,0.001438248901,5.443402826e-05,0.001492682929,0.0003132781649,0.0002024491457,0.0005157273105,0.001205800079,0.0005483252904,0.00175412537,0.0006150779512,0.0003628793281,0.0009779572792,0.004500321531,0.001301999111,0.005802320642,0.003952968063,0.001112224211,0.005065192274,0.0003075307961,0.000143795182,0.0004513259782,0.0005618159377,0.0001406361567,0.0007024520944,0.001172956027,0.0001108561356,0.001283812162,0.001701924891,-0.0001465910404,0.00155533385,0.001861412584,-3.483117618e-05,0.001826581407,0.0009542217354,-8.717699613e-05,0.0008670447393,0.00213273299,-7.574936497e-05,0.002056983625,0.002167936106,-0.0002386554582,0.001929280648,0.002453236883,0.0001176396598,0.002570876542,0.002489983304,8.948602843e-05,0.002579469333,0.00197994828,-0.0001956236262,0.001784324654,0.0008267313257,0.0002225011034,0.001049232429
6.3,0.000868126286,-0.0003105489244,0.0005575773616,9.449585841e-05,-3.128295425e-05,6.321290416e-05,-4.98810917e-05,0.0001244479793,7.456688756e-05,-0.001047777862,0.0006742337396,-0.0003735441228,0.0008088149802,0.0005554382678,0.001364253248,-0.0003130063156,0.0003742822678,6.127595221e-05,0.0005423993471,0.0001572628539,0.000699662201,0.0002168010612,-3.268176589e-05,0.0001841192953,0.0005237710906,8.89999637e-05,0.0006127710543,-5.87689311e-05,4.514311987e-05,-1.362581123e-05,0.0003636627702,0.0004163176297,0.0007799803999,-0.0007756004108,0.0004596034035,-0.0003159970074,0.0005138836773,0.0005697897504,0.001083673428,-0.0004659496469,8.480030342e-06,-0.0004574696165,0.0008891075871,0.0001910836124,0.0010801912,0.0004387373707,2.313326565e-05,0.0004618706364,0.001266173526,0.0001426168582,0.001408790384,0.000862836363,-7.352156323e-05,0.0007893147997,0.001392187888,5.117583169e-05,0.001443363719,0.0003017776959,0.0002022684185,0.0005040461144,0.001202429458,0.0005451061657,0.001747535623,0.0006073516657,0.0003611020676,0.0009684537334,0.00447741744,0.001294688203,0.005772105643,0.003917267699,0.001114702768,0.005031970466,0.0002671554614,0.0001478528565,0.0004150083179,0.0005408528412,0.0001506325856,0.0006914854268,0.001100524348,0.0001046924063,0.001205216755,0.001667694426,-0.0001374051877,0.001530289238,0.001833292486,-4.273672327e-05,0.001790555763,0.0009199906543,-8.9828002e-05,0.0008301626523,0.002091564237,-8.548378435e-05,0.002006080453,0.002112466987,-0.0002450822183,0.001867384768,0.002384163336,5.368978761e-05,0.002437853124,0.002390833245,6.370919736e-05,0.002454542443,0.001853853571,-0.0001739711653,0.001679882406,0.0006814827778,0.0002093506428,0.0008908334206
6.4,0.0008919102888,-0.0003054481764,0.0005864621124,0.0001123991938,-3.317345622e-05,7.922573761e-05,-4.78349363e-05,0.0001268536593,7.901872302e-05,-0.001029256385,0.0006689143875,-0.0003603419979,0.000827815457,0.0005686131825,0.00139642864,-0.00030633872,0.0003756083988,6.926967874e-05,0.0005296650927,0.0001550109143,0.000684676007,0.0002009223431,-4.250108783e-05,0.0001584212553,0.0005070485909,8.30186643e-05,0.0005900672552,-7.333003904e-05,4.379929903e-05,-2.953074001e-05,0.0003530989335,0.0004216760573,0.0007747749908,-0.0008545143424,0.0004636965125,-0.0003908178299,0.0004553394398,0.0005803492704,0.00103568871,-0.0005032779268,1.010050295e-05,-0.0004931774238,0.0008703765847,0.0001906661913,0.001061042776,0.0004050039284,2.494867556e-05,0.000429952604,0.001226692049,0.0001384896066,0.001365181656,0.0008220351604,-7.15811618e-05,0.0007504539986,0.001342576108,4.80615821e-05,0.00139063769,0.0002908442086,0.0002021382808,0.0004929824894,0.001197069797,0.0005418399096,0.001738909707,0.0005997908975,0.0003594338738,0.0009592247712,0.004452635108,0.001287027712,0.00573966282,0.003881252075,0.001116833289,0.004998085364,0.0002262842751,0.0001518942316,0.0003781785067,0.0005189014762,0.0001604451399,0.0006793466161,0.00102532512,9.884319634e-05,0.001124168317,0.001630251255,-0.0001285016837,0.001501749571,0.001801682292,-5.075860166e-05,0.001750923691,0.0008827966702,-9.254617462e-05,0.0007902504956,0.002046191686,-9.52944933e-05,0.001950897192,0.002052305228,-0.0002515197812,0.001800785447,0.002310821459,-1.324052177e-05,0.002297580937,0.002288140839,3.719588764e-05,0.002325336727,0.001721926536,-0.0001512267825,0.001570699754,0.0005352387954,0.0001942636765,0.0007295024719
6.5,0.0009126937221,-0.0003006867623,0.0006120069598,0.0001284317904,-3.501892849e-05,9.341286186e-05,-4.754760294e-05,0.00012889962,8.135201709e-05,-0.001010682665,0.0006633740696,-0.000347308595,0.0008469512597,0.0005817874445,0.001428738704,-0.0002988859783,0.0003768850662,7.799908783e-05,0.000517446086,0.0001527106454,0.0006701567314,0.000186436836,-5.223802563e-05,0.0001341988104,0.0004909943558,7.72768877e-05,0.0005682712435,-8.730528333e-05,4.25977531e-05,-4.470753023e-05,0.0003415510175,0.0004276434318,0.0007691944493,-0.0009349031629,0.0004675739227,-0.0004673292402,0.0003945637019,0.0005898785949,0.0009844422968,-0.0005405198219,1.166820786e-05,-0.000528851614,0.0008486119529,0.0001899193868,0.00103853134,0.0003678591446,2.68658216e-05,0.0003947249662,0.001183567587,0.0001345777436,0.001318145331,0.0007784525576,-6.942711354e-05,0.0007090254441,0.001289546013,4.509264787e-05,0.001334638661,0.0002805225418,0.0002020795604,0.0004826021022,0.001189785213,0.0005385488191,0.001728334032,0.0005924400828,0.0003578860988,0.0009503261816,0.004426469051,0.001279145622,0.005705614673,0.003845461231,0.001118715169,0.0049641764,0.0001851100558,0.0001559218582,0.000341031914,0.0004961102567,0.0001700442816,0.0006661545384,0.0009476615713,9.345006168e-05,0.001041111633,0.001589865145,-0.0001199504938,0.001469914651,0.001766679388,-5.886447074e-05,0.001707814917,0.0008426835436,-9.533613112e-05,0.0007473474125,0.001996747463,-0.0001051255366,0.001891621927,0.001987564209,-0.0002579707374,0.001729593471,0.002233137466,-8.269366158e-05,0.002150443804,0.002182219229,1.006057322e-05,0.002192279802,0.001585051413,-0.0001279508544,0.001457100558,0.000388451944,0.0001772404252,0.0005656923692
6.6,0.0009304110524,-0.0002962988196,0.0006341122328,0.0001423516594,-3.682513597e-05,0.0001055265235,-4.906128122e-05,0.0001305938948,8.153261356e-05,-0.0009923875889,0.0006576161111,-0.0003347714778,0.0008661622186,0.0005949372232,0.001461099442,-0.0002907829219,0.0003780946413,8.731171939e-05,0.0005058083098,0.0001503564186,0.0006561647284,0.0001734556058,-6.188243557e-05,0.0001115731702,0.0004756359515,7.177928773e-05,0.0005474152392,-0.0001006678927,4.153453871e-05,-5.913335399e-05,0.0003290280274,0.0004342099026,0.0007632379299,-0.001016420061,0.0004712387675,-0.0005451812938,0.000331699081,0.0005982931054,0.0009299921864,-0.0005775619346,1.319889967e-05,-0.0005643630349,0.0008237779969,0.000188864782,0.001012642779,0.0003273878415,2.887034472e-05,0.0003562581862,0.001136913676,0.0001308991708,0.001267812846,0.0007322493187,-6.706713624e-05,0.0006651821825,0.001233255691,4.226936559e-05,0.001275525056,0.0002708532395,0.0002021131457,0.0004729663853,0.001180648144,0.0005352544708,0.001715902615,0.0005853400327,0.0003564684464,0.0009418084792,0.004399387804,0.001271162161,0.005670549965,0.003810392631,0.001120441279,0.00493083391,0.0001438289568,0.0001599347173,0.0003037636741,0.0004726311459,0.0001794000808,0.0006520312268,0.0008678483278,8.866075178e-05,0.0009565090796,0.00154682416,-0.000111819464,0.001435004696,0.001728397878,-6.702161416e-05,0.001661376264,0.0007997150253,-9.820191901e-05,0.0007015131063,0.001943393995,-0.0001149246691,0.001828469326,0.001918388924,-0.0002644361987,0.001653952726,0.002151017684,-0.000154159277,0.001996858407,0.00207341718,-1.758091056e-05,0.00205583627,0.001444163877,-0.0001047212885,0.001339442588,0.0002415749906,0.0001583175663,0.0003998925568
6.7,0.0009450351554,-0.0002923120315,0.0006527231239,0.0001539449891,-3.859573104e-05,0.0001153492581,-5.239325786e-05,0.0001319481197,7.955486188e-05,-0.0009746904776,0.0006516426578,-0.0003230478198,0.0008853993093,0.0006080385427,0.001493437852,-0.0002821641172,0.0003792206888,9.705657155e-05,0.0004948216549,0.0001479425273,0.0006427641822,0.0001620839397,-7.142592205e-05,9.065801766e-05,0.0004610015011,6.652887961e-05,0.0005275303807,-0.0001133920915,4.060530226e-05,-7.278678927e-05,0.0003155470132,0.0004413638505,0.0007569108638,-0.001098697602,0.0004746946269,-0.0006240029746,0.0002668956909,0.0006055237176,0.0008724194085,-0.0006142899953,1.470920874e-05,-0.0005995807866,0.0007958598402,0.0001875257402,0.0009833855804,0.0002837037322,3.094633422e-05,0.0003146500664,0.001086876133,0.0001274682784,0.001214344412,0.0006836087821,-6.451082127e-05,0.0006190979609,0.001173887948,3.959119105e-05,0.001213479139,0.0002618709208,0.0002022595667,0.0004641304876,0.001169738103,0.0005319777886,0.001701715892,0.0005785275727,0.0003551888194,0.000933716392,0.004371829043,0.001263188951,0.005635017994,0.003776497084,0.00112209695,0.004898594034,0.0001026389484,0.0001639284845,0.0002665674329,0.0004486178627,0.0001884825785,0.0006371004411,0.000786212412,8.462316987e-05,0.0008708355819,0.00150143111,-0.0001041735035,0.001397257607,0.001686966652,-7.519727707e-05,0.001611769375,0.0007539739045,-0.0001011465554,0.0006528273491,0.001886322919,-0.0001246442788,0.001761678641,0.001844953396,-0.0002709149601,0.001574038436,0.002064365356,-0.0002270864828,0.001837278873,0.001962114844,-4.560732372e-05,0.00191650752,0.001300236401,-8.212033732e-05,0.001218116063,9.505962599e-05,0.0001375694986,0.0002326291245
