Time,S1D1HbO,S1D1HbR,S1D1HbT,S2D2HbO,S2D2HbR,S2D2HbT,S3D3HbO,S3D3HbR,S3D3HbT,S4D4HbO,S4D4HbR,S4D4HbT,S5D5HbO,S5D5HbR,S5D5HbT,S6D6HbO,S6D6HbR,S6D6HbT,S7D7HbO,S7D7HbR,S7D7HbT,S8D8HbO,S8D8HbR,S8D8HbT,S9D9HbO,S9D9HbR,S9D9HbT,S10D10HbO,S10D10HbR,S10D10HbT,S11D11HbO,S11D11HbR,S11D11HbT,S12D12HbO,S12D12HbR,S12D12HbT,S13D13HbO,S13D13HbR,S13D13HbT,S14D14HbO,S14D14HbR,S14D14HbT,S15D15HbO,S15D15HbR,S15D15HbT,S16D16HbO,S16D16HbR,S16D16HbT,S17D17HbO,S17D17HbR,S17D17HbT,S18D18HbO,S18D18HbR,S18D18HbT,S19D19HbO,S19D19HbR,S19D19HbT,S20D20HbO,S20D20HbR,S20D20HbT,S21D21HbO,S21D21HbR,S21D21HbT,S22D22HbO,S22D22HbR,S22D22HbT,S23D23HbO,S23D23HbR,S23D23HbT,S24D24HbO,S24D24HbR,S24D24HbT,S25D25HbO,S25D25HbR,S25D25HbT,S26D26HbO,S26D26HbR,S26D26HbT,S27D27HbO,S27D27HbR,S27D27HbT,S28D28HbO,S28D28HbR,S28D28HbT,S29D29HbO,S29D29HbR,S29D29HbT,S30D30HbO,S30D30HbR,S30D30HbT,S31D31HbO,S31D31HbR,S31D31HbT,S32D32HbO,S32D32HbR,S32D32HbT,S33D33HbO,S33D33HbR,S33D33HbT,S34D34HbO,S34D34HbR,S34D34HbT,S35D35HbO,S35D35HbR,S35D35HbT,S36D36HbO,S36D36HbR,S36D36HbT,
-10,-6.994236938e-04,-7.415896434e-05,-7.735826581e-04,-4.884853801e-04,5.591656864e-05,-4.325688115e-04,-2.422621797e-04,-2.440967153e-04,-4.863588950e-04,-1.075347827e-04,-1.587645513e-04,-2.662993341e-04,-4.668390558e-04,1.422401137e-04,-3.245989421e-04,1.722944601e-05,1.882475546e-04,2.054770006e-04,-4.832748830e-04,1.645692449e-04,-3.187056382e-04,-1.000520197e-04,1.098009495e-04,9.748929783e-06,-5.298388834e-04,1.179466591e-04,-4.118922242e-04,-2.758596349e-04,8.339006227e-05,-1.924695726e-04,-6.820065199e-04,8.111650258e-05,-6.008900173e-04,-5.333440379e-04,-4.038098340e-05,-5.737250213e-04,-1.152834459e-03,2.282314660e-04,-9.246029928e-04,-4.324201435e-04,2.493448553e-05,-4.074856580e-04,-1.319676120e-03,7.531786621e-06,-1.312144333e-03,-1.052463984e-03,6.726754400e-05,-9.851964398e-04,-1.214943642e-03,1.906827156e-05,-1.195875370e-03,-1.357062952e-03,1.816621250e-04,-1.175400827e-03,-1.311304247e-03,4.211531122e-05,-1.269188936e-03,-1.481339659e-04,9.703822501e-05,-5.109574093e-05,-4.711313676e-04,2.055507599e-06,-4.690758600e-04,-5.138890547e-04,1.115560205e-04,-4.023330343e-04,-5.023286438e-04,-7.079261208e-08,-5.023994364e-04,-5.012064813e-04,1.830833610e-04,-3.181231203e-04,-5.407554270e-04,7.352968381e-07,-5.400201301e-04,-3.260743931e-04,-4.971295956e-05,-3.757873527e-04,-1.087386880e-03,8.269744092e-05,-1.004689439e-03,-7.400610144e-04,-1.429347619e-04,-8.829957764e-04,-1.474616127e-03,-7.869113350e-05,-1.553307261e-03,-1.301062029e-03,9.335977130e-05,-1.207702258e-03,-1.634473201e-03,-1.763427787e-04,-1.810815980e-03,-1.593039668e-03,-6.028902338e-06,-1.599068570e-03,-2.848035116e-03,-6.304402358e-04,-3.478475352e-03,-1.258375625e-03,-2.425960961e-04,-1.500971721e-03,-1.819878071e-03,3.187195273e-04,-1.501158544e-03,-2.068959542e-03,-1.512227726e-04,-2.220182315e-03
-9.9,-6.790843810e-04,-7.163646417e-05,-7.507208452e-04,-4.456102453e-04,6.065377824e-05,-3.849564671e-04,-2.288532321e-04,-2.321302245e-04,-4.609834566e-04,-7.892125687e-05,-1.368551707e-04,-2.157764276e-04,-4.480189135e-04,1.430319226e-04,-3.049869909e-04,4.276341542e-05,1.890599245e-04,2.318233399e-04,-4.536612505e-04,1.638891837e-04,-2.897720668e-04,-7.539038916e-05,1.079335113e-04,3.254312219e-05,-4.924706218e-04,1.193438907e-04,-3.731267311e-04,-2.461631072e-04,8.258642208e-05,-1.635766851e-04,-6.438347439e-04,7.851471013e-05,-5.653200337e-04,-4.871750668e-04,-4.521545900e-05,-5.323905258e-04,-1.104977038e-03,2.339015168e-04,-8.710755215e-04,-4.121418378e-04,2.352740732e-05,-3.886144304e-04,-1.293562064e-03,1.043786253e-05,-1.283124201e-03,-1.041045907e-03,6.618186427e-05,-9.748640426e-04,-1.198338473e-03,2.134136538e-05,-1.176997108e-03,-1.337183935e-03,1.775333878e-04,-1.159650548e-03,-1.285680478e-03,4.491308898e-05,-1.240767389e-03,-1.228536141e-04,9.520979574e-05,-2.764381834e-05,-4.437321415e-04,6.495197952e-06,-4.372369436e-04,-4.819979137e-04,1.129533419e-04,-3.690445718e-04,-4.901212921e-04,3.081240230e-06,-4.870400519e-04,-4.660536652e-04,1.819751774e-04,-2.840784878e-04,-5.061098343e-04,-9.179125737e-07,-5.070277469e-04,-3.123235398e-04,-4.763686205e-05,-3.599604018e-04,-1.056230428e-03,9.502674534e-05,-9.612036830e-04,-7.174221100e-04,-1.403104999e-04,-8.577326099e-04,-1.452639866e-03,-7.427077583e-05,-1.526910642e-03,-1.272100289e-03,9.534126399e-05,-1.176759025e-03,-1.606437362e-03,-1.674393697e-04,-1.773876731e-03,-1.557143680e-03,-6.575177534e-06,-1.563718857e-03,-2.782199943e-03,-6.128247373e-04,-3.395024681e-03,-1.227843411e-03,-2.246221780e-04,-1.452465589e-03,-1.789873053e-03,3.318931570e-04,-1.457979896e-03,-2.008251050e-03,-1.423406479e-04,-2.150591698e-03
-9.8,-6.595057660e-04,-6.914040280e-05,-7.286461688e-04,-4.040827055e-04,6.524955832e-05,-3.388331472e-04,-2.162098397e-04,-2.199099759e-04,-4.361198156e-04,-5.050588408e-05,-1.151820770e-04,-1.656879611e-04,-4.292052668e-04,1.439055848e-04,-2.852996820e-04,6.812895098e-05,1.894455867e-04,2.575745377e-04,-4.247075685e-04,1.629841181e-04,-2.617234504e-04,-5.120416860e-05,1.058532072e-04,5.464903855e-05,-4.557725374e-04,1.206645705e-04,-3.351079669e-04,-2.166816001e-04,8.169201386e-05,-1.349895862e-04,-6.054543174e-04,7.584856986e-05,-5.296057476e-04,-4.414066826e-04,-4.986525067e-05,-4.912719333e-04,-1.057046009e-03,2.397303063e-04,-8.173157028e-04,-3.922780623e-04,2.211839343e-05,-3.701596689e-04,-1.266901733e-03,1.316949986e-05,-1.253732233e-03,-1.029361622e-03,6.499371604e-05,-9.643679055e-04,-1.180873036e-03,2.343637160e-05,-1.157436665e-03,-1.317110597e-03,1.733538498e-04,-1.143756748e-03,-1.259944832e-03,4.762184383e-05,-1.212322988e-03,-9.760673612e-05,9.315064837e-05,-4.456087748e-06,-4.161777535e-04,1.046994938e-05,-4.057078041e-04,-4.497611836e-04,1.143616348e-04,-3.353995488e-04,-4.772377476e-04,6.329085564e-06,-4.709086620e-04,-4.311603168e-04,1.809395407e-04,-2.502207761e-04,-4.714434192e-04,-2.437701184e-06,-4.738811204e-04,-2.986543980e-04,-4.540750925e-05,-3.440619072e-04,-1.024298127e-03,1.063466564e-04,-9.179514702e-04,-6.950805423e-04,-1.371755883e-04,-8.322561306e-04,-1.429832396e-03,-6.982339761e-05,-1.499655793e-03,-1.242574465e-03,9.734411612e-05,-1.145230349e-03,-1.577663373e-03,-1.583472722e-04,-1.736010646e-03,-1.521223064e-03,-6.665818157e-06,-1.527888882e-03,-2.719067728e-03,-5.912986257e-04,-3.310366353e-03,-1.198391596e-03,-2.051965601e-04,-1.403588156e-03,-1.757192222e-03,3.419870160e-04,-1.415205206e-03,-1.948104860e-03,-1.322022535e-04,-2.080307113e-03
-9.7,-6.406999481e-04,-6.666583303e-05,-7.073657811e-04,-3.639317848e-04,6.969725154e-05,-2.942345332e-04,-2.043433745e-04,-2.074533466e-04,-4.117967211e-04,-2.233068806e-05,-9.380032165e-05,-1.161310097e-04,-4.104563761e-04,1.448562523e-04,-2.656001238e-04,9.332993067e-05,1.894167373e-04,2.827466680e-04,-3.964851903e-04,1.618594008e-04,-2.346257896e-04,-2.751943399e-05,1.035694139e-04,7.604997992e-05,-4.198457220e-04,1.219016942e-04,-2.979440278e-04,-1.875202409e-04,8.070732128e-05,-1.068129196e-04,-5.669714847e-04,7.313620999e-05,-4.938352747e-04,-3.960495365e-04,-5.431836396e-05,-4.503679005e-04,-1.009042857e-03,2.455689952e-04,-7.634738621e-04,-3.728322337e-04,2.072372804e-05,-3.521085057e-04,-1.239714050e-03,1.573663373e-05,-1.223977417e-03,-1.017404063e-03,6.371466964e-05,-9.536893929e-04,-1.162616710e-03,2.538934346e-05,-1.137227366e-03,-1.296813416e-03,1.691278263e-04,-1.127685589e-03,-1.234112679e-03,5.023428802e-05,-1.183878391e-03,-7.245542962e-05,9.087165097e-05,1.841622135e-05,-3.885134691e-04,1.398762420e-05,-3.745258449e-04,-4.172435833e-04,1.157587921e-04,-3.014847912e-04,-4.636579500e-04,9.674125458e-06,-4.539838245e-04,-3.966266013e-04,1.799430068e-04,-2.166835945e-04,-4.368360499e-04,-3.784651825e-06,-4.406207017e-04,-2.850766887e-04,-4.304525653e-05,-3.281219452e-04,-9.915407293e-04,1.166053253e-04,-8.749354041e-04,-6.730659093e-04,-1.335381386e-04,-8.066040479e-04,-1.406204444e-03,-6.534578059e-05,-1.471550225e-03,-1.212506471e-03,9.935497413e-05,-1.113151497e-03,-1.548208223e-03,-1.490798449e-04,-1.697288068e-03,-1.485291768e-03,-6.295204807e-06,-1.491586973e-03,-2.658928549e-03,-5.657812735e-04,-3.224709823e-03,-1.170021924e-03,-1.844692529e-04,-1.354491177e-03,-1.721733174e-03,3.489956576e-04,-1.372737517e-03,-1.888472657e-03,-1.209256162e-04,-2.009398274e-03
-9.6,-6.226753920e-04,-6.420625832e-05,-6.868816503e-04,-3.251773475e-04,7.399104967e-05,-2.511862979e-04,-1.932644185e-04,-1.947787271e-04,-3.880431456e-04,5.561801533e-06,-7.276323523e-05,-6.720143370e-05,-3.918311067e-04,1.458785735e-04,-2.459525331e-04,1.183662788e-04,1.889879213e-04,3.073542001e-04,-3.690637437e-04,1.605219260e-04,-2.085418177e-04,-4.361741270e-06,1.010928569e-04,9.673111567e-05,-3.847906104e-04,1.230478712e-04,-2.617427393e-04,-1.587854600e-04,7.963259537e-05,-7.915286459e-05,-5.284908626e-04,7.039560483e-05,-4.580952578e-04,-3.511161597e-04,-5.856436268e-05,-4.096805224e-04,-9.609647916e-04,2.512605713e-04,-7.097042202e-04,-3.538064103e-04,1.936046092e-05,-3.344459494e-04,-1.212021628e-03,1.815335409e-05,-1.193868273e-03,-1.005168866e-03,6.235995928e-05,-9.428089067e-04,-1.143643691e-03,2.723765436e-05,-1.116406037e-03,-1.276264458e-03,1.648630661e-04,-1.111401392e-03,-1.208200482e-03,5.274406670e-05,-1.155456415e-03,-4.746239306e-05,8.838589137e-05,4.092349831e-05,-3.607830024e-04,1.706140308e-05,-3.437215994e-04,-3.845156103e-04,1.171224185e-04,-2.673931918e-04,-4.493763814e-04,1.311566142e-05,-4.362607200e-04,-3.625531017e-04,1.789532405e-04,-1.835998612e-04,-4.023644612e-04,-4.921335459e-06,-4.072857966e-04,-2.716005560e-04,-4.056846247e-05,-3.121690185e-04,-9.579137356e-04,1.257591560e-04,-8.321545795e-04,-6.514089245e-04,-1.294092791e-04,-7.808182035e-04,-1.381771436e-03,-6.083390364e-05,-1.442605339e-03,-1.181925866e-03,1.013615256e-04,-1.080564340e-03,-1.518130109e-03,-1.396547236e-04,-1.657784833e-03,-1.449367824e-03,-5.460065085e-06,-1.454827889e-03,-2.602058171e-03,-5.362425729e-04,-3.138300744e-03,-1.142725949e-03,-1.626142647e-04,-1.305340214e-03,-1.683453902e-03,3.529508905e-04,-1.330503011e-03,-1.829281539e-03,-1.086595732e-04,-1.937941113e-03
-9.5,-6.054364877e-04,-6.175354923e-05,-6.671900370e-04,-2.878298557e-04,7.812600269e-05,-2.097038531e-04,-1.829827652e-04,-1.819054489e-04,-3.648882141e-04,3.312850289e-05,-5.212204791e-05,-1.899354502e-05,-3.733881420e-04,1.469668647e-04,-2.264212773e-04,1.432330696e-04,1.881759607e-04,3.314090303e-04,-3.425101719e-04,1.589801562e-04,-1.835300157e-04,1.824392268e-05,9.843571009e-05,1.166796328e-04,-3.507062769e-04,1.240953192e-04,-2.266109577e-04,-1.305843449e-04,7.846789828e-05,-5.211644660e-05,-4.901155322e-04,6.764450282e-05,-4.224710294e-04,-3.066213804e-04,-6.259284671e-05,-3.692142271e-04,-9.128036496e-04,2.566407556e-04,-6.561628940e-04,-3.352010576e-04,1.804607409e-05,-3.171549835e-04,-1.183850537e-03,2.043745188e-05,-1.163413086e-03,-9.926545321e-04,6.094850394e-05,-9.317060282e-04,-1.124031955e-03,2.901867842e-05,-1.095013277e-03,-1.255437643e-03,1.605707754e-04,-1.094866868e-03,-1.182225911e-03,5.514586414e-05,-1.127080047e-03,-2.269121343e-05,8.570876650e-05,6.301755306e-05,-3.330289549e-04,1.970972649e-05,-3.133192284e-04,-3.516537422e-04,1.184301702e-04,-2.332235720e-04,-4.344032755e-04,1.665087456e-05,-4.177524009e-04,-3.290416020e-04,1.779392900e-04,-1.511023120e-04,-3.681010356e-04,-5.813061047e-06,-3.739140966e-04,-2.582365386e-04,-3.799321228e-05,-2.962297509e-04,-9.233787965e-04,1.337714984e-04,-7.896072981e-04,-6.301418957e-04,-1.248026230e-04,-7.549445187e-04,-1.356554224e-03,-5.628309402e-05,-1.412837318e-03,-1.150869847e-03,1.033520894e-04,-1.047517757e-03,-1.487488716e-03,-1.300935980e-04,-1.617582314e-03,-1.413473770e-03,-4.159731663e-06,-1.417633502e-03,-2.548706266e-03,-5.027114742e-04,-3.051417740e-03,-1.116487768e-03,-1.398262573e-04,-1.256314026e-03,-1.642377569e-03,3.539181111e-04,-1.288459458e-03,-1.770437405e-03,-9.558095502e-05,-1.866018360e-03
-9.4,-5.889846994e-04,-5.929802857e-05,-6.482827280e-04,-2.518921202e-04,8.209790819e-05,-1.697942121e-04,-1.735085420e-04,-1.688537007e-04,-3.423622428e-04,6.032482401e-05,-3.192538977e-05,2.839943423e-05,-3.551863912e-04,1.481152814e-04,-2.070711098e-04,1.679189604e-04,1.869998422e-04,3.549188025e-04,-3.168889653e-04,1.572441037e-04,-1.596448616e-04,4.027212509e-05,9.561168019e-05,1.358838053e-04,-3.176906037e-04,1.250358098e-04,-1.926547938e-04,-1.030247680e-04,7.721312424e-05,-2.581164376e-05,-4.519479799e-04,6.490034350e-05,-3.870476364e-04,-2.625846419e-04,-6.639150592e-05,-3.289761478e-04,-8.645461847e-04,2.615390577e-04,-6.030071271e-04,-3.170155319e-04,1.679800700e-05,-3.002175249e-04,-1.155230528e-03,2.261003006e-05,-1.132620498e-03,-9.798636905e-04,5.950287189e-05,-9.203608186e-04,-1.103863697e-03,3.076862813e-05,-1.073095069e-03,-1.234309669e-03,1.562653630e-04,-1.078044306e-03,-1.156208908e-03,5.743541355e-05,-1.098773495e-03,1.792414628e-06,8.285798667e-05,8.465040130e-05,-3.052939176e-04,2.195599219e-05,-2.833379254e-04,-3.187409261e-04,1.196600473e-04,-1.990808788e-04,-4.187663363e-04,2.027478191e-05,-3.984915544e-04,-2.961965475e-04,1.768718777e-04,-1.193246699e-04,-3.341132673e-04,-6.428307553e-06,-3.405415748e-04,-2.449958914e-04,-3.533317100e-05,-2.803290624e-04,-8.879065703e-04,1.406125105e-04,-7.472940598e-04,-6.092996589e-04,-1.197336098e-04,-7.290332687e-04,-1.330580826e-03,-5.168828831e-05,-1.382269114e-03,-1.119383957e-03,1.053151887e-04,-1.014068769e-03,-1.456346827e-03,-1.204219754e-04,-1.576768802e-03,-1.377638124e-03,-2.397148324e-06,-1.380035273e-03,-2.499084731e-03,-4.652815774e-04,-2.964366308e-03,-1.091289443e-03,-1.163171750e-04,-1.207606618e-03,-1.598595409e-03,3.519917395e-04,-1.246603669e-03,-1.711831576e-03,-8.188994617e-05,-1.793721522e-03
-9.3,-5.733207409e-04,-5.682866215e-05,-6.301494031e-04,-2.173623146e-04,8.590322051e-05,-1.314590941e-04,-1.648538873e-04,-1.556444354e-04,-3.204983227e-04,8.710311854e-05,-1.221881676e-05,7.488430178e-05,-3.372860866e-04,1.493180182e-04,-1.879680683e-04,1.924043074e-04,1.854804883e-04,3.778847957e-04,-2.922631910e-04,1.553252549e-04,-1.369379361e-04,6.169535559e-05,9.263605046e-05,1.543314061e-04,-2.858407648e-04,1.258606655e-04,-1.599800993e-04,-7.621581974e-05,7.586800015e-05,-3.478195951e-07,-4.140913687e-04,6.218017053e-05,-3.519111981e-04,-2.190326175e-04,-6.994430193e-05,-2.889769195e-04,-8.161758862e-04,2.657805574e-04,-5.503953289e-04,-2.992488296e-04,1.563314133e-05,-2.836156883e-04,-1.126195583e-03,2.469528615e-05,-1.101500297e-03,-9.668049465e-04,5.804905736e-05,-9.087558892e-04,-1.083226870e-03,3.252148310e-05,-1.050705387e-03,-1.212861529e-03,1.519640399e-04,-1.060897489e-03,-1.130173459e-03,5.960939629e-05,-1.070564062e-03,2.591922080e-05,7.985357542e-05,1.057727962e-04,-2.776218185e-04,2.382811082e-05,-2.537937077e-04,-2.858671650e-04,1.207907438e-04,-1.650764212e-04,-4.025119372e-04,2.398027766e-05,-3.785316596e-04,-2.641262298e-04,1.757237086e-04,-8.840252124e-05,-3.004638306e-04,-6.738933948e-06,-3.072027646e-04,-2.318911637e-04,-3.259953697e-05,-2.644907007e-04,-8.514805500e-04,1.462601891e-04,-7.052203609e-04,-5.889205008e-04,-1.142189777e-04,-7.031394785e-04,-1.303888263e-03,-4.704434422e-05,-1.350932607e-03,-1.087522972e-03,1.072392164e-04,-9.802837560e-04,-1.424772659e-03,-1.106688435e-04,-1.535441502e-03,-1.341897045e-03,-1.803546568e-07,-1.342077400e-03,-2.453358249e-03,-4.241129336e-04,-2.877471182e-03,-1.067118735e-03,-9.231229875e-05,-1.159431033e-03,-1.552267488e-03,3.472906823e-04,-1.204976806e-03,-1.653350154e-03,-6.780364776e-05,-1.721153802e-03
-9.2,-5.584466308e-04,-5.433330154e-05,-6.127799323e-04,-1.842368349e-04,8.953905604e-05,-9.469777890e-05,-1.570342331e-04,-1.422992844e-04,-2.993335175e-04,1.134112435e-04,6.955455240e-06,1.203666988e-04,-3.197496644e-04,1.505695253e-04,-1.691801391e-04,2.166595956e-04,1.836403905e-04,4.002999861e-04,-2.686954383e-04,1.532364502e-04,-1.154589881e-04,8.248265645e-05,8.952565427e-05,1.720083107e-04,-2.552531701e-04,1.265609351e-04,-1.286922350e-04,-5.026783531e-05,7.443211712e-05,2.416428181e-05,-3.766503942e-04,5.950059004e-05,-3.171498042e-04,-1.760004470e-04,-7.323040540e-05,-2.492308524e-04,-7.676759329e-04,2.691891595e-04,-4.984867734e-04,-2.818999475e-04,1.456738532e-05,-2.673325622e-04,-1.096784451e-03,2.672038502e-05,-1.070064066e-03,-9.534943631e-04,5.661594155e-05,-8.968784216e-04,-1.062216800e-03,3.430794657e-05,-1.027908853e-03,-1.191080131e-03,1.476864372e-04,-1.043393694e-03,-1.104149323e-03,6.166522726e-05,-1.042484095e-03,4.961558612e-05,7.671789936e-05,1.263334855e-04,-2.500588274e-04,2.535798951e-05,-2.247008379e-04,-2.531297892e-04,1.218021134e-04,-1.313276758e-04,-3.857046406e-04,2.775829481e-05,-3.579463458e-04,-2.329426688e-04,1.744697461e-04,-5.847292279e-05,-2.672109397e-04,-6.720359031e-06,-2.739312988e-04,-2.189367707e-04,-2.980109810e-05,-2.487378688e-04,-8.141010013e-04,1.507022117e-04,-6.633987897e-04,-5.690466499e-04,-1.082764385e-04,-6.773230885e-04,-1.276523377e-03,-4.234637681e-05,-1.318869753e-03,-1.055351033e-03,1.091121822e-04,-9.462388507e-04,-1.392841928e-03,-1.008660570e-04,-1.493707985e-03,-1.306294885e-03,2.475962527e-06,-1.303818922e-03,-2.411637503e-03,-3.794307220e-04,-2.791068225e-03,-1.043977277e-03,-6.804509249e-05,-1.112022370e-03,-1.503621275e-03,3.399548004e-04,-1.163666475e-03,-1.594884566e-03,-5.354884926e-05,-1.648433416e-03
-9.1,-5.443662799e-04,-5.179892726e-05,-5.961652072e-04,-1.525114289e-04,9.300333175e-05,-5.950809713e-05,-1.500681494e-04,-1.288404643e-04,-2.789086137e-04,1.391920743e-04,2.555851100e-05,1.647505853e-04,-3.026413644e-04,1.518647145e-04,-1.507766499e-04,2.406448385e-04,1.815031732e-04,4.221480116e-04,-2.462476105e-04,1.509917627e-04,-9.525584785e-05,1.025994747e-04,8.629878016e-05,1.888982548e-04,-2.260220544e-04,1.271277863e-04,-9.889426810e-05,-2.529133238e-05,7.290502206e-05,4.761368968e-05,-3.397310416e-04,5.687780035e-05,-2.828532413e-04,-1.335304476e-04,-7.622422316e-05,-2.097546708e-04,-7.190323674e-04,2.715925633e-04,-4.474398040e-04,-2.649672627e-04,1.361543366e-05,-2.513518291e-04,-1.067040662e-03,2.871520548e-05,-1.038325456e-03,-9.399555774e-04,5.523446404e-05,-8.847211133e-04,-1.040936606e-03,3.615449514e-05,-1.004782111e-03,-1.168959196e-03,1.434542615e-04,-1.025504934e-03,-1.078172722e-03,6.360073347e-05,-1.014571988e-03,7.280425670e-05,7.347563607e-05,1.462798928e-04,-2.226531500e-04,2.658089296e-05,-1.960722570e-04,-2.206329455e-04,1.226756555e-04,-9.795729001e-05,-3.684243636e-04,3.159806355e-05,-3.368263001e-04,-2.027596366e-04,1.730874061e-04,-2.967223045e-05,-2.344085349e-04,-6.351901611e-06,-2.407604365e-04,-2.061492445e-04,-2.694442544e-05,-2.330936700e-04,-7.757883371e-04,1.539383193e-04,-6.218500178e-04,-5.497240978e-04,-1.019244360e-04,-6.516485338e-04,-1.248541736e-03,-3.759010533e-05,-1.286131842e-03,-1.022940254e-03,1.109215046e-04,-9.120187492e-04,-1.360638554e-03,-9.104740989e-05,-1.451685964e-03,-1.270882490e-03,5.549204427e-06,-1.265333285e-03,-2.373974271e-03,-3.315217334e-04,-2.705496004e-03,-1.021886393e-03,-4.375096151e-05,-1.065637355e-03,-1.452947960e-03,3.301434052e-04,-1.122804555e-03,-1.536341496e-03,-3.935506488e-05,-1.575696561e-03
-9,-5.310837824e-04,-4.921181686e-05,-5.802955993e-04,-1.221797436e-04,9.629504175e-05,-2.588470188e-05,-1.439751944e-04,-1.152906564e-04,-2.592658508e-04,1.643845454e-04,4.355444215e-05,2.079389875e-04,-2.860249322e-04,1.531991297e-04,-1.328258024e-04,2.643103056e-04,1.790931557e-04,4.434034613e-04,-2.249789091e-04,1.486063931e-04,-7.637251597e-05,1.220091856e-04,8.297502733e-05,2.049842129e-04,-1.982364434e-04,1.275529954e-04,-7.068344800e-05,-1.394617748e-06,7.128633315e-05,6.989171540e-05,-3.034390578e-04,5.432764380e-05,-2.491114140e-04,-9.166822601e-05,-7.889630705e-05,-1.705645331e-04,-6.702367849e-04,2.728283373e-04,-3.974084476e-04,-2.484467886e-04,1.279065457e-05,-2.356561340e-04,-1.037011824e-03,3.071183259e-05,-1.006299991e-03,-9.262180036e-04,5.393667566e-05,-8.722813279e-04,-1.019495654e-03,3.808266862e-05,-9.814129852e-04,-1.146498692e-03,1.392909330e-04,-1.007207759e-03,-1.052285259e-03,6.541383341e-05,-9.868714257e-04,9.540659757e-05,7.015355646e-05,1.655601540e-04,-1.954536138e-04,2.753464356e-05,-1.679189702e-04,-1.884861156e-04,1.233948578e-04,-6.509125775e-05,-3.507616373e-04,3.548741506e-05,-3.152742223e-04,-1.736892143e-04,1.715566657e-04,-2.132548638e-06,-2.021059352e-04,-5.617271122e-06,-2.077232064e-04,-1.935469702e-04,-2.403421987e-05,-2.175811901e-04,-7.365854900e-04,1.559829401e-04,-5.806025499e-04,-5.310015145e-04,-9.518192860e-05,-6.261834431e-04,-1.220004711e-03,-3.277219020e-05,-1.252776901e-03,-9.903678178e-04,1.126539030e-04,-8.777139148e-04,-1.328253450e-03,-8.124757662e-05,-1.409501026e-03,-1.235713079e-03,9.008167386e-06,-1.226704912e-03,-2.340357587e-03,-2.807291652e-04,-2.621086752e-03,-1.000888084e-03,-1.966091171e-05,-1.020548996e-03,-1.400596307e-03,3.180359693e-04,-1.082560338e-03,-1.477650938e-03,-2.544778734e-05,-1.503098725e-03
-8.9,-5.185998212e-04,-4.655759359e-05,-5.651574148e-04,-9.322991629e-05,9.941458464e-05,6.184668346e-06,-1.387722889e-04,-1.016728859e-04,-2.404451748e-04,1.889260131e-04,6.090994390e-05,2.498359570e-04,-2.699598836e-04,1.545690362e-04,-1.153908474e-04,2.875983474e-04,1.764349017e-04,4.640332491e-04,-2.049423476e-04,1.460965412e-04,-5.884580644e-05,1.406757983e-04,7.957510732e-05,2.202509057e-04,-1.719761054e-04,1.278293558e-04,-4.414674956e-05,2.131947221e-05,6.957583108e-05,9.089530329e-05,-2.678776998e-04,5.186559675e-05,-2.160121030e-04,-5.045754536e-05,-8.121449524e-05,-1.316720406e-04,-6.212886998e-04,2.727500801e-04,-3.485386197e-04,-2.323298464e-04,1.210500208e-05,-2.202248443e-04,-1.006748335e-03,3.274385181e-05,-9.740044832e-04,-9.123134755e-04,5.275482960e-05,-8.595586459e-04,-9.980061845e-04,4.010865859e-05,-9.578975259e-04,-1.123702908e-03,1.352211993e-04,-9.884817090e-04,-1.026531268e-03,6.710241835e-05,-9.594288494e-04,1.173455073e-04,6.678010873e-05,1.841256160e-04,-1.685077693e-04,2.825875481e-05,-1.402490145e-04,-1.568019578e-04,1.239453394e-04,-3.285661842e-05,-3.328123808e-04,3.941307929e-05,-2.933993015e-04,-1.458380460e-04,1.698601019e-04,2.402205586e-05,-1.703469715e-04,-4.504998282e-06,-1.748519698e-04,-1.811495056e-04,-2.107374413e-05,-2.022232497e-04,-6.965589112e-04,1.568674996e-04,-5.396914116e-04,-5.129281945e-04,-8.806822716e-05,-6.009964217e-04,-1.190975798e-03,-2.789055799e-05,-1.218866356e-03,-9.577124282e-04,1.142954810e-04,-8.434169472e-04,-1.295781850e-03,-7.150114829e-05,-1.367282998e-03,-1.200836902e-03,1.281310682e-05,-1.188023795e-03,-2.310710720e-03,-2.274459251e-04,-2.538156645e-03,-9.810403801e-04,4.003548148e-06,-9.770368319e-04,-1.346963437e-03,3.038334028e-04,-1.043130034e-03,-1.418771854e-03,-1.204127516e-05,-1.430813130e-03
-8.8,-5.069077008e-04,-4.382122970e-05,-5.507289305e-04,-6.564099036e-05,1.023639701e-04,3.672297975e-05,-1.344699691e-04,-8.801047504e-05,-2.224804442e-04,2.127550460e-04,7.759393640e-05,2.903489824e-04,-2.544976962e-04,1.559713732e-04,-9.852632300e-05,3.104455737e-04,1.735527088e-04,4.839982824e-04,-1.861809987e-04,1.434791881e-04,-4.270181064e-05,1.585667024e-04,7.612056947e-05,2.346872719e-04,-1.473076480e-04,1.279509274e-04,-1.935672069e-05,4.275679003e-05,6.777353276e-05,1.105303228e-04,-2.331457311e-04,4.950666564e-05,-1.836390655e-04,-9.936029127e-06,-8.314467303e-05,-9.308070215e-05,-5.721985687e-04,2.712332254e-04,-3.009653432e-04,-2.166010973e-04,1.156891120e-05,-2.050321862e-04,-9.763018744e-04,3.484559057e-05,-9.414562839e-04,-8.982724217e-04,5.172049973e-05,-8.465519219e-04,-9.765790589e-04,4.224310908e-05,-9.343359498e-04,-1.100578009e-03,1.312707044e-04,-9.693073050e-04,-1.000954563e-03,6.866451635e-05,-9.322900467e-04,1.385477422e-04,6.338488811e-05,2.019326303e-04,-1.418606042e-04,2.879364374e-05,-1.130669604e-04,-1.256940601e-04,1.243148836e-04,-1.379176530e-06,-3.146736125e-04,4.336093449e-05,-2.713126780e-04,-1.193044132e-04,1.679828563e-04,4.867844312e-05,-1.391689797e-04,-3.008654851e-06,-1.421776345e-04,-1.689768280e-04,-1.806523005e-05,-1.870420580e-04,-6.557979701e-04,1.566418176e-04,-4.991561525e-04,-4.955514577e-04,-8.060285765e-05,-5.761543154e-04,-1.161517534e-03,-2.294474352e-05,-1.184462278e-03,-9.250511881e-04,1.158319965e-04,-8.092191916e-04,-1.263320333e-03,-6.184182941e-05,-1.325162162e-03,-1.166296554e-03,1.691653178e-05,-1.149380022e-03,-2.284889099e-03,-1.721067074e-04,-2.456995806e-03,-9.624085334e-04,2.703340386e-05,-9.353751295e-04,-1.292482386e-03,2.877577350e-04,-1.004724651e-03,-1.359695457e-03,6.690698752e-07,-1.359026388e-03
-8.7,-4.959905784e-04,-4.098717298e-05,-5.369777514e-04,-3.938086369e-05,1.051467652e-04,6.576590148e-05,-1.310697292e-04,-7.432711609e-05,-2.053968453e-04,2.358136994e-04,9.357728980e-05,3.293909892e-04,-2.396792132e-04,1.574035550e-04,-8.227565820e-05,3.327845847e-04,1.704700678e-04,5.032546525e-04,-1.687252073e-04,1.407717777e-04,-2.795342961e-05,1.756544628e-04,7.263345554e-05,2.482879183e-04,-1.242817280e-04,1.279131798e-04,3.631451742e-06,6.283430936e-05,6.587979369e-05,1.287141031e-04,-1.993364062e-04,4.726522222e-05,-1.520711840e-04,2.986685391e-05,-8.465094950e-05,-5.478409560e-05,-5.229924403e-04,2.681808443e-04,-2.548115959e-04,-2.012376675e-04,1.119119589e-05,-1.900464716e-04,-9.457240020e-04,3.705136302e-05,-9.086726390e-04,-8.841207227e-04,5.086362671e-05,-8.332570960e-04,-9.553197376e-04,4.449105982e-05,-9.108286777e-04,-1.077130068e-03,1.274654555e-04,-9.496646127e-04,-9.755955930e-04,7.009855352e-05,-9.054970394e-04,1.589448697e-04,5.999802807e-05,2.189428978e-04,-1.155545654e-04,2.917993414e-05,-8.637463122e-05,-9.527507197e-05,1.244934493e-04,2.921837733e-05,-2.964407710e-04,4.731618353e-05,-2.491245875e-04,-9.417662526e-05,1.659124976e-04,7.173587230e-05,-1.086021100e-04,-1.126943919e-06,-1.097290539e-04,-1.570488094e-04,-1.501023046e-05,-1.720590399e-04,-6.144127816e-04,1.553742553e-04,-4.590385263e-04,-4.789142321e-04,-7.280539951e-05,-5.517196316e-04,-1.131689751e-03,-1.793627879e-05,-1.149626029e-03,-8.924575351e-04,1.172492159e-04,-7.752083192e-04,-1.230964478e-03,-5.230174534e-05,-1.283266223e-03,-1.132124357e-03,2.126445091e-05,-1.110859906e-03,-2.262680193e-03,-1.151787162e-04,-2.377858909e-03,-9.450549905e-04,4.923336953e-05,-8.958216209e-04,-1.237607963e-03,2.700500080e-04,-9.675579546e-04,-1.300446513e-03,1.251361642e-05,-1.287932897e-03
-8.6,-4.858206690e-04,-3.803971305e-05,-5.238603820e-04,-1.440652383e-05,1.077677676e-04,9.336124373e-05,-1.285628840e-04,-6.064703908e-05,-1.892099231e-04,2.580487699e-04,1.088326957e-04,3.668814656e-04,-2.255337549e-04,1.588631654e-04,-6.667058951e-05,3.545447972e-04,1.672091827e-04,5.217539798e-04,-1.525913926e-04,1.379918399e-04,-1.459955278e-05,1.919173039e-04,6.913591049e-05,2.610532144e-04,-1.029317028e-04,1.277131104e-04,2.478140762e-05,8.148153062e-05,6.389545737e-05,1.453769880e-04,-1.665375813e-04,4.515480706e-05,-1.213827742e-04,6.892913702e-05,-8.569534677e-05,-1.676620975e-05,-4.737180856e-04,2.635296100e-04,-2.101884755e-04,-1.862095135e-04,1.097895272e-05,-1.752305608e-04,-9.150649782e-04,3.939458521e-05,-8.756703930e-04,-8.698779688e-04,5.021152989e-05,-8.196664389e-04,-9.343253896e-04,4.685211817e-05,-8.874732714e-04,-1.053364097e-03,1.238311301e-04,-9.295329667e-04,-9.504895406e-04,7.140345329e-05,-8.790860873e-04,1.784728787e-04,5.664945864e-05,2.351223374e-04,-8.963083428e-05,2.945769137e-05,-6.017314291e-05,-6.565532876e-05,1.244731307e-04,5.881780195e-05,-2.782064994e-04,5.126347318e-05,-2.269430262e-04,-7.053257066e-05,1.636388022e-04,9.310623152e-05,-7.866923639e-05,1.136155047e-06,-7.753308134e-05,-1.453850169e-04,-1.190995334e-05,-1.572949702e-04,-5.725305882e-04,1.531505124e-04,-4.193800758e-04,-4.630532952e-04,-6.469537770e-05,-5.277486729e-04,-1.101549182e-03,-1.286911431e-05,-1.114418297e-03,-8.600002667e-04,1.185332555e-04,-7.414670112e-04,-1.198807439e-03,-4.291085517e-05,-1.241718295e-03,-1.098341981e-03,2.579767891e-05,-1.072544302e-03,-2.243807425e-03,-5.715007912e-05,-2.300957504e-03,-9.290306517e-04,7.042246848e-05,-8.586081832e-04,-1.182803177e-03,2.509677829e-04,-9.318353940e-04,-1.241083023e-03,2.335350980e-05,-1.217729514e-03
-8.5,-4.763602994e-04,-3.496354743e-05,-5.113238468e-04,9.333681498e-06,1.102325261e-04,1.195662076e-04,-1.269306893e-04,-4.699519603e-05,-1.739258853e-04,2.794120298e-04,1.233346820e-04,4.027467118e-04,-2.120796439e-04,1.603476225e-04,-5.173202133e-05,3.756523775e-04,1.637906090e-04,5.394429865e-04,-1.377823652e-04,1.351565997e-04,-2.625765530e-06,2.073385073e-04,6.564975829e-05,2.729882656e-04,-8.327345708e-05,1.273493652e-04,4.407590813e-05,9.864107001e-05,6.182202359e-05,1.604630936e-04,-1.348325552e-04,4.318789034e-05,-9.164466487e-05,1.072332753e-04,-8.623713148e-05,2.099614380e-05,-4.244510763e-04,2.572552139e-04,-1.671958625e-04,-1.714806374e-04,1.093742896e-05,-1.605432084e-04,-8.843727217e-04,4.190657952e-05,-8.424661421e-04,-8.555572904e-04,4.978805919e-05,-8.057692312e-04,-9.136835369e-04,4.932098876e-05,-8.643625482e-04,-1.029284047e-03,1.203921925e-04,-9.088918549e-04,-9.256655258e-04,7.257853808e-05,-8.530869877e-04,1.970710613e-04,5.336803184e-05,2.504390932e-04,-6.413125433e-05,2.966545624e-05,-3.446579809e-05,-3.694179677e-05,1.242480115e-04,8.730621473e-05,-2.600601284e-04,5.518701725e-05,-2.048731112e-04,-4.843983326e-05,1.611535558e-04,1.127137226e-04,-4.938653879e-05,3.771113625e-06,-4.561542517e-05,-1.340048061e-04,-8.765558664e-06,-1.427703648e-04,-5.302910089e-04,1.500711772e-04,-3.802198317e-04,-4.479981539e-04,-5.629237557e-05,-5.042905294e-04,-1.071149864e-03,-7.749996544e-06,-1.078899860e-03,-8.277432442e-04,1.196709108e-04,-7.080723333e-04,-1.166939067e-03,-3.369653487e-05,-1.200635602e-03,-1.064961542e-03,3.045298438e-05,-1.034508558e-03,-2.227939021e-03,1.484027564e-06,-2.226454994e-03,-9.143681764e-04,9.043454531e-05,-8.239336311e-04,-1.128527211e-03,2.307828631e-04,-8.977443482e-04,-1.181694663e-03,3.308357427e-05,-1.148611089e-03
-8.4,-4.675639667e-04,-3.174440049e-05,-4.993083671e-04,3.189677769e-05,1.125469036e-04,1.444436813e-04,-1.261450125e-04,-3.339740300e-05,-1.595424155e-04,2.998598633e-04,1.370596856e-04,4.369195489e-04,-1.993253463e-04,1.618538594e-04,-3.747148691e-05,3.960297496e-04,1.602329832e-04,5.562627328e-04,-1.242885155e-04,1.322825789e-04,7.994063378e-06,2.219053577e-04,6.219603544e-05,2.841013931e-04,-6.530573029e-05,1.268223661e-04,6.151663581e-05,1.142689323e-04,5.966180791e-05,1.739307402e-04,-1.043009032e-04,4.137558812e-05,-6.292531512e-05,1.447615544e-04,-8.623195183e-05,5.852960257e-05,-3.752989592e-04,2.493762044e-04,-1.259227549e-04,-1.570104328e-04,1.106984311e-05,-1.459405897e-04,-8.536916647e-04,4.461505224e-05,-8.090766124e-04,-8.411662969e-04,4.961297298e-05,-7.915533240e-04,-8.934719279e-04,5.188832370e-05,-8.415836042e-04,-1.004893263e-03,1.171708527e-04,-8.877224104e-04,-9.011466604e-04,7.362341091e-05,-8.275232495e-04,2.146810367e-04,5.018067221e-05,2.648617089e-04,-3.910009984e-05,2.983915976e-05,-9.260940072e-06,-9.237019957e-06,1.238139664e-04,1.145769465e-04,-2.420867094e-04,5.907079171e-05,-1.830159177e-04,-2.795549155e-05,1.584504703e-04,1.304949788e-04,-2.076458366e-05,6.762539241e-06,-1.400204442e-05,-1.229276011e-04,-5.578357601e-06,-1.285059587e-04,-4.878408677e-04,1.462484572e-04,-3.415924105e-04,-4.337702982e-04,-4.761640558e-05,-4.813867038e-04,-1.040543300e-03,-2.588686227e-06,-1.043131986e-03,-7.957450630e-04,1.206500473e-04,-6.750950157e-04,-1.135444857e-03,-2.468334771e-05,-1.160128205e-03,-1.031986938e-03,3.516418802e-05,-9.968227501e-04,-2.214699393e-03,6.023474601e-05,-2.154464647e-03,-9.010767317e-04,1.091184523e-04,-7.919582794e-04,-1.075224254e-03,2.097786440e-04,-8.654456105e-04,-1.122400385e-03,4.163385752e-05,-1.080766528e-03
-8.3,-4.593800545e-04,-2.836956453e-05,-4.877496190e-04,5.334249229e-05,1.147168471e-04,1.680593394e-04,-1.261685450e-04,-1.988043428e-05,-1.460489793e-04,3.193530716e-04,1.499860516e-04,4.693391233e-04,-1.872701954e-04,1.633780403e-04,-2.389215514e-05,4.155954744e-04,1.565527848e-04,5.721482593e-04,-1.120888312e-04,1.293851932e-04,1.729636203e-05,2.356085492e-04,5.879449966e-05,2.944030488e-04,-4.901008536e-05,1.261344704e-04,7.712438505e-05,1.283351144e-04,5.741810230e-05,1.857532167e-04,-7.501845601e-05,3.972739399e-05,-3.529106202e-05,1.814917776e-04,-8.563099630e-05,9.586078129e-05,-3.264022890e-04,2.399556184e-04,-8.644667060e-05,-1.427543800e-04,1.137725356e-05,-1.313771265e-04,-8.230611366e-04,4.754239951e-05,-7.755187371e-04,-8.267079981e-04,4.970146499e-05,-7.770065331e-04,-8.737585770e-04,5.454167587e-05,-8.192169011e-04,-9.801946168e-04,1.141859863e-04,-8.660086305e-04,-8.769502141e-04,7.453794497e-05,-8.024122691e-04,2.312468330e-04,4.711175193e-05,2.783585849e-04,-1.458484742e-05,3.001111867e-05,1.542627125e-05,1.736233346e-05,1.231685226e-04,1.405308561e-04,-2.243644874e-04,6.289882383e-05,-1.614656635e-04,-9.124681046e-06,1.555252002e-04,1.464005191e-04,7.190550899e-06,1.008896264e-05,1.727951354e-05,-1.121730863e-04,-2.349954298e-06,-1.145230406e-04,-4.453292112e-04,1.418026231e-04,-3.035265881e-04,-4.203825760e-04,-3.868836117e-05,-4.590709371e-04,-1.009777276e-03,2.602069912e-06,-1.007175206e-03,-7.640578484e-04,1.214600647e-04,-6.425977837e-04,-1.104403808e-03,-1.589291577e-05,-1.120296724e-03,-9.994139966e-04,3.986349133e-05,-9.595505053e-04,-2.203679021e-03,1.186290456e-04,-2.085049975e-03,-8.891373186e-04,1.263379118e-04,-7.627994069e-04,-1.023311880e-03,1.882463970e-04,-8.350654829e-04,-1.063344923e-03,4.897029646e-05,-1.014374626e-03
-8.2,-4.517508069e-04,-2.482829859e-05,-4.765791054e-04,7.373278682e-05,1.167484156e-04,1.904812024e-04,-1.269535866e-04,-6.472067000e-06,-1.334256536e-04,3.378577253e-04,1.620938654e-04,4.999515906e-04,-1.759037407e-04,1.649153187e-04,-1.098842200e-05,4.342652906e-04,1.527641316e-04,5.870294223e-04,-1.011506593e-04,1.264783800e-04,2.532772078e-05,2.484429228e-04,5.546317659e-05,3.039060994e-04,-3.434983459e-05,1.252901671e-04,9.094033252e-05,1.408250750e-04,5.509535772e-05,1.959204328e-04,-4.705581264e-05,3.825100535e-05,-8.804807294e-06,2.173951742e-04,-8.438040253e-05,1.330147717e-04,-2.779317669e-04,2.291001405e-04,-4.883162640e-05,-1.286635793e-04,1.185861640e-05,-1.168049629e-04,-7.925129487e-04,5.070404490e-05,-7.418089038e-04,-8.121803792e-04,5.006376927e-05,-7.621166099e-04,-8.546005601e-04,5.726632544e-05,-7.973342346e-04,-9.551896159e-04,1.114521674e-04,-8.437374485e-04,-8.530868642e-04,7.532235165e-05,-7.777645125e-04,2.467166397e-04,4.418273866e-05,2.908993783e-04,9.364683217e-06,3.020920582e-05,3.957388903e-05,4.276767729e-05,1.223107744e-04,1.650784517e-04,-2.069604557e-04,6.665552493e-05,-1.403049307e-04,8.022467999e-06,1.523753447e-04,1.603978127e-04,3.447668442e-05,1.372285184e-05,4.819953626e-05,-1.017609248e-04,9.175270234e-07,-1.008433978e-04,-4.029023138e-04,1.368584101e-04,-2.660439037e-04,-4.078382977e-04,-2.953040012e-05,-4.373686978e-04,-9.788925967e-04,7.806788307e-06,-9.710858084e-04,-7.327246007e-04,1.220922922e-04,-6.106323085e-04,-1.073884491e-03,-7.343800236e-06,-1.081228291e-03,-9.672283552e-04,4.448317129e-05,-9.227451839e-04,-2.194440705e-03,1.762153102e-04,-2.018225395e-03,-8.784979052e-04,1.419719014e-04,-7.365260038e-04,-9.731676071e-04,1.664797494e-04,-8.066878577e-04,-1.004692961e-03,5.509412699e-05,-9.495988344e-04
-8.1,-4.446099302e-04,-2.111205856e-05,-4.657219888e-04,9.313419706e-05,1.186479812e-04,2.117821782e-04,-1.284391579e-04,6.798958019e-06,-1.216401999e-04,3.553475188e-04,1.733646448e-04,5.287121636e-04,-1.652034146e-04,1.664596271e-04,1.256212493e-06,4.519545722e-04,1.488786669e-04,6.008332391e-04,-9.142775761e-05,1.235743023e-04,3.214654474e-05,2.604097621e-04,5.221801808e-05,3.126277802e-04,-2.126790291e-05,1.242962222e-04,1.030283193e-04,1.517420892e-04,5.269936447e-05,2.044414536e-04,-2.047544633e-05,3.695224759e-05,1.647680126e-05,2.524375425e-04,-8.242138337e-05,1.700161592e-04,-2.300812912e-04,2.169568508e-04,-1.312444042e-05,-1.146832186e-04,1.251104558e-05,-1.021721730e-04,-7.620682673e-04,5.410703295e-05,-7.079612344e-04,-7.975739930e-04,5.070488646e-05,-7.468691065e-04,-8.360407034e-04,6.004587616e-05,-7.759948273e-04,-9.298761773e-04,1.089789503e-04,-8.208972269e-04,-8.295584209e-04,7.597729362e-05,-7.535811273e-04,2.610460559e-04,4.141198974e-05,3.024580456e-04,3.269880795e-05,3.045617156e-05,6.315497952e-05,6.690145354e-05,1.212412194e-04,1.881426729e-04,-1.899248982e-04,7.032596727e-05,-1.195989309e-04,2.347486234e-05,1.490003467e-04,1.724752090e-04,6.109578303e-05,1.763096868e-05,7.872675171e-05,-9.170975384e-05,4.221052842e-06,-8.748870100e-05,-3.606980010e-04,1.315414040e-04,-2.291565970e-04,-3.961295590e-04,-2.016635062e-05,-4.162959097e-04,-9.479181772e-04,1.300758728e-05,-9.349105899e-04,-7.017752979e-04,1.225401489e-04,-5.792351490e-04,-1.043939433e-03,9.485784412e-07,-1.042990854e-03,-9.354011266e-04,4.895750914e-05,-8.864436175e-04,-2.186522551e-03,2.325678062e-04,-1.953954745e-03,-8.690679396e-04,1.559165491e-04,-7.131513905e-04,-9.251130520e-04,1.447665568e-04,-7.803464952e-04,-9.466201105e-04,6.003973872e-05,-8.865803718e-04
-8,-4.378786110e-04,-1.721456658e-05,-4.550931776e-04,1.116219065e-04,1.204224413e-04,2.320443478e-04,-1.305473556e-04,1.990307834e-05,-1.106442773e-04,3.718071888e-04,1.837810202e-04,5.555882090e-04,-1.551312897e-04,1.680034608e-04,1.287217107e-05,4.685816692e-04,1.449055564e-04,6.134872257e-04,-8.285728942e-05,1.206831322e-04,3.782584277e-05,2.715198672e-04,4.907269034e-05,3.205925576e-04,-9.684455602e-06,1.231616316e-04,1.134771760e-04,1.611098278e-04,5.023736314e-05,2.113471910e-04,4.671751355e-06,3.583501317e-05,4.050676453e-05,2.865831715e-04,-7.969179243e-05,2.068913791e-04,-1.830578357e-04,2.037080908e-04,2.065025508e-05,-1.007507204e-04,1.333012031e-05,-8.742060012e-05,-7.317343921e-04,5.774912108e-05,-6.739852710e-04,-7.828681270e-04,5.162447441e-05,-7.312436526e-04,-8.181026122e-04,6.286266170e-05,-7.552399505e-04,-9.042455212e-04,1.067704870e-04,-7.974750342e-04,-8.063544188e-04,7.650411245e-05,-7.298503064e-04,2.742017920e-04,3.881456430e-05,3.130163563e-04,5.537123418e-05,3.076914775e-05,8.614038192e-05,8.970027642e-05,1.199614367e-04,2.096617131e-04,-1.732866067e-04,7.389602191e-05,-9.939058477e-05,3.724404304e-05,1.454012968e-04,1.826453398e-04,8.705475571e-05,2.177519086e-05,1.088299466e-04,-8.203555442e-05,7.556197661e-06,-7.447935676e-05,-3.188390660e-04,1.259743347e-04,-1.928647313e-04,-3.852346029e-04,-1.062234315e-05,-3.958569461e-04,-9.168659295e-04,1.818451921e-05,-8.986814103e-04,-6.712227492e-04,1.227990452e-04,-5.484237039e-04,-1.014598893e-03,8.971836324e-06,-1.005627057e-03,-9.038838609e-04,5.322470142e-05,-8.506591595e-04,-2.179438623e-03,2.872915001e-04,-1.892147123e-03,-8.607128944e-04,1.680889722e-04,-6.926239222e-04,-8.793973019e-04,1.233787005e-04,-7.560186013e-04,-8.893012502e-04,6.387133766e-05,-8.254299126e-04
-7.9,-4.314617531e-04,-1.313179487e-05,-4.445935480e-04,1.292834690e-04,1.220792836e-04,2.513627525e-04,-1.331804774e-04,3.281010842e-05,-1.003703690e-04,3.872358788e-04,1.933265412e-04,5.805624200e-04,-1.456313989e-04,1.695376103e-04,2.390621141e-05,4.840711602e-04,1.408515288e-04,6.249226889e-04,-7.535716141e-05,1.178128734e-04,4.245571202e-05,2.817961145e-04,4.603843675e-05,3.278345512e-04,5.045232676e-07,1.218973123e-04,1.224018356e-04,1.689742115e-04,4.771804485e-05,2.166922563e-04,2.834934201e-05,3.490115033e-05,6.325049233e-05,3.197998059e-04,-7.612943940e-05,2.436703665e-04,-1.370697918e-04,1.895650581e-04,5.249526629e-05,-8.679454153e-05,1.431008478e-05,-7.248445675e-05,-7.015021966e-04,6.161851457e-05,-6.398836821e-04,-7.680268765e-04,5.281682863e-05,-7.152100478e-04,-8.007855483e-04,6.569807811e-05,-7.350874702e-04,-8.782792327e-04,1.048255025e-04,-7.734537302e-04,-7.834487678e-04,7.690521182e-05,-7.065435559e-04,2.861645391e-04,3.640206909e-05,3.225666082e-04,7.734189816e-05,3.115949374e-05,1.085013919e-04,1.111174735e-04,1.184737073e-04,2.295911808e-04,-1.570501710e-04,7.735232643e-05,-7.969784461e-05,4.936611907e-05,1.415807131e-04,1.909468322e-04,1.123661281e-04,2.611381446e-05,1.384799425e-04,-7.274978494e-05,1.091669168e-05,-6.183309326e-05,-2.774263022e-04,1.202730483e-04,-1.571532539e-04,-3.751146258e-04,-9.277645074e-07,-3.760423903e-04,-8.857270663e-04,2.331592592e-05,-8.624111404e-04,-6.410593557e-04,1.228661292e-04,-5.181932265e-04,-9.858655277e-04,1.671625008e-05,-9.691492776e-04,-8.726047321e-04,5.722851717e-05,-8.153762149e-04,-2.172677915e-03,3.400260944e-04,-1.832651820e-03,-8.532505170e-04,1.784328664e-04,-6.748176506e-04,-8.361831413e-04,1.025623337e-04,-7.336208075e-04,-8.328975631e-04,6.667866311e-05,-7.662189000e-04
-7.8,-4.252460976e-04,-8.861982375e-06,-4.341080799e-04,1.462204810e-04,1.236264060e-04,2.698468870e-04,-1.362200438e-04,4.548941538e-05,-9.073062844e-05,4.016494110e-04,2.019856867e-04,6.036350977e-04,-1.366288325e-04,1.710508333e-04,3.442200082e-05,4.983562149e-04,1.367209058e-04,6.350771207e-04,-6.882491966e-05,1.149691844e-04,4.614426475e-05,2.912745480e-04,4.312395157e-05,3.343984996e-04,9.426879766e-06,1.205155807e-04,1.299424605e-04,1.754038639e-04,4.515147509e-05,2.205553390e-04,5.053684603e-05,3.415033214e-05,8.468717817e-05,3.520625666e-04,-7.167662455e-05,2.803859421e-04,-9.231521993e-05,1.747602544e-04,8.244503442e-05,-7.273430603e-05,1.544393344e-05,-5.729037260e-05,-6.713446679e-04,6.569419864e-05,-6.056504692e-04,-7.529963744e-04,5.427085161e-05,-6.987255227e-04,-7.840607351e-04,6.853293525e-05,-7.155277998e-04,-8.519474809e-04,1.031375410e-04,-7.488099399e-04,-7.607976489e-04,7.718445983e-05,-6.836131891e-04,2.969302446e-04,3.418262440e-05,3.311128690e-04,9.857857385e-05,3.163311461e-05,1.302116885e-04,1.311244351e-04,1.167807318e-04,2.479051669e-04,-1.411958439e-04,8.068209307e-05,-6.051375080e-05,5.990159076e-05,1.375423361e-04,1.974439268e-04,1.370481074e-04,3.060311398e-05,1.676512214e-04,-6.385774644e-05,1.429407051e-05,-4.956367593e-05,-2.365322460e-04,1.145421198e-04,-1.219901262e-04,-3.657107741e-04,8.883586192e-06,-3.568271879e-04,-8.544707249e-04,2.837886972e-05,-8.260918552e-04,-6.112554630e-04,1.227399446e-04,-4.885155185e-04,-9.577110021e-04,2.417419476e-05,-9.335368074e-04,-8.414670577e-04,6.091952550e-05,-7.805475322e-04,-2.165702843e-03,3.904485446e-04,-1.775254298e-03,-8.464502244e-04,1.869250314e-04,-6.595251930e-04,-7.955392952e-04,8.253117371e-05,-7.130081214e-04,-7.775433995e-04,6.857160204e-05,-7.089717975e-04
-7.7,-4.191009305e-04,-4.405774380e-06,-4.235067049e-04,1.625476162e-04,1.250716707e-04,2.876192869e-04,-1.395279936e-04,5.791003601e-05,-8.161795755e-05,4.150809589e-04,2.097440883e-04,6.248250472e-04,-1.280309757e-04,1.725295067e-04,4.449853100e-05,5.113797113e-04,1.325156661e-04,6.438953773e-04,-6.313867121e-05,1.121552033e-04,4.901653209e-05,3.000037486e-04,4.033526463e-05,3.403390133e-04,1.723200763e-05,1.190295256e-04,1.362615332e-04,1.804890076e-04,4.254900255e-05,2.230380101e-04,7.122972306e-05,3.357998056e-05,1.048097036e-04,3.833556016e-04,-6.628500967e-05,3.170705919e-04,-4.897110782e-05,1.595385992e-04,1.105674913e-04,-5.848242334e-05,1.672347197e-05,-4.175895137e-05,-6.412165867e-04,6.994669060e-05,-5.712698961e-04,-7.377038705e-04,5.597005055e-05,-6.817338200e-04,-7.678699345e-04,7.134783231e-05,-6.965221022e-04,-8.252087818e-04,1.016952973e-04,-7.235134845e-04,-7.383392411e-04,7.734738334e-05,-6.609918577e-04,3.065098178e-04,3.216093833e-05,3.386707561e-04,1.190571778e-04,3.219115260e-05,1.512483304e-04,1.497106661e-04,1.148854774e-04,2.645961435e-04,-1.256816536e-04,8.387280681e-05,-4.180884684e-05,6.893338788e-05,1.332909249e-04,2.022243127e-04,1.611239578e-04,3.519878224e-05,1.963227401e-04,-5.535751409e-05,1.767743789e-05,-3.768007620e-05,-1.961969067e-04,1.088706472e-04,-8.732625941e-05,-3.569421200e-04,1.877250942e-05,-3.381696105e-04,-8.230448681e-04,3.334960640e-05,-7.896952617e-04,-5.817593965e-04,1.224200265e-04,-4.593393700e-04,-9.300748950e-04,3.133957941e-05,-8.987353156e-04,-8.103501959e-04,6.425581636e-05,-7.460943796e-04,-2.157949208e-03,4.382754694e-04,-1.719673739e-03,-8.400357961e-04,1.935813580e-04,-6.464544381e-04,-7.574396531e-04,6.346356602e-05,-6.939760871e-04,-7.233342851e-04,6.967399019e-05,-6.536602949e-04
-7.6,-4.128810440e-04,2.335037552e-07,-4.126475403e-04,1.783894572e-04,1.264222686e-04,3.048117258e-04,-1.429496222e-04,7.004076932e-05,-7.290885290e-05,4.275801495e-04,2.165889403e-04,6.441690899e-04,-1.197304782e-04,1.739573441e-04,5.422686586e-05,5.230941564e-04,1.282356298e-04,6.513297862e-04,-5.815979323e-05,1.093714202e-04,5.121162698e-05,3.080428209e-04,3.767568374e-05,3.457185046e-04,2.408704024e-05,1.174523578e-04,1.415393981e-04,1.843390866e-04,3.992316109e-05,2.242622477e-04,9.043819096e-05,3.318526490e-05,1.236234559e-04,4.136716297e-04,-5.992019727e-05,3.537514324e-04,-7.184593011e-06,1.441474816e-04,1.369628886e-04,-4.394685708e-05,1.813941271e-05,-2.580744437e-05,-6.110552164e-04,7.433903026e-05,-5.367161861e-04,-7.220587303e-04,5.789274434e-05,-6.641659859e-04,-7.521262498e-04,7.412349736e-05,-6.780027524e-04,-7.980110884e-04,1.004828559e-04,-6.975282325e-04,-7.159951966e-04,7.740106716e-05,-6.385941295e-04,3.149278435e-04,3.033839467e-05,3.452662382e-04,1.387612681e-04,3.283076889e-05,1.715920370e-04,1.668828653e-04,1.127910617e-04,2.796739270e-04,-1.104468491e-04,8.691191422e-05,-2.353493484e-05,7.656394657e-05,1.288320503e-04,2.053959969e-04,1.846208098e-04,3.985698623e-05,2.244777960e-04,-4.723955333e-05,2.105336727e-05,-2.618618606e-05,-1.564262690e-04,1.033290245e-04,-5.309724449e-05,-3.487051242e-04,2.869401846e-05,-3.200111058e-04,-7.913787639e-04,3.820407156e-05,-7.531746924e-04,-5.524988688e-04,1.219065441e-04,-4.305923247e-04,-9.028655968e-04,3.820743291e-05,-8.646581639e-04,-7.791122236e-04,6.720326595e-05,-7.119089576e-04,-2.148830144e-03,4.832678580e-04,-1.665562285e-03,-8.336902137e-04,1.984604213e-04,-6.352297925e-04,-7.217683687e-04,4.550246272e-05,-6.762659060e-04,-6.703177075e-04,7.011757156e-05,-6.002001359e-04
-7.5,-4.064308613e-04,5.049517741e-06,-4.013813435e-04,1.938762840e-04,1.276840802e-04,3.215603642e-04,-1.463173879e-04,8.185030217e-05,-6.446708569e-05,4.392110801e-04,2.225095041e-04,6.617205842e-04,-1.116090662e-04,1.753152554e-04,6.370618913e-05,5.334608464e-04,1.238787781e-04,6.573396245e-04,-5.373669179e-05,1.066156452e-04,5.287895337e-05,3.154587416e-04,3.514582090e-05,3.506045625e-04,3.017233704e-05,1.157967963e-04,1.459691333e-04,1.870797168e-04,3.728752429e-05,2.243672411e-04,1.081856001e-04,3.295913062e-05,1.411447307e-04,4.430105500e-04,-5.256567445e-05,3.904448756e-04,3.293320760e-05,1.288268148e-04,1.617600224e-04,-2.903434284e-05,1.968150303e-05,-9.352839810e-06,-5.807817892e-04,7.882790149e-05,-5.019538877e-04,-7.059548215e-04,6.001260649e-05,-6.459422150e-04,-7.367164589e-04,7.684104952e-05,-6.598754094e-04,-7.702937045e-04,9.947984544e-05,-6.708138591e-04,-6.936733051e-04,7.735388565e-05,-6.163194195e-04,3.222211073e-04,2.871315016e-05,3.509342575e-04,1.576814350e-04,3.354581444e-05,1.912272494e-04,1.826635687e-04,1.105006119e-04,2.931641806e-04,-9.541540856e-05,8.978662337e-05,-5.628785183e-06,8.291236293e-05,1.241719307e-04,2.070842937e-04,2.075680791e-04,4.453505116e-05,2.521031302e-04,-3.948693568e-05,2.440601733e-05,-1.508091835e-05,-1.171935252e-04,9.796723417e-05,-1.922629103e-05,-3.408745561e-04,3.859767702e-05,-3.022768791e-04,-7.593860089e-04,4.291846455e-05,-7.164675443e-04,-5.233831668e-04,1.212001705e-04,-4.021829962e-04,-8.759624644e-04,4.477372381e-05,-8.311887406e-04,-7.475934500e-04,6.973554452e-05,-6.778579055e-04,-2.137745838e-03,5.252390664e-04,-1.612506771e-03,-8.270609846e-04,2.016633365e-04,-6.253976481e-04,-6.883284289e-04,2.875703122e-05,-6.595713977e-04,-6.184878344e-04,7.003700121e-05,-5.484508332e-04
-7.4,-3.995883018e-04,1.003267369e-05,-3.895556281e-04,2.091403880e-04,1.288612392e-04,3.380016272e-04,-1.494544841e-04,9.330738614e-05,-5.614709794e-05,4.500500869e-04,2.274975485e-04,6.775476355e-04,-1.035410787e-04,1.765813773e-04,7.304029864e-05,5.424490246e-04,1.194416396e-04,6.618906642e-04,-4.970853668e-05,1.038830929e-04,5.417455626e-05,3.223240248e-04,3.274369883e-05,3.550677237e-04,3.567732511e-05,1.140745744e-04,1.497518995e-04,1.888497269e-04,3.465649966e-05,2.235062265e-04,1.245072305e-04,3.289233147e-05,1.573995620e-04,4.713786750e-04,-4.422589557e-05,4.271527794e-04,7.131073601e-05,1.138003554e-04,1.851110914e-04,-1.365314533e-05,2.133868272e-05,7.685537388e-06,-5.503033833e-04,8.336483270e-05,-4.669385506e-04,-6.892732124e-04,6.229945955e-05,-6.269737529e-04,-7.215038372e-04,7.948220865e-05,-6.420216286e-04,-7.419893214e-04,9.866168588e-05,-6.433276355e-04,-6.712704158e-04,7.721524816e-05,-5.940551677e-04,3.284377197e-04,2.728036928e-05,3.557180890e-04,1.758152133e-04,3.432741485e-05,2.101426282e-04,1.970899173e-04,1.080171428e-04,3.051070601e-04,-8.049840119e-05,9.248387485e-05,1.198547366e-05,8.811255479e-05,1.193173598e-04,2.074299146e-04,2.299958028e-04,4.919190864e-05,2.791877114e-04,-3.207589764e-05,2.771751058e-05,-4.358387064e-06,-7.844252871e-05,9.281489621e-05,1.437236750e-05,-3.333054294e-04,4.842837917e-05,-2.848770503e-04,-7.269669116e-04,4.747000234e-05,-6.794969093e-04,-4.943053026e-04,1.203022338e-04,-3.740030688e-04,-8.492181911e-04,5.103546124e-05,-7.981827299e-04,-7.156195369e-04,7.183415438e-05,-6.437853825e-04,-2.124096857e-03,5.640631088e-04,-1.560033749e-03,-8.197649084e-04,2.033300355e-04,-6.164348729e-04,-6.568508711e-04,1.330462447e-05,-6.435462466e-04,-5.677840023e-04,6.956622384e-05,-4.982177785e-04
-7.3,-3.921871098e-04,1.517006675e-05,-3.770170431e-04,2.243143264e-04,1.299559983e-04,3.542703247e-04,-1.521772343e-04,1.043810409e-04,-4.779619345e-05,4.601841363e-04,2.315476026e-04,6.917317389e-04,-9.539571854e-05,1.777312461e-04,8.233552755e-05,5.500358208e-04,1.149196942e-04,6.649555151e-04,-4.590789756e-05,1.011665891e-04,5.525869155e-05,3.287155345e-04,3.046495188e-05,3.591804864e-04,4.079757157e-05,1.122961484e-04,1.530937200e-04,1.897989063e-04,3.204510654e-05,2.218440129e-04,1.394501658e-04,3.297349625e-05,1.724236620e-04,4.987897961e-04,-3.492835960e-05,4.638614365e-04,1.079173455e-04,9.926913131e-05,2.071864768e-04,2.285372007e-06,2.309927112e-05,2.538464313e-05,-5.195146181e-04,8.789742422e-05,-4.316171939e-04,-6.718839612e-04,6.472011457e-05,-6.071638466e-04,-7.063303527e-04,8.202949749e-05,-6.243008552e-04,-7.130253072e-04,9.800005796e-05,-6.150252492e-04,-6.486744973e-04,7.699542475e-05,-5.716790726e-04,3.336373443e-04,2.603266900e-05,3.596700133e-04,1.931679023e-04,3.516457609e-05,2.283324784e-04,2.102129763e-04,1.053434945e-04,3.155564708e-04,-6.559472254e-05,9.499043581e-05,2.939571328e-05,9.231278361e-05,1.142756775e-04,2.065884611e-04,2.519334418e-04,5.378827602e-05,3.057217179e-04,-2.497639521e-05,3.096853239e-05,5.992137174e-06,-4.009278926e-05,8.788302449e-05,4.779023524e-05,-3.258354745e-04,5.812723284e-05,-2.677082416e-04,-6.940093618e-04,5.183773255e-05,-6.421716293e-04,-4.651433937e-04,1.192149588e-04,-3.459284349e-04,-8.224604531e-04,5.699106981e-05,-7.654693833e-04,-6.830031528e-04,7.348869461e-05,-6.095144582e-04,-2.107294956e-03,5.996773295e-04,-1.507617627e-03,-8.113923743e-04,2.036335222e-04,-6.077588522e-04,-6.270022572e-04,-8.080892642e-07,-6.278103465e-04,-5.180916830e-04,6.883609613e-05,-4.492555869e-04
-7.2,-3.840571269e-04,2.044568449e-05,-3.636114424e-04,2.395315038e-04,1.309688262e-04,3.705003300e-04,-1.542960619e-04,1.150407528e-04,-3.925530906e-05,4.697101921e-04,2.346570402e-04,7.043672323e-04,-8.703768607e-05,1.787380470e-04,9.170036096e-05,5.562072471e-04,1.103078208e-04,6.665150679e-04,-4.216182668e-05,9.845690478e-05,5.629507810e-05,3.347146205e-04,2.830314755e-05,3.630177680e-04,4.573318247e-05,1.104705829e-04,1.562037654e-04,1.900865296e-04,2.946877371e-05,2.195553034e-04,1.530742193e-04,3.318926204e-05,1.862634813e-04,5.252679393e-04,-2.472452137e-05,5.005434179e-04,1.427629531e-04,8.540734753e-05,2.281703006e-04,1.886637377e-05,2.495113624e-05,4.381751000e-05,-4.882988661e-04,9.237056677e-05,-3.959282993e-04,-6.536464294e-04,6.723913867e-05,-5.864072908e-04,-6.910175858e-04,8.446645103e-05,-6.065511348e-04,-6.833237190e-04,9.746356888e-05,-5.858601501e-04,-6.257650737e-04,7.670541368e-05,-5.490596601e-04,3.378923492e-04,2.496063725e-05,3.628529864e-04,2.097541914e-04,3.604480481e-05,2.457989963e-04,2.220976391e-04,1.024822687e-04,3.245799078e-04,-5.059093818e-05,9.729300328e-05,4.670206509e-05,9.567596047e-05,1.090546823e-04,2.047306427e-04,2.734097127e-04,5.828638957e-05,3.316961023e-04,-1.815240206e-05,3.413904484e-05,1.598664277e-05,-2.045175962e-06,8.316707506e-05,8.112189910e-05,-3.182877953e-04,6.763245849e-05,-2.506553368e-04,-6.603883653e-04,5.600319825e-05,-6.043851671e-04,-4.357611949e-04,1.179415217e-04,-3.178196733e-04,-7.954926559e-04,6.264089331e-05,-7.328517626e-04,-6.495441445e-04,7.469730131e-05,-5.748468432e-04,-2.086766895e-03,6.320759288e-04,-1.454690967e-03,-8.015118434e-04,2.027736935e-04,-5.987381499e-04,-5.983893809e-04,-1.356538539e-05,-6.119547663e-04,-4.692443758e-04,6.797258729e-05,-4.012717885e-04
-7.1,-3.750231877e-04,2.584083477e-05,-3.491823529e-04,2.549279839e-04,1.318985705e-04,3.868265545e-04,-1.556157392e-04,1.252566545e-04,-3.035908462e-05,4.787351233e-04,2.368261326e-04,7.155612559e-04,-7.832688406e-05,1.795728638e-04,1.012459797e-04,5.609598043e-04,1.056007965e-04,6.665606007e-04,-3.829195857e-05,9.574320530e-05,5.745124672e-05,3.404078742e-04,2.625020191e-05,3.666580761e-04,5.068773014e-05,1.086054724e-04,1.592932025e-04,1.898800985e-04,2.694312535e-05,2.168232239e-04,1.654531440e-04,3.352444514e-05,1.989775892e-04,5.508501053e-04,-1.368931391e-05,5.371607914e-04,1.758962905e-04,7.236061230e-05,2.482569028e-04,3.617158817e-05,2.688175993e-05,6.305334809e-05,-4.565292424e-04,9.672766704e-05,-3.598015754e-04,-6.344087384e-04,6.981961034e-05,-5.645891281e-04,-6.753668197e-04,8.677784776e-05,-5.885889719e-04,-6.528004416e-04,9.701856086e-05,-5.557818807e-04,-6.024122945e-04,7.635680732e-05,-5.260554872e-04,3.412889288e-04,2.405321872e-05,3.653421475e-04,2.255999130e-04,3.695464446e-05,2.625545575e-04,2.328226801e-04,9.943566088e-05,3.322583409e-04,-3.536171338e-05,9.937823635e-05,6.401652296e-05,9.837955423e-05,1.036624401e-04,2.020419943e-04,2.944534713e-04,6.264933308e-05,3.571028043e-04,-1.156198194e-05,3.720901981e-05,2.564703787e-05,3.581231232e-05,7.865071266e-05,1.144630250e-04,-3.104734474e-04,7.688034442e-05,-2.335931030e-04,-6.259655663e-04,5.995086771e-05,-5.660146986e-04,-4.060085641e-04,1.164858159e-04,-2.895227483e-04,-7.680946212e-04,6.798759096e-05,-7.001070303e-04,-6.150295140e-04,7.546702774e-05,-5.395624863e-04,-2.061951529e-03,6.612957760e-04,-1.400655753e-03,-7.896748618e-04,2.009709750e-04,-5.887038868e-04,-5.705625462e-04,-2.498323876e-05,-5.955457849e-04,-4.210255316e-04,6.709455614e-05,-3.539309754e-04
-7,-3.649041653e-04,3.133470162e-05,-3.335694637e-04,2.706436666e-04,1.327425540e-04,4.033862205e-04,-1.559360829e-04,1.349996734e-04,-2.093640947e-05,4.873752691e-04,2.380581813e-04,7.254334504e-04,-6.911849369e-05,1.802048842e-04,1.110863905e-04,5.643018834e-04,1.007937802e-04,6.650956636e-04,-3.411482541e-05,9.301354797e-05,5.889872256e-05,3.458874231e-04,2.429678791e-05,3.701842110e-04,5.586665991e-05,1.067067652e-04,1.625734251e-04,1.893535657e-04,2.448369634e-05,2.138372621e-04,1.766751676e-04,3.396219229e-05,2.106373599e-04,5.755871760e-04,-1.919336412e-06,5.736678396e-04,2.074019634e-04,6.024573379e-05,2.676476972e-04,5.427879485e-05,2.887815934e-05,8.315695419e-05,-4.240699038e-04,1.009119107e-04,-3.231579931e-04,-6.140078115e-04,7.242400332e-05,-5.415838081e-04,-6.591596345e-04,8.894998379e-05,-5.702096507e-04,-6.213645555e-04,9.663005335e-05,-5.247345022e-04,-5.784758237e-04,7.596165038e-05,-5.025141733e-04,3.439270428e-04,2.329794175e-05,3.672249845e-04,2.407430386e-04,3.788010585e-05,2.786231444e-04,2.424803265e-04,9.620521082e-05,3.386855373e-04,-1.977199142e-05,1.012327158e-04,8.146072442e-05,1.006141221e-04,9.810704713e-05,1.987211692e-04,3.150949280e-04,6.684035348e-05,3.819352815e-04,-5.157433059e-06,4.015914891e-05,3.500171585e-05,7.359886513e-05,7.430983066e-05,1.479086958e-04,-3.021938225e-04,8.580623167e-05,-2.163875908e-04,-5.905902418e-04,6.366838533e-05,-5.269218565e-04,-3.757229076e-04,1.148520695e-04,-2.608708380e-04,-7.400244462e-04,7.303630005e-05,-6.669881462e-04,-5.792349409e-04,7.581399808e-05,-5.034209428e-04,-2.032292727e-03,6.873978657e-04,-1.344894861e-03,-7.754215551e-04,1.984588112e-04,-5.769627439e-04,-5.430206856e-04,-3.510908757e-05,-5.781297731e-04,-3.731709533e-04,6.631071359e-05,-3.068602397e-04
-6.9,-3.535135274e-04,3.690491191e-05,-3.166086155e-04,2.868214319e-04,1.334965690e-04,4.203180009e-04,-1.550539380e-04,1.442416244e-04,-1.081231354e-05,4.957549523e-04,2.383597480e-04,7.341147003e-04,-5.926444264e-05,1.806015717e-04,1.213371291e-04,5.662543024e-04,9.588270746e-05,6.621370099e-04,-2.944336480e-05,9.025534635e-05,6.081198156e-05,3.512500184e-04,2.243264322e-05,3.736826616e-04,6.147457239e-05,1.047784890e-04,1.662530614e-04,1.886846228e-04,2.210557266e-05,2.107901955e-04,1.868423238e-04,3.448410404e-05,2.213264279e-04,5.995425206e-04,1.046975478e-05,6.100122753e-04,2.373965710e-04,4.915121849e-05,2.865477894e-04,7.326028580e-05,3.092670955e-05,1.041869953e-04,-3.907780003e-04,1.048675864e-04,-2.859104139e-04,-5.922712256e-04,7.501522554e-05,-5.172560001e-04,-6.421602120e-04,9.097094378e-05,-5.511892682e-04,-5.889188621e-04,9.626275170e-05,-4.926561104e-04,-5.538048096e-04,7.553226931e-05,-4.782725403e-04,3.459185648e-04,2.268113860e-05,3.685997034e-04,2.552333644e-04,3.880708507e-05,2.940404494e-04,2.511749297e-04,9.279162868e-05,3.439665583e-04,-3.681153380e-06,1.028428689e-04,9.916171554e-05,1.025801913e-04,9.239643143e-05,1.949766228e-04,3.353662779e-04,7.082255164e-05,4.061888296e-04,1.114171006e-06,4.297151470e-05,4.408568570e-05,1.114352213e-04,7.011638760e-05,1.815516089e-04,-2.932430550e-04,9.434552081e-05,-1.988975342e-04,-5.541024261e-04,6.714668785e-05,-4.869557383e-04,-3.447321472e-04,1.130444613e-04,-2.316876859e-04,-7.110222974e-04,7.779459719e-05,-6.332277002e-04,-5.419289986e-04,7.576335655e-05,-4.661656420e-04,-1.997230992e-03,7.104471064e-04,-1.286783886e-03,-7.582869787e-04,1.954744039e-04,-5.628125747e-04,-5.152208383e-04,-4.402068549e-05,-5.592415238e-04,-3.253731494e-04,6.571624591e-05,-2.596569035e-04
-6.8,-3.406618891e-04,4.252800848e-05,-2.981338806e-04,3.036039459e-04,1.341547917e-04,4.377587377e-04,-1.527666029e-04,1.529552338e-04,1.886308296e-07,5.040037204e-04,2.377409429e-04,7.417446634e-04,-4.861648961e-05,1.807288418e-04,1.321123522e-04,5.668497491e-04,9.086458720e-05,6.577143363e-04,-2.408989127e-05,8.745576441e-05,6.336587313e-05,3.565947856e-04,2.064678299e-05,3.772415686e-04,6.771140287e-05,1.028224782e-04,1.705338811e-04,1.880510983e-04,1.982301362e-05,2.078741120e-04,1.960686119e-04,3.507038498e-05,2.311389968e-04,6.227889235e-04,2.334616579e-05,6.461350893e-04,2.660241300e-04,3.913812090e-05,3.051622509e-04,9.318040172e-05,3.301295381e-05,1.261933555e-04,-3.565063566e-04,1.085415026e-04,-2.479648540e-04,-5.690210997e-04,7.755762849e-05,-4.914634712e-04,-6.241197642e-04,9.283076960e-05,-5.312889946e-04,-5.553618033e-04,9.588195042e-05,-4.594798529e-04,-5.282395460e-04,7.508098554e-05,-4.531585604e-04,3.473838516e-04,2.218825484e-05,3.695721065e-04,2.691309101e-04,3.972179567e-05,3.088527058e-04,2.590207509e-04,8.919480673e-05,3.482155576e-04,1.305144593e-05,1.041948952e-04,1.172463411e-04,1.044839071e-04,8.653823205e-05,1.910221391e-04,3.553013043e-04,7.455898585e-05,4.298602901e-04,7.309928161e-06,4.563016954e-05,5.294009770e-05,1.494380817e-04,6.604162643e-05,2.154797081e-04,-2.834109162e-04,1.024347911e-04,-1.809761252e-04,-5.163378425e-04,7.037996932e-05,-4.459578732e-04,-3.128590551e-04,1.110667520e-04,-2.017923031e-04,-6.808160613e-04,8.227230506e-05,-5.985437562e-04,-5.028801127e-04,7.534905698e-05,-4.275310557e-04,-1.956197260e-03,7.304931514e-04,-1.225704108e-03,-7.378092350e-04,1.922483980e-04,-5.455608370e-04,-4.865914612e-04,-5.182564147e-05,-5.384171027e-04,-2.772886272e-04,6.538937032e-05,-2.118992569e-04
-6.7,-3.261611356e-04,4.817977338e-05,-2.779813622e-04,3.211288118e-04,1.347096773e-04,4.558384891e-04,-1.488762392e-04,1.611141349e-04,1.223789569e-05,5.122525527e-04,2.362157252e-04,7.484682779e-04,-3.703040082e-05,1.805512957e-04,1.435208949e-04,5.661313407e-04,8.573773906e-05,6.518690798e-04,-1.787013940e-05,8.460206651e-05,6.673192711e-05,3.620200379e-04,1.892770743e-05,3.809477454e-04,7.476801803e-05,1.008382218e-04,1.756062398e-04,1.876268948e-04,1.764910334e-05,2.052759982e-04,2.044774442e-04,3.570007012e-05,2.401775143e-04,6.454045193e-04,3.656527369e-05,6.819697929e-04,2.934509167e-04,3.024140561e-05,3.236923223e-04,1.140926300e-04,3.512146890e-05,1.492140989e-04,-3.211067631e-04,1.118844726e-04,-2.092222904e-04,-5.440793154e-04,8.001773207e-05,-4.640615833e-04,-6.047827496e-04,9.452149475e-05,-5.102612549e-04,-5.205904139e-04,9.545418575e-05,-4.251362282e-04,-5.016147014e-04,7.461963644e-05,-4.269950649e-04,3.484475739e-04,2.180416948e-05,3.702517434e-04,2.825035535e-04,4.061106877e-05,3.231146222e-04,2.661392660e-04,8.541395635e-05,3.515532224e-04,3.056068173e-05,1.052747392e-04,1.358354209e-04,1.065323229e-04,8.053974981e-05,1.870720727e-04,3.749340860e-04,7.801297357e-05,4.529470595e-04,1.348965072e-05,4.812154400e-05,6.161119471e-05,1.877144173e-04,6.205862775e-05,2.497730451e-04,-2.724865000e-04,1.100130595e-04,-1.624734404e-04,-4.771336518e-04,7.336550605e-05,-4.037681457e-04,-2.799263291e-04,1.089218930e-04,-1.710044361e-04,-6.491280743e-04,8.648113475e-05,-5.626469396e-04,-4.618651305e-04,7.461338608e-05,-3.872517444e-04,-1.908612071e-03,7.475551493e-04,-1.161056922e-03,-7.135396149e-04,1.889949065e-04,-5.245447084e-04,-4.565471103e-04,-5.866202343e-05,-5.152091338e-04,-2.285477905e-04,6.538761099e-05,-1.631601796e-04
-6.6,-3.098290634e-04,5.383543885e-05,-2.559936246e-04,3.395233999e-04,1.351519598e-04,4.746753597e-04,-1.431944063e-04,1.686929288e-04,2.549852248e-05,5.206296484e-04,2.338021588e-04,7.544318072e-04,-2.437024295e-05,1.800325609e-04,1.556623179e-04,5.641508403e-04,8.050200131e-05,6.446528416e-04,-1.060754509e-05,8.168196113e-05,7.107441605e-05,3.676199071e-04,1.726368546e-05,3.848835925e-04,8.282206110e-05,9.882288181e-05,1.816449429e-04,1.875781280e-04,1.559542845e-05,2.031735565e-04,2.121990829e-04,3.635131328e-05,2.485503962e-04,6.674683195e-04,4.997362706e-05,7.174419465e-04,3.198598150e-04,2.247196342e-05,3.423317784e-04,1.360369555e-04,3.723580262e-05,1.732727581e-04,-2.844335862e-04,1.148527156e-04,-1.695808706e-04,-5.172729347e-04,8.236453231e-05,-4.349084024e-04,-5.838939660e-04,9.603710202e-05,-4.878568640e-04,-4.845036196e-04,9.494765464e-05,-3.895559650e-04,-4.737634103e-04,7.415893809e-05,-3.996044722e-04,3.492348739e-04,2.151339863e-05,3.707482726e-04,2.954246119e-04,4.146237762e-05,3.368869895e-04,2.726565111e-04,8.144776360e-05,3.541042747e-04,4.897083334e-05,1.060681753e-04,1.550390087e-04,1.089293437e-04,7.440795673e-05,1.833373005e-04,3.942972434e-04,8.114841307e-05,4.754456565e-04,1.971421993e-05,5.043466967e-05,7.014888961e-05,2.263555177e-04,5.814454262e-05,2.845000603e-04,-2.602625561e-04,1.170230774e-04,-1.432394788e-04,-4.363337207e-04,7.610339973e-05,-3.602303210e-04,-2.457615802e-04,1.066116302e-04,-1.391499500e-04,-6.156818320e-04,9.043419696e-05,-5.252476351e-04,-4.186775173e-04,7.360596101e-05,-3.450715563e-04,-1.853891272e-03,7.616120543e-04,-1.092279217e-03,-6.850538280e-04,1.859032484e-04,-4.991505796e-04,-4.245027142e-04,-6.469809506e-05,-4.892008093e-04,-1.787667195e-04,6.574436699e-05,-1.130223526e-04
-6.5,-2.914932824e-04,5.946991048e-05,-2.320233719e-04,3.589008414e-04,1.354708932e-04,4.943717346e-04,-1.355457741e-04,1.756673709e-04,4.012159687e-05,5.292566183e-04,2.305225366e-04,7.597791549e-04,-1.051175787e-05,1.791357607e-04,1.686240029e-04,5.609671690e-04,7.515888955e-05,6.361260586e-04,-2.136790706e-06,7.868393221e-05,7.654714150e-05,3.734815971e-04,1.564312257e-05,3.891247197e-04,9.203485014e-05,9.677145934e-05,1.888063095e-04,1.880600970e-04,1.367176904e-05,2.017318661e-04,2.193686925e-04,3.700168405e-05,2.563703765e-04,6.890560556e-04,6.341354245e-05,7.524695980e-04,3.454445397e-04,1.581905050e-05,3.612635902e-04,1.590380973e-04,3.933846115e-05,1.983765585e-04,-2.463473320e-04,1.174089745e-04,-1.289383575e-04,-4.884386978e-04,8.456940922e-05,-4.038692886e-04,-5.612052676e-04,9.737344478e-05,-4.638318229e-04,-4.470050752e-04,9.433250759e-05,-3.526725677e-04,-4.445211625e-04,7.370776890e-05,-3.708133936e-04,3.498686164e-04,2.130016952e-05,3.711687859e-04,3.079708655e-04,4.226368035e-05,3.502345458e-04,2.787007805e-04,7.729457655e-05,3.559953570e-04,6.839241976e-05,1.065610471e-04,1.749534668e-04,1.118729030e-04,6.814954675e-05,1.800224498e-04,4.134202840e-04,8.393005275e-05,4.973503367e-04,2.604400831e-05,5.256127710e-05,7.860528541e-05,2.654314009e-04,5.428252864e-05,3.197139296e-04,-2.465400176e-04,1.234125718e-04,-1.231274458e-04,-3.937924063e-04,7.859626295e-05,-3.151961433e-04,-2.102015545e-04,1.041361639e-04,-1.060653906e-04,-5.802078077e-04,9.414555205e-05,-4.860622556e-04,-3.731332362e-04,7.238199686e-05,-3.007512394e-04,-1.791457063e-03,7.725985360e-04,-1.018858527e-03,-6.519628666e-04,1.831323901e-04,-4.688304764e-04,-3.898871882e-04,-7.012891659e-05,-4.600161048e-04,-1.275604085e-04,6.646744690e-05,-6.109296161e-05
-6.4,-2.709935979e-04,6.505810665e-05,-2.059354913e-04,3.793579892e-04,1.356547254e-04,5.150127146e-04,-1.257705338e-04,1.820146561e-04,5.624412231e-05,5.382456304e-04,2.264033028e-04,7.646489333e-04,4.655701682e-06,1.778240667e-04,1.824797683e-04,5.566455728e-04,6.971165002e-05,6.263572229e-04,7.693971342e-06,7.559751404e-05,8.329148538e-05,3.796836537e-04,1.405494592e-05,3.937385996e-04,1.025495890e-04,9.467702542e-05,1.972266144e-04,1.892152907e-04,1.188583034e-05,2.011011211e-04,2.261251291e-04,3.762844273e-05,2.637535719e-04,7.102368614e-04,7.672767951e-05,7.869645409e-04,3.704042138e-04,1.025284542e-05,3.806570592e-04,1.831047728e-04,4.141093041e-05,2.245157032e-04,-2.067179227e-04,1.195232178e-04,-8.719470497e-05,-4.574259956e-04,8.660572310e-05,-3.708202725e-04,-5.364809234e-04,9.852809727e-05,-4.379528262e-04,-4.080049439e-04,9.358101642e-05,-3.144239275e-04,-4.137286361e-04,7.327241219e-05,-3.404562240e-04,3.504677247e-04,2.114846565e-05,3.716161903e-04,3.202210053e-04,4.300336562e-05,3.632243709e-04,2.844006225e-04,7.295270920e-05,3.573533317e-04,8.892025732e-05,1.067396206e-04,1.956598779e-04,1.155530320e-04,6.177098908e-05,1.773240211e-04,4.323285185e-04,8.632365566e-05,5.186521742e-04,3.253761320e-05,5.449580383e-05,8.703341703e-05,3.049868171e-04,5.046293345e-05,3.554497505e-04,-2.311323060e-04,1.291353910e-04,-1.019969150e-04,-3.493768651e-04,8.084880280e-05,-2.685280623e-04,-1.730955209e-04,1.014939171e-04,-7.160160381e-05,-5.424482382e-04,9.762997966e-05,-4.448182586e-04,-3.250737399e-04,7.100001738e-05,-2.540737225e-04,-1.720752308e-03,7.804057898e-04,-9.403465182e-04,-6.139223433e-04,1.808082188e-04,-4.331141245e-04,-3.521574127e-04,-7.516879740e-05,-4.273262101e-04,-7.455667744e-05,6.754067409e-05,-7.016003347e-06
-6.3,-2.481832315e-04,7.057538564e-05,-1.776078458e-04,4.009747639e-04,1.356911978e-04,5.366659618e-04,-1.137259514e-04,1.877137010e-04,7.398774963e-05,5.476973001e-04,2.214748071e-04,7.691721071e-04,2.122822503e-05,1.760612426e-04,1.972894676e-04,5.512571771e-04,6.416519243e-05,6.154223695e-04,1.902190017e-05,7.241347987e-05,9.143538004e-05,3.862948821e-04,1.248891673e-05,3.987837989e-04,1.144903240e-04,9.253093624e-05,2.070212603e-04,1.911720116e-04,1.024306129e-05,2.014150729e-04,2.326099216e-04,3.820879603e-05,2.708187176e-04,7.310705791e-04,8.976286766e-05,8.208334468e-04,3.949382234e-04,5.727190651e-06,4.006654141e-04,2.082294238e-04,4.343375937e-05,2.516631832e-04,-1.654276598e-04,1.211728395e-04,-4.425482030e-05,-4.240986848e-04,8.844823617e-05,-3.356504486e-04,-5.095015810e-04,9.950008548e-05,-4.100014955e-04,-3.674206845e-04,9.266748171e-05,-2.747532028e-04,-3.812335180e-04,7.285580682e-05,-3.083777112e-04,3.511458393e-04,2.104210868e-05,3.721879480e-04,3.322540319e-04,4.367048622e-05,3.759245181e-04,2.898828241e-04,6.842084464e-05,3.583036687e-04,1.106314630e-04,1.065909432e-04,2.172224061e-04,1.201497823e-04,5.527854451e-05,1.754283268e-04,4.510425623e-04,8.829605140e-05,5.393386137e-04,3.925100915e-05,5.623524764e-05,9.548625679e-05,3.450394109e-04,4.668353705e-05,3.917229479e-04,-2.138692806e-04,1.341524678e-04,-7.971681275e-05,-3.029689562e-04,8.286725191e-05,-2.201017043e-04,-1.343084227e-04,9.868141291e-05,-3.562700983e-05,-5.021615150e-04,1.009029176e-04,-4.012585974e-04,-2.743673772e-04,6.951948743e-05,-2.048478898e-04,-1.641256705e-03,7.848865867e-04,-8.563701184e-04,-5.706402505e-04,1.790230408e-04,-3.916172097e-04,-3.108145359e-04,-8.003968470e-05,-3.908542206e-04,-1.940932409e-05,6.892781533e-05,4.951849124e-05
-6.2,-2.229301685e-04,7.599792059e-05,-1.469322479e-04,4.238133034e-04,1.355678250e-04,5.593811283e-04,-9.928813376e-05,1.927453576e-04,9.345722388e-05,5.576984869e-04,2.157710237e-04,7.734695106e-04,3.928626208e-05,1.738121213e-04,2.130983834e-04,5.448781770e-04,5.852596571e-05,6.034041427e-04,3.196819642e-05,6.912395107e-05,1.010921475e-04,3.933730403e-04,1.093582489e-05,4.043088652e-04,1.279606411e-04,9.032298775e-05,2.182836288e-04,1.940428685e-04,8.746561235e-06,2.027894297e-04,2.389656270e-04,3.872013358e-05,2.776857606e-04,7.516048435e-04,1.023728618e-04,8.539777053e-04,4.192405435e-04,2.182698238e-06,4.214232418e-04,2.343875540e-04,4.538673776e-05,2.797742917e-04,-1.223740416e-04,1.223423216e-04,-3.171997756e-08,-3.883369434e-04,9.007257075e-05,-2.982643726e-04,-4.800677274e-04,1.002895003e-04,-3.797782271e-04,-3.251776716e-04,9.156780480e-05,-2.336098668e-04,-3.468922603e-04,7.245691014e-05,-2.744353501e-04,3.520093845e-04,2.096481533e-05,3.729741998e-04,3.441470280e-04,4.425519532e-05,3.884022234e-04,2.952700605e-04,6.369839319e-05,3.589684537e-04,1.335823275e-04,1.061031180e-04,2.396854455e-04,1.258300916e-04,4.867824573e-05,1.745083373e-04,4.695778622e-04,8.981523493e-05,5.593930971e-04,4.623700511e-05,5.777877743e-05,1.040157825e-04,3.855795817e-04,4.294909696e-05,4.285286786e-04,-1.946009993e-04,1.384325343e-04,-5.616846504e-05,-2.544680462e-04,8.465866547e-05,-1.698093807e-04,-9.372455853e-05,9.569322506e-05,1.968666526e-06,-4.591270854e-04,1.039802945e-04,-3.551467909e-04,-2.209112509e-04,6.799860871e-05,-1.529126422e-04,-1.552504872e-03,7.858639928e-04,-7.666408796e-04,-5.218843426e-04,1.778368012e-04,-3.440475414e-04,-2.654238047e-04,-8.495650996e-05,-3.503803146e-04,3.819056369e-05,7.057704919e-05,1.087676129e-04
-6.1,-1.951198627e-04,8.130290337e-05,-1.138169593e-04,4.479155625e-04,1.352718796e-04,5.831874421e-04,-8.235487238e-05,1.970925681e-04,1.147376957e-04,5.683192568e-04,2.093293677e-04,7.776486245e-04,5.889248553e-05,1.710430251e-04,2.299355106e-04,5.375880022e-04,5.280183626e-05,5.903898385e-04,4.663577094e-05,6.572243862e-05,1.123582096e-04,4.009625766e-04,9.387574149e-06,4.103501508e-04,1.430413884e-04,8.804150004e-05,2.310828885e-04,1.979226122e-04,7.397026252e-06,2.053196384e-04,2.453330539e-04,3.914022460e-05,2.844732785e-04,7.718711867e-04,1.144201579e-04,8.862913446e-04,4.434926232e-04,-4.499985727e-07,4.430426246e-04,2.615361991e-04,4.724913217e-05,3.087853313e-04,-7.747273903e-05,1.230224326e-04,4.554969361e-05,-3.500403431e-04,9.145489727e-05,-2.585854459e-04,-4.480036882e-04,1.008970211e-04,-3.471066671e-04,-2.812107111e-04,9.025888253e-05,-1.909518285e-04,-3.105728684e-04,7.207026330e-05,-2.385026051e-04,3.531545658e-04,2.090014993e-05,3.740547157e-04,3.559719952e-04,4.474917787e-05,4.007211730e-04,3.006780096e-04,5.878571162e-05,3.594637212e-04,1.578038380e-04,1.052655015e-04,2.630693395e-04,1.327433517e-04,4.197590169e-05,1.747192534e-04,4.879435371e-04,9.085080416e-05,5.787943413e-04,5.354472661e-05,5.912713337e-05,1.126718600e-04,4.265713886e-04,3.927024133e-05,4.658416300e-04,-1.732015738e-04,1.419526472e-04,-3.124892666e-05,-2.037954191e-04,8.623019585e-05,-1.175652232e-04,-5.125218843e-05,9.252200389e-05,4.126981546e-05,-4.131514678e-04,1.068780462e-04,-3.062734217e-04,-1.646347429e-04,6.649209413e-05,-9.814264873e-05,-1.454106643e-03,7.831428615e-04,-6.709637812e-04,-4.674907342e-04,1.772799928e-04,-2.902107414e-04,-2.156363219e-04,-9.011163919e-05,-3.057479611e-04,9.850511744e-05,7.242484598e-05,1.709299634e-04
-6,-1.646597200e-04,8.646855562e-05,-7.819116439e-05,4.732989934e-04,1.347901796e-04,6.080891731e-04,-6.284975298e-05,2.007404968e-04,1.378907438e-04,5.796088180e-04,2.021906286e-04,7.817994466e-04,8.008838616e-05,1.677221799e-04,2.478105660e-04,5.294663142e-04,4.700194024e-05,5.764682545e-04,6.310548732e-05,6.220380749e-05,1.253092948e-04,4.090912674e-04,7.837170979e-06,4.169284384e-04,1.597873727e-04,8.567336438e-05,2.454607370e-04,2.028852780e-04,6.192706152e-06,2.090779842e-04,2.518473877e-04,3.944736382e-05,2.912947515e-04,7.918800408e-04,1.257771071e-04,9.176571479e-04,4.678546551e-04,-2.247291406e-06,4.656073637e-04,2.896116552e-04,4.899990739e-05,3.386115626e-04,-3.066099727e-05,1.232091766e-04,9.254817933e-05,-3.091324873e-04,9.257187498e-05,-2.165606123e-04,-4.131626190e-04,1.013233420e-04,-3.118392770e-04,-2.354670975e-04,8.871812803e-05,-1.467489695e-04,-2.721592596e-04,7.168579177e-05,-2.004734678e-04,3.546633962e-04,2.083142428e-05,3.754948204e-04,3.677918191e-04,4.514597328e-05,4.129377923e-04,3.062119162e-04,5.368426301e-05,3.598961792e-04,1.832964400e-04,1.040688883e-04,2.873653283e-04,1.410160881e-04,3.517721151e-05,1.761932996e-04,5.061402125e-04,9.137487539e-05,5.975150879e-04,6.121880937e-05,6.028197047e-05,1.215007798e-04,4.679540374e-04,3.566149103e-05,5.036155284e-04,-1.495732215e-04,1.446986417e-04,-4.874579770e-06,-1.509000917e-04,8.758848500e-05,-6.331160674e-05,-6.828898302e-06,8.915861241e-05,8.232971411e-05,-3.640753689e-04,1.096113681e-04,-2.544640009e-04,-1.055047092e-04,6.504875756e-05,-4.045595166e-05,-1.345768905e-03,7.765231081e-04,-5.692457969e-04,-4.073746192e-04,1.773582324e-04,-2.300163868e-04,-1.612087411e-04,-9.566130069e-05,-2.568700417e-04,1.617412821e-04,7.439945904e-05,2.361407412e-04
-5.9,-1.314849314e-04,9.147398113e-05,-4.001095030e-05,4.999509139e-04,1.341088049e-04,6.340597188e-04,-4.072709779e-05,2.036766420e-04,1.629495442e-04,5.915907791e-04,1.943989333e-04,7.859897124e-04,1.028900484e-04,1.638201606e-04,2.667102090e-04,5.205892228e-04,4.113645322e-05,5.617256760e-04,8.143135490e-05,5.856415781e-05,1.399955127e-04,4.177662181e-04,6.278617863e-06,4.240448360e-04,1.782235653e-04,8.320414765e-05,2.614277129e-04,2.089810261e-04,5.129412803e-06,2.141104389e-04,2.586336940e-04,3.962050419e-05,2.982541982e-04,8.116152288e-04,1.363265511e-04,9.479417799e-04,4.924561549e-04,-3.290081910e-06,4.891660730e-04,3.185270108e-04,5.061793398e-05,3.691449447e-04,1.809851844e-05,1.229027511e-04,1.410012696e-04,-2.655666489e-04,9.340072755e-05,-1.721659213e-04,-3.754321600e-04,1.015684673e-04,-2.738636927e-04,-1.879110836e-04,8.692330594e-05,-1.009877776e-04,-2.315569685e-04,7.128883543e-05,-1.602681331e-04,3.565993358e-04,2.074167249e-05,3.773410082e-04,3.796558277e-04,4.544118257e-05,4.250970102e-04,3.119628654e-04,4.839684620e-05,3.603597116e-04,2.100251769e-04,1.025057321e-04,3.125309090e-04,1.507466186e-04,2.828802106e-05,1.790346396e-04,5.241571294e-04,9.136324030e-05,6.155203697e-04,6.929810000e-05,6.124529256e-05,1.305433926e-04,5.096431913e-04,3.213868402e-05,5.417818753e-04,-1.236502054e-04,1.466654754e-04,2.301527003e-05,-9.576501382e-05,8.873922102e-05,-7.025792797e-06,3.957294184e-05,8.559239044e-05,1.251653323e-04,-3.117811575e-04,1.121939208e-04,-1.995872367e-04,-4.353152649e-05,6.370914868e-05,2.017762219e-05,-1.227317198e-03,7.658138667e-04,-4.615033313e-04,-3.415421689e-04,1.780578654e-04,-1.634843035e-04,-1.020170628e-04,-1.017165176e-04,-2.037335804e-04,2.280428533e-04,7.642467153e-05,3.044675249e-04
-5.8,-9.556460104e-05,9.629890566e-05,7.343046205e-07,5.278228730e-04,1.332128452e-04,6.610357182e-04,-1.597687499e-05,2.058909337e-04,1.899140587e-04,6.042584559e-04,1.860016366e-04,7.902600925e-04,1.272840258e-04,1.593103887e-04,2.865944145e-04,5.110254084e-04,3.521630825e-05,5.462417166e-04,1.016356254e-04,5.480065494e-05,1.564362803e-04,4.269701148e-04,4.706743071e-06,4.316768579e-04,1.983416763e-04,8.061836110e-05,2.789600374e-04,2.162333114e-04,4.200643320e-06,2.204339547e-04,2.658025150e-04,3.963943951e-05,3.054419545e-04,8.310291359e-04,1.459622753e-04,9.769914112e-04,5.173875113e-04,-3.661522302e-06,5.137259890e-04,3.481701925e-04,5.208226710e-05,4.002524596e-04,6.881371299e-05,1.221067393e-04,1.909204523e-04,-2.193313421e-04,9.391938449e-05,-1.254119576e-04,-3.347398580e-04,1.016309180e-04,-2.331089401e-04,-1.385289172e-04,8.485266629e-05,-5.367625087e-05,-1.886992982e-04,7.086035475e-05,-1.178389434e-04,3.590034380e-04,2.061372736e-05,3.796171654e-04,3.915957031e-04,4.563250368e-05,4.372282068e-04,3.180042753e-04,4.292787707e-05,3.609321523e-04,2.379164384e-04,1.005703898e-04,3.384868282e-04,1.620006714e-04,2.131466343e-05,1.833153349e-04,5.419691810e-04,9.079631747e-05,6.327654985e-04,7.781390257e-05,6.201903427e-05,1.398329368e-04,5.515311030e-04,2.871681073e-05,5.802479137e-04,-9.540201974e-05,1.478571954e-04,5.245517565e-05,-3.841226002e-05,8.968677933e-05,5.127451931e-05,8.794151063e-05,8.181154206e-05,1.697530527e-04,-2.561994186e-04,1.146371384e-04,-1.415622801e-04,2.122532697e-05,6.250369813e-05,8.372902510e-05,-1.098714187e-03,7.508471018e-04,-3.478670854e-04,-2.701006342e-04,1.793514511e-04,-9.074918304e-05,-3.806290244e-05,-1.083393839e-04,-1.464022864e-04,2.974832600e-04,7.842358353e-05,3.759068435e-04
-5.7,-5.690691792e-05,1.009233848e-04,4.401646690e-05,5.568264526e-04,1.320862656e-04,6.889127181e-04,1.137138279e-05,2.073758581e-04,2.187472409e-04,6.175710761e-04,1.770491102e-04,7.946201864e-04,1.532243531e-04,1.541696915e-04,3.073940445e-04,5.008328075e-04,2.925296079e-05,5.300857683e-04,1.237048810e-04,5.091135987e-05,1.746162409e-04,4.366585951e-04,3.117036296e-06,4.397756314e-04,2.200978365e-04,7.789989243e-05,2.979977289e-04,2.246369701e-04,3.397813470e-06,2.280347835e-04,2.734461932e-04,3.948504376e-05,3.129312370e-04,8.500397301e-04,1.545896139e-04,1.004629344e-03,5.426940877e-04,-3.444931180e-06,5.392491565e-04,3.784030728e-04,5.337253944e-05,4.317756122e-04,1.214593319e-04,1.208276372e-04,2.422869691e-04,-1.704547396e-04,9.410674064e-05,-7.634799894e-05,-2.910573408e-04,1.015070190e-04,-1.895503218e-04,-8.733334419e-05,8.248530276e-05,-4.848041431e-06,-1.435527146e-04,7.037724117e-05,-7.317547341e-05,3.618917402e-04,2.043029004e-05,3.823220303e-04,4.036224111e-04,4.571948883e-05,4.493418999e-04,3.243890848e-04,3.728357508e-05,3.616726599e-04,2.668568616e-04,9.825934435e-05,3.651162060e-04,1.748084468e-04,1.426429621e-05,1.890727430e-04,5.595344887e-04,8.965963135e-05,6.491941200e-04,8.678806900e-05,6.260477808e-05,1.493928471e-04,5.934854450e-04,2.540901229e-05,6.188944573e-04,-6.483528218e-05,1.482862316e-04,8.345094947e-05,2.109372059e-05,9.043386722e-05,1.115275878e-04,1.382222610e-04,7.780365089e-05,2.160259119e-04,-1.973135168e-04,1.169496437e-04,-8.036387309e-05,8.865345642e-05,6.145170155e-05,1.501051580e-04,-9.600721467e-04,7.314894799e-04,-2.285826668e-04,-1.932637768e-04,1.812023912e-04,-1.206138564e-05,3.052731236e-05,-1.155434855e-04,-8.501617312e-05,3.700604016e-04,8.032140073e-05,4.503818023e-04
-5.6,-1.556267170e-05,1.053275863e-04,8.976491459e-05,5.868311216e-04,1.307119185e-04,7.175430400e-04,4.124608544e-05,2.081266312e-04,2.493727166e-04,6.314513237e-04,1.675944798e-04,7.990458035e-04,1.806311554e-04,1.483789001e-04,3.290100556e-04,4.900561308e-04,2.325823221e-05,5.133143630e-04,1.475876377e-04,4.689507829e-05,1.944827160e-04,4.467590046e-04,1.505520019e-06,4.482645247e-04,2.434115260e-04,7.503245665e-05,3.184439827e-04,2.341573872e-04,2.710517455e-06,2.368679047e-04,2.816360835e-04,3.913948771e-05,3.207755712e-04,8.685295579e-04,1.621263379e-04,1.030655896e-03,5.683735710e-04,-2.722060672e-06,5.656515103e-04,4.090616706e-04,5.446939589e-05,4.635310665e-04,1.759738455e-04,1.190746462e-04,2.950484917e-04,-1.190073383e-04,9.394309025e-05,-2.506424808e-05,-2.444026809e-04,1.011904359e-04,-1.432122450e-04,-3.436686981e-05,7.980168950e-05,4.543481969e-05,-9.612069291e-05,6.981270726e-05,-2.630798565e-05,3.652539333e-04,2.017391616e-05,3.854278494e-04,4.157242208e-04,4.570303955e-05,4.614272604e-04,3.311477274e-04,3.147198252e-05,3.626197099e-04,2.966938047e-04,9.557138325e-05,3.922651879e-04,1.891627420e-04,7.145213205e-06,1.963079552e-04,5.767927647e-04,8.794392512e-05,6.647366898e-04,9.623128856e-05,6.300356305e-05,1.592348516e-04,6.353481053e-04,2.222635399e-05,6.575744593e-04,-3.199431135e-05,1.479719728e-04,1.159776615e-04,8.264464128e-05,9.098120409e-05,1.736258454e-04,1.903159842e-04,7.355631910e-05,2.638723033e-04,-1.351620438e-04,1.191367169e-04,-1.602532690e-05,1.585859311e-04,6.056116481e-05,2.191470959e-04,-8.116585138e-04,7.076529191e-04,-1.040055947e-04,-1.113521704e-04,1.835688130e-04,7.221664263e-05,1.035089468e-04,-1.232965182e-04,-1.978757136e-05,4.456943503e-04,8.204679685e-05,5.277411472e-04
-5.5,2.837253948e-05,1.094916816e-04,1.378642211e-04,6.176634686e-04,1.290716296e-04,7.467350983e-04,7.353209539e-05,2.081413629e-04,2.816734583e-04,6.457839293e-04,1.576933532e-04,8.034772825e-04,2.093903320e-04,1.419234149e-04,3.513137469e-04,4.787249743e-04,1.724415229e-05,4.959691266e-04,1.731930842e-04,4.275120199e-05,2.159442862e-04,4.571700260e-04,-1.313916385e-07,4.570386344e-04,2.681652099e-04,7.199990783e-05,3.401651177e-04,2.447303638e-04,2.126736430e-06,2.468571002e-04,2.904202562e-04,3.858635522e-05,3.290066114e-04,8.863458027e-04,1.685035148e-04,1.054849317e-03,5.943761891e-04,-1.572000329e-06,5.928041888e-04,4.399569603e-04,5.535485499e-05,4.953118153e-04,2.322569506e-04,1.168595966e-04,3.491165472e-04,-6.510309930e-05,9.341067210e-05,2.830757280e-05,-1.948412322e-04,1.006719555e-04,-9.416927671e-05,2.029616001e-05,7.678432667e-05,9.708048668e-05,-4.644611145e-05,6.913673848e-05,2.269062703e-05,3.690526396e-04,1.982699983e-05,3.888796395e-04,4.278652996e-04,4.558484345e-05,4.734501431e-04,3.382865951e-04,2.550291895e-05,3.637895141e-04,3.272362926e-04,9.250773005e-05,4.197440226e-04,2.050173386e-04,-3.283458990e-08,2.049845040e-04,5.936642730e-04,8.564521737e-05,6.793094904e-04,1.061417325e-04,6.321572864e-05,1.693574612e-04,6.769352690e-04,1.917750846e-05,6.961127775e-04,3.039123833e-06,1.469389137e-04,1.499780375e-04,1.460877395e-04,9.132732788e-05,2.374150673e-04,2.440776856e-04,6.905787692e-05,3.131355625e-04,-6.983991194e-05,1.211997961e-04,5.135988415e-05,2.308011120e-04,5.982928471e-05,2.906303967e-04,-6.538959645e-04,6.793045331e-04,2.540856862e-05,-2.478969471e-05,1.864067338e-04,1.616170391e-04,1.805298079e-04,-1.315238467e-04,4.900596118e-05,5.242270947e-04,8.353271307e-05,6.077598078e-04
-5.4,7.475646085e-05,1.133957599e-04,1.881522207e-04,6.491065800e-04,1.271462577e-04,7.762528377e-04,1.080694521e-04,2.074211259e-04,3.154905780e-04,6.604146560e-04,1.474035252e-04,8.078181812e-04,2.393533466e-04,1.347936669e-04,3.741470135e-04,4.668521001e-04,1.122273131e-05,4.780748314e-04,2.003901864e-04,3.847952342e-05,2.388697099e-04,4.677614468e-04,-1.797099677e-06,4.659643471e-04,2.942039970e-04,6.878637438e-05,3.629903714e-04,2.562621113e-04,1.632993167e-06,2.578951045e-04,2.998211710e-04,3.781067497e-05,3.376318460e-04,9.033005593e-04,1.736658413e-04,1.076966401e-03,6.206070988e-04,-7.121316685e-08,6.205358856e-04,4.708757370e-04,5.601253768e-05,5.268882746e-04,2.901674725e-04,1.141969772e-04,4.043644498e-04,-8.899835063e-06,9.249418012e-05,8.359434505e-05,-1.424858085e-04,9.993934512e-05,-4.254646340e-05,7.654803726e-05,7.341839742e-05,1.499664347e-04,5.387102973e-06,6.831654237e-05,7.370364534e-05,3.732225859e-04,1.937189798e-05,3.925944839e-04,4.399843701e-04,4.536695475e-05,4.853513249e-04,3.457866702e-04,1.938801493e-05,3.651746851e-04,3.582557752e-04,8.907213116e-05,4.473279063e-04,2.222852272e-04,-7.258305342e-06,2.150269219e-04,6.100489897e-04,8.276500166e-05,6.928139914e-04,1.165039802e-04,6.324073980e-05,1.797447200e-04,7.180388163e-04,1.626814429e-05,7.343069606e-04,4.014622665e-05,1.452148192e-04,1.853610458e-04,2.112251119e-04,9.146854407e-05,3.026936559e-04,2.993158241e-04,6.429806376e-05,3.636138879e-04,-1.499043990e-06,1.231360473e-04,1.216370033e-04,3.050228032e-04,5.924322864e-05,3.642660319e-04,-4.873596018e-04,6.464752486e-04,1.591156468e-04,6.590290168e-05,1.896716925e-04,2.555745941e-04,2.611424722e-04,-1.401128504e-04,1.210296218e-04,6.054228448e-04,8.471763881e-05,6.901404836e-04
-5.3,1.233980767e-04,1.170196538e-04,2.404177306e-04,6.808989120e-04,1.249157054e-04,8.058146174e-04,1.446519304e-04,2.059699122e-04,3.506218426e-04,6.751493220e-04,1.367846277e-04,8.119339497e-04,2.703366236e-04,1.269854693e-04,3.973220929e-04,4.544316801e-04,5.205705820e-06,4.596373859e-04,2.290067544e-04,3.408005048e-05,2.630868048e-04,4.783737787e-04,-3.495081583e-06,4.748786971e-04,3.213350834e-04,6.537628685e-05,3.867113703e-04,2.686290853e-04,1.214495299e-06,2.698435806e-04,3.098331666e-04,3.679894079e-05,3.466321074e-04,9.191711645e-04,1.775713098e-04,1.096742474e-03,6.469305602e-04,1.704734311e-06,6.486352945e-04,5.015813280e-04,5.642778160e-05,5.580091096e-04,3.495215640e-04,1.111040827e-04,4.606256467e-04,4.940052473e-05,9.118113967e-05,1.405816644e-04,-8.749693581e-05,9.897716501e-05,1.148022920e-05,1.342461574e-04,6.969237916e-05,2.039385365e-04,5.925243394e-05,6.731697801e-05,1.265694119e-04,3.776695243e-04,1.879122130e-05,3.964607456e-04,4.519933996e-04,4.505152109e-05,4.970449207e-04,3.536022814e-04,1.314083164e-05,3.667431130e-04,3.894868443e-04,8.527089659e-05,4.747577408e-04,2.408369072e-04,-1.451757799e-05,2.263193292e-04,6.258257273e-04,7.931053325e-05,7.051362606e-04,1.272880995e-04,6.307697536e-05,1.903650748e-04,7.584281902e-04,1.350038688e-05,7.719285771e-04,7.917129392e-05,1.428292802e-04,2.220005742e-04,2.778128554e-04,9.139894907e-05,3.692118045e-04,3.557918821e-04,5.926860282e-05,4.150604850e-04,6.965086969e-05,1.249380612e-04,1.945889309e-04,3.809202034e-04,5.878092521e-05,4.397011286e-04,-3.127735028e-04,6.092657959e-04,2.964922931e-04,1.601171572e-04,1.933183784e-04,3.534355356e-04,3.448161799e-04,-1.489182526e-04,1.958979274e-04,6.889679906e-04,8.554755281e-05,7.745155434e-04
-5.2,1.740554125e-04,1.203426773e-04,2.943980898e-04,7.127329754e-04,1.223589648e-04,8.350919401e-04,1.830257131e-04,2.037945540e-04,3.868202671e-04,6.897530307e-04,1.258977214e-04,8.156507521e-04,3.021208218e-04,1.185003121e-04,4.206211339e-04,4.414376525e-04,-7.956433942e-07,4.406420091e-04,2.588286799e-04,2.955287486e-05,2.883815547e-04,4.888180459e-04,-5.229154735e-06,4.835888912e-04,3.493273245e-04,6.175438994e-05,4.110817144e-04,2.816778066e-04,8.552811402e-07,2.825330878e-04,3.204201001e-04,3.553915069e-05,3.559592508e-04,9.337008419e-04,1.801905125e-04,1.113891354e-03,6.731753496e-04,3.677991632e-06,6.768533412e-04,5.318143631e-04,5.658769133e-05,5.884020544e-04,4.100913959e-04,1.076011567e-04,5.176925526e-04,1.095517256e-04,8.946213110e-05,1.990138567e-04,-3.008325740e-05,9.776656670e-05,6.768330930e-05,1.932114373e-04,6.559858365e-05,2.588100209e-04,1.149791669e-04,6.610106425e-05,1.810802312e-04,3.822693661e-04,1.806821273e-05,4.003375789e-04,4.637767307e-04,4.464053008e-05,5.084172608e-04,3.616602426e-04,6.776947238e-06,3.684371899e-04,4.206287035e-04,8.111292758e-05,5.017416311e-04,2.604994643e-04,-2.179475682e-05,2.387047075e-04,6.408513139e-04,7.529504117e-05,7.161463551e-04,1.384488517e-04,6.272153958e-05,2.011703913e-04,7.978520157e-04,1.087257400e-05,8.087245897e-04,1.199214688e-04,1.398128397e-04,2.597343085e-04,3.455605366e-04,9.111049933e-05,4.366710360e-04,4.132206618e-04,5.396367086e-05,4.671843327e-04,1.433417589e-04,1.265937237e-04,2.699354825e-04,4.581080308e-04,5.841171241e-05,5.165197432e-04,-1.310071787e-04,5.678495154e-04,4.368423367e-04,2.571678713e-04,1.972992476e-04,4.544671189e-04,4.309473409e-04,-1.577677463e-04,2.731795946e-04,7.744705475e-04,8.597811287e-05,8.604486604e-04
-5.1,2.264340781e-04,1.233433845e-04,3.497774626e-04,7.442549026e-04,1.194543315e-04,8.637092341e-04,2.228889532e-04,2.009046897e-04,4.237936430e-04,7.039501754e-04,1.148048069e-04,8.187549822e-04,3.344507989e-04,1.093456661e-04,4.437964650e-04,4.278226300e-04,-6.770562194e-06,4.210520678e-04,2.896000063e-04,2.489812107e-05,3.144981274e-04,4.988764223e-04,-7.003690866e-06,4.918727314e-04,3.779117274e-04,5.790583202e-05,4.358175595e-04,2.952252014e-04,5.383482299e-07,2.957635496e-04,3.315138050e-04,3.402083884e-05,3.655346438e-04,9.466002142e-04,1.815059726e-04,1.128106187e-03,6.991402736e-04,5.765241359e-06,7.049055149e-04,5.612941941e-04,5.648114844e-05,6.177753425e-04,4.716047414e-04,1.037113614e-04,5.753161029e-04,1.712634983e-04,8.733089483e-05,2.585943931e-04,2.949850267e-05,9.628521973e-05,1.257837224e-04,2.532272606e-04,6.113357600e-05,3.143608366e-04,1.723510996e-04,6.463069019e-05,2.369817898e-04,3.868683296e-04,1.718718448e-05,4.040555140e-04,4.751912575e-04,4.413551966e-05,5.193267771e-04,3.698597642e-04,3.139363556e-07,3.701737005e-04,4.513485479e-04,7.660980658e-05,5.279583545e-04,2.810573216e-04,-2.907155820e-05,2.519857634e-04,6.549601451e-04,7.073782174e-05,7.256979668e-04,1.499251390e-04,6.217020990e-05,2.120953489e-04,8.360392560e-04,8.379273148e-06,8.444185291e-04,1.621665497e-04,1.361966455e-04,2.983631952e-04,4.141319942e-04,9.059321058e-05,5.047252048e-04,4.712719922e-04,4.838032799e-05,5.196523202e-04,2.192475098e-04,1.280863085e-04,3.473338183e-04,5.361479387e-04,5.809682521e-05,5.942447640e-04,5.692997000e-05,5.224719285e-04,5.794018985e-04,3.563047581e-04,2.015633425e-04,5.578681006e-04,5.188687486e-04,-1.664663527e-04,3.524023959e-04,8.614598048e-04,8.597666999e-05,9.474364748e-04
-5,2.801877758e-04,1.259994676e-04,4.061872434e-04,7.750663355e-04,1.161799053e-04,8.912462408e-04,2.638932514e-04,1.973127853e-04,4.612060367e-04,7.174260018e-04,1.035681708e-04,8.209941725e-04,3.670372696e-04,9.953531182e-05,4.665725814e-04,4.135179785e-04,-1.270882091e-05,4.008091576e-04,3.210247286e-04,2.011595926e-05,3.411406878e-04,5.083045016e-04,-8.823734109e-06,4.994807674e-04,4.067838325e-04,5.381643071e-05,4.606002632e-04,3.090601838e-04,2.457763380e-07,3.093059601e-04,3.430141187e-04,3.223509927e-05,3.752492180e-04,9.575505708e-04,1.815118393e-04,1.139062410e-03,7.245988971e-04,7.876224776e-06,7.324751219e-04,5.897217099e-04,5.609879509e-05,6.458205050e-04,5.337459249e-04,9.946051192e-05,6.332064368e-04,2.342031903e-04,8.478438236e-05,3.189875727e-04,9.094507360e-05,9.450751108e-05,1.854525847e-04,3.140397982e-04,5.629843330e-05,3.703382315e-04,2.311064327e-04,6.286758146e-05,2.939740142e-04,3.912849137e-04,1.613406711e-05,4.074189808e-04,4.860682600e-04,4.353732088e-05,5.296055809e-04,3.780734811e-04,-6.228702365e-06,3.718447787e-04,4.812878153e-04,7.177599602e-05,5.530638113e-04,3.022553742e-04,-3.632727343e-05,2.659281007e-04,6.679645344e-04,6.566427827e-05,7.336288127e-04,1.616399743e-04,6.141757318e-05,2.230575475e-04,8.727003483e-04,6.011422952e-06,8.787117713e-04,2.056396388e-04,1.320124469e-04,3.376520857e-04,4.831485843e-04,8.983559588e-05,5.729841801e-04,5.295745526e-04,4.251896521e-05,5.720935178e-04,2.969864091e-04,1.293948202e-04,4.263812293e-04,6.145527393e-04,5.778988393e-05,6.723426232e-04,2.498998912e-04,4.734466610e-04,7.233465522e-04,4.567249612e-04,2.060554432e-04,6.627804043e-04,6.078582478e-04,-1.747985257e-04,4.330597221e-04,9.493878790e-04,8.552377134e-05,1.034911650e-03
-4.9,3.349218659e-04,1.282878337e-04,4.632096996e-04,8.047297464e-04,1.125143623e-04,9.172441087e-04,3.056478537e-04,1.930341656e-04,4.986820193e-04,7.298303827e-04,9.224949595e-05,8.220798787e-04,3.995608981e-04,8.908963692e-05,4.886505350e-04,3.984355853e-04,-1.860068535e-05,3.798349000e-04,3.527710612e-04,1.520666124e-05,3.679777224e-04,5.168357099e-04,-1.069497740e-05,5.061407325e-04,4.356085880e-04,4.947315541e-05,4.850817434e-04,3.229470017e-04,-4.109424439e-08,3.229059074e-04,3.547909120e-04,3.017465035e-05,3.849655623e-04,9.662096915e-04,1.802141912e-04,1.146423883e-03,7.493038279e-04,9.914591344e-06,7.592184192e-04,6.167839487e-04,5.543304959e-05,6.722169983e-04,5.961584677e-04,9.487660560e-05,6.910350733e-04,2.979995650e-04,8.182280824e-05,3.798223733e-04,1.539106875e-04,9.240508718e-05,2.463157747e-04,3.753603608e-04,5.109887465e-05,4.264592355e-04,2.909398026e-04,6.077452217e-05,3.517143247e-04,3.953140706e-04,1.489706079e-05,4.102111314e-04,4.962172374e-04,4.284591028e-05,5.390631476e-04,3.861497278e-04,-1.282960246e-05,3.733201253e-04,5.100713131e-04,6.662908067e-05,5.767003938e-04,3.238045047e-04,-4.353887728e-05,2.802656274e-04,6.796562891e-04,6.010592778e-05,7.397622169e-04,1.735012976e-04,6.045726917e-05,2.339585668e-04,9.075293113e-04,3.756363097e-06,9.112856744e-04,2.500393908e-04,1.272927125e-04,3.773321033e-04,5.521954175e-04,8.882532645e-05,6.410207439e-04,5.877220568e-04,3.638376302e-05,6.241058199e-04,3.761266117e-04,1.304945102e-04,5.066211219e-04,6.927944133e-04,5.743775513e-05,7.502321684e-04,4.466553608e-04,4.211474855e-04,8.678028463e-04,5.575877182e-04,2.107152000e-04,7.683029182e-04,6.971482901e-04,-1.825286245e-04,5.146196657e-04,1.037635108e-03,8.461375850e-05,1.122248867e-03
-4.8,3.902001724e-04,1.301848401e-04,5.203850125e-04,8.327770870e-04,1.084378219e-04,9.412149089e-04,3.477264748e-04,1.880870054e-04,5.358134803e-04,7.407838327e-04,8.090878070e-05,8.216926134e-04,4.316787035e-04,7.803580963e-05,5.097145131e-04,3.824713535e-04,-2.443688037e-05,3.580344732e-04,3.844781564e-04,1.017070840e-05,3.946488648e-04,5.241876416e-04,-1.262358195e-05,5.115640596e-04,4.640273864e-04,4.486473122e-05,5.088921176e-04,3.366301667e-04,-3.413940791e-07,3.362887727e-04,3.666878115e-04,2.783396631e-05,3.945217778e-04,9.722201623e-04,1.776318837e-04,1.149852046e-03,7.729916467e-04,1.178022581e-05,7.847718725e-04,6.421601351e-04,5.447821137e-05,6.966383465e-04,6.584493980e-04,8.998919399e-05,7.484385920e-04,3.622489941e-04,7.844974897e-05,4.406987431e-04,2.180138797e-04,8.994769504e-05,3.079615748e-04,4.368698604e-04,4.554530484e-05,4.824151652e-04,3.515068488e-04,5.831680207e-05,4.098236509e-04,3.987331079e-04,1.346721859e-05,4.122003265e-04,5.054314227e-04,4.206035339e-05,5.474917761e-04,3.939158376e-04,-1.946561369e-05,3.744502239e-04,5.373179873e-04,6.118990317e-05,5.985078905e-04,3.453885452e-04,-5.068137462e-05,2.947071705e-04,6.898096910e-04,5.410035814e-05,7.439100492e-04,1.854037467e-04,5.928222148e-05,2.446859682e-04,9.402075342e-04,1.597668802e-06,9.418052030e-04,2.950341885e-04,1.220706812e-04,4.171048697e-04,6.208299892e-04,8.754995404e-05,7.083799433e-04,6.452812071e-04,2.998309571e-05,6.752643028e-04,4.561944162e-04,1.313574435e-04,5.875518597e-04,7.703152233e-04,5.698219149e-05,8.272974148e-04,6.458658092e-04,3.659982274e-04,1.011864037e-03,6.580318566e-04,2.154760894e-04,8.735079459e-04,7.859379456e-04,-1.894016636e-04,5.965362820e-04,1.125520143e-03,8.325412749e-05,1.208774271e-03
-4.7,4.455539260e-04,1.316666297e-04,5.772205557e-04,8.587202698e-04,1.039325701e-04,9.626528399e-04,3.896756096e-04,1.824922549e-04,5.721678645e-04,7.498850065e-04,6.960322321e-05,8.194882297e-04,4.630316444e-04,6.640775744e-05,5.294394019e-04,3.655098206e-04,-3.020857363e-05,3.353012470e-04,4.157642720e-04,5.008956072e-06,4.207732280e-04,5.300693015e-04,-1.461587884e-05,5.154534226e-04,4.916660368e-04,3.998217333e-05,5.316482101e-04,3.498401047e-04,-6.744095212e-07,3.491656952e-04,3.785266276e-04,2.520943276e-05,4.037360604e-04,9.752189999e-04,1.737973771e-04,1.149016377e-03,7.953886276e-04,1.337189560e-05,8.087605232e-04,6.655281330e-04,5.323061463e-05,7.187587477e-04,7.201948106e-04,8.482861891e-05,8.050234295e-04,4.265231895e-04,7.467235991e-05,5.011955494e-04,2.828461648e-04,8.710417188e-05,3.699503367e-04,4.982247611e-04,3.965272854e-05,5.378774897e-04,4.124307579e-04,5.546378195e-05,4.678945398e-04,4.013081618e-04,1.183876685e-05,4.131469286e-04,5.134940043e-04,4.117876615e-05,5.546727704e-04,4.011819558e-04,-2.611201080e-05,3.750699450e-04,5.626514823e-04,5.548248407e-05,6.181339664e-04,3.666713402e-04,-5.772837815e-05,3.089429621e-04,6.981856023e-04,4.769117925e-05,7.458767815e-04,1.972310831e-04,5.788485195e-05,2.551159350e-04,9.704089301e-04,-4.848447525e-07,9.699240853e-04,3.402678775e-04,1.163803208e-04,4.566481982e-04,6.885915998e-04,8.599753757e-05,7.745891374e-04,7.018001612e-04,2.332983226e-05,7.251299935e-04,5.366838524e-04,1.319530760e-04,6.686369284e-04,8.465396891e-04,5.636237731e-05,9.029020664e-04,8.461440300e-04,3.084638435e-04,1.154607873e-03,7.571948033e-04,2.202642453e-04,9.774590486e-04,8.734076068e-04,-1.951466230e-04,6.782609838e-04,1.212313600e-03,8.146393001e-05,1.293777530e-03
-4.6,5.004910382e-04,1.327095019e-04,6.332005402e-04,8.820615473e-04,9.898349689e-05,9.810450442e-04,4.310228632e-04,1.762734885e-04,6.072963517e-04,7.567186266e-04,5.838621772e-05,8.151048443e-04,4.932518833e-04,5.424594601e-05,5.474978293e-04,3.474289813e-04,-3.590742912e-05,3.115215522e-04,4.462349649e-04,-2.771894232e-07,4.459577755e-04,5.341880313e-04,-1.667803759e-05,5.175099937e-04,5.181423323e-04,3.481911307e-05,5.529614454e-04,3.622985986e-04,-1.059288300e-06,3.612393103e-04,3.901114767e-04,2.229947573e-05,4.124109525e-04,9.748469667e-04,1.687567668e-04,1.143603733e-03,8.162159025e-04,1.458989662e-05,8.308057991e-04,6.865702967e-04,5.168872948e-05,7.382590262e-04,7.809460974e-04,7.942513202e-05,8.603712294e-04,4.903770485e-04,7.050173027e-05,5.608787788e-04,3.479811108e-04,8.384340675e-05,4.318245175e-04,5.590635235e-04,3.344042690e-05,5.925039504e-04,4.733096119e-04,5.219037200e-05,5.254999839e-04,4.028000675e-04,1.000915075e-05,4.128092182e-04,5.201839177e-04,4.019828455e-05,5.603822023e-04,4.077448552e-04,-3.274281273e-05,3.750020425e-04,5.857089607e-04,4.953372514e-05,6.352426859e-04,3.873029904e-04,-6.465277637e-05,3.226502140e-04,7.045360840e-04,4.092801147e-05,7.454640955e-04,2.088586906e-04,5.625739258e-05,2.651160832e-04,9.978054342e-04,-2.514480219e-06,9.952909540e-04,3.853660859e-04,1.102563641e-04,4.956224499e-04,7.550098816e-04,8.415715349e-05,8.391670351e-04,7.568163302e-04,1.644152033e-05,7.732578505e-04,6.170658191e-04,1.322489174e-04,7.493147365e-04,9.208851335e-04,5.551809020e-05,9.764032237e-04,1.046069587e-03,2.490444014e-04,1.295113988e-03,8.542302669e-04,2.249975299e-04,1.079227797e-03,9.587348197e-04,-1.994839144e-04,7.592509054e-04,1.297252728e-03,7.927213412e-05,1.376524862e-03
-4.5,5.545042723e-04,1.332902438e-04,6.877945161e-04,9.023025179e-04,9.357823665e-05,9.958807545e-04,4.712843451e-04,1.694566641e-04,6.407410092e-04,7.608631140e-04,4.730650705e-05,8.081696211e-04,5.219687565e-04,4.159699966e-05,5.635657561e-04,3.281045768e-04,-4.152575089e-05,2.865788259e-04,4.754902880e-04,-5.685646694e-06,4.698046414e-04,5.362553533e-04,-1.881577979e-05,5.174395735e-04,5.430724600e-04,2.937192270e-05,5.724443827e-04,3.737235875e-04,-1.514770828e-06,3.722088167e-04,4.012321483e-04,1.910468276e-05,4.203368310e-04,9.707564709e-04,1.625686498e-04,1.133325121e-03,8.351927335e-04,1.533881263e-05,8.505315462e-04,7.049781979e-04,4.985318178e-05,7.548313797e-04,8.402362886e-04,7.380798194e-05,9.140442706e-04,5.533556018e-04,6.595322918e-05,6.193088310e-04,4.129824967e-04,8.013520980e-05,4.931177065e-04,6.190126823e-04,2.693132163e-05,6.459440039e-04,5.337234738e-04,4.847819830e-05,5.822016721e-04,4.029690680e-04,7.978950266e-06,4.109480183e-04,5.252805100e-04,3.911509853e-05,5.643956085e-04,4.133914898e-04,-3.933106640e-05,3.740604234e-04,6.061474976e-04,4.337294666e-05,6.495204443e-04,4.069251745e-04,-7.142731829e-05,3.354978562e-04,7.086089481e-04,3.386639995e-05,7.424753480e-04,2.201556621e-04,5.439237661e-05,2.745480387e-04,1.022072049e-03,-4.516533146e-06,1.017555516e-03,4.299421118e-04,1.037345637e-04,5.336766755e-04,8.196115840e-04,8.201935546e-05,9.016309394e-04,8.098630073e-04,9.340414601e-06,8.192034219e-04,6.967958098e-04,1.322113899e-04,8.290071997e-04,9.927697664e-04,5.439297588e-05,1.047162742e-03,1.244208897e-03,1.882705856e-04,1.432479483e-03,9.483225126e-04,2.295850139e-04,1.177907527e-03,1.041109040e-03,-2.021367928e-04,8.389722471e-04,1.379554935e-03,7.671656499e-05,1.456271500e-03
-4.4,6.070778662e-04,1.333863624e-04,7.404642286e-04,9.189514943e-04,8.770709403e-05,1.006658588e-03,5.099709761e-04,1.620697967e-04,6.720407727e-04,7.618977338e-04,3.640745874e-05,7.983051925e-04,5.488133633e-04,2.851320967e-05,5.773265729e-04,3.074135815e-04,-4.705666244e-05,2.603569191e-04,5.031307459e-04,-1.121360312e-05,4.919171428e-04,5.359916288e-04,-2.103413538e-05,5.149574934e-04,5.660762398e-04,2.363975350e-05,5.897159933e-04,3.838333979e-04,-2.058895653e-06,3.817745023e-04,4.116668849e-04,1.562799045e-05,4.272948754e-04,9.626178544e-04,1.553022085e-04,1.117920063e-03,8.520376941e-04,1.553029850e-05,8.675679926e-04,7.204562932e-04,4.772676509e-05,7.681830583e-04,8.975861142e-04,6.800464003e-05,9.655907543e-04,6.149998597e-04,6.104659515e-05,6.760464548e-04,4.774108921e-04,7.595118909e-05,5.533620812e-04,6.776921317e-04,2.015107231e-05,6.978432041e-04,5.932406869e-04,4.431630266e-05,6.375569896e-04,4.015785525e-04,5.751740153e-06,4.073302926e-04,5.285670369e-04,3.792455730e-05,5.664915942e-04,4.179023631e-04,-4.584900170e-05,3.720533614e-04,6.236483539e-04,3.703130814e-05,6.606796621e-04,4.251761092e-04,-7.802502734e-05,3.471510818e-04,7.101519583e-04,2.656739595e-05,7.367193543e-04,2.309863741e-04,5.228325541e-05,2.832696295e-04,1.042891339e-03,-6.517461350e-06,1.036373877e-03,4.736019031e-04,9.685214194e-05,5.704540450e-04,8.819258418e-04,7.957658741e-05,9.615024292e-04,8.604750688e-04,2.053291682e-06,8.625283605e-04,7.753202551e-04,1.318069134e-04,9.071271685e-04,1.061618592e-03,5.293754592e-05,1.114556138e-03,1.439134150e-03,1.266984152e-04,1.565832565e-03,1.038697085e-03,2.339262533e-04,1.272623339e-03,1.119743751e-03,-2.028443605e-04,9.168993906e-04,1.458429662e-03,7.384319995e-05,1.532272862e-03
-4.3,6.576931166e-04,1.329762205e-04,7.906693371e-04,9.315298229e-04,8.136290722e-05,1.012892730e-03,5.465942282e-04,1.541426041e-04,7.007368322e-04,7.594094691e-04,2.572643230e-05,7.851359014e-04,5.734224204e-04,1.505197541e-05,5.884743958e-04,2.852371229e-04,-5.249422633e-05,2.327428966e-04,5.287624387e-04,-1.685746822e-05,5.119049705e-04,5.331299687e-04,-2.333716317e-05,5.097928056e-04,5.867817686e-04,1.762461542e-05,6.044063840e-04,3.923507820e-04,-2.708648593e-06,3.896421334e-04,4.211851189e-04,1.187497728e-05,4.330600962e-04,9.501246313e-04,1.470353422e-04,1.097159973e-03,8.664682811e-04,1.508582037e-05,8.815541015e-04,7.327250443e-04,4.531451618e-05,7.780395604e-04,9.525097335e-04,6.204030229e-05,1.014550036e-03,6.748519468e-04,5.580563889e-05,7.306575857e-04,5.408288090e-04,7.126581607e-05,6.120946251e-04,7.347196516e-04,1.312708378e-05,7.478467354e-04,6.514234761e-04,3.970135682e-05,6.911248329e-04,3.983985255e-04,3.333823066e-06,4.017323486e-04,5.298335031e-04,3.662125830e-05,5.664547614e-04,4.210550777e-04,-5.226815320e-05,3.687869245e-04,6.379202458e-04,3.054117817e-05,6.684614239e-04,4.416959802e-04,-8.441946045e-05,3.572765198e-04,7.089167595e-04,1.909660705e-05,7.280133665e-04,2.412118473e-04,4.992500679e-05,2.911368541e-04,1.059957628e-03,-8.544862978e-06,1.051412765e-03,5.159482869e-04,8.964834708e-05,6.055966340e-04,9.414888977e-04,7.682346996e-05,1.018312368e-03,9.081944211e-04,-5.388945795e-06,9.028054753e-04,8.520822188e-04,1.310030897e-04,9.830853085e-04,1.126868187e-03,5.111173014e-05,1.177979917e-03,1.629441780e-03,6.490260483e-05,1.694344385e-03,1.124628852e-03,2.379095801e-04,1.362538432e-03,1.193885711e-03,-2.013733216e-04,9.925123895e-04,1.533089317e-03,7.070524259e-05,1.603794559e-03
-4.2,7.058340185e-04,1.320391700e-04,8.378731885e-04,9.395782971e-04,7.454103034e-05,1.014119327e-03,5.806721748e-04,1.457062214e-04,7.263783962e-04,7.530000750e-04,1.529423515e-05,7.682943102e-04,5.954423756e-04,1.275228502e-06,5.967176041e-04,2.614633857e-04,-5.783345612e-05,2.036299295e-04,5.520021888e-04,-2.261276376e-05,5.293894251e-04,5.274201596e-04,-2.572759068e-05,5.016925689e-04,6.048303288e-04,1.133156539e-05,6.161618941e-04,3.990072532e-04,-3.479586286e-06,3.955276669e-04,4.295508358e-04,7.854215706e-06,4.374050515e-04,9.329986678e-04,1.378534696e-04,1.070852137e-03,8.782000702e-04,1.393920491e-05,8.921392751e-04,7.415242056e-04,4.262383527e-05,7.841480408e-04,1.004520406e-03,5.593762257e-05,1.060458028e-03,7.324602336e-04,5.025763162e-05,7.827178652e-04,6.028052154e-04,6.605780830e-05,6.688630237e-04,7.897151359e-04,5.887622793e-06,7.956027586e-04,7.078333963e-04,3.463753773e-05,7.424709340e-04,3.932095719e-04,7.338065283e-07,3.939433784e-04,5.288795754e-04,3.519902946e-05,5.640786049e-04,4.226285163e-04,-5.855961134e-05,3.640689050e-04,6.487029314e-04,2.393554427e-05,6.726384757e-04,4.561335484e-04,-9.058486395e-05,3.655486844e-04,7.046629006e-04,1.152275641e-05,7.161856570e-04,2.506913680e-04,4.731463059e-05,2.980059986e-04,1.072981023e-03,-1.062796217e-05,1.062353061e-03,5.565850569e-04,8.216496283e-05,6.387500197e-04,9.978494387e-04,7.375692420e-05,1.071606363e-03,9.525759655e-04,-1.295180746e-05,9.396241580e-04,9.265275334e-04,1.297697550e-04,1.056297288e-03,1.187971790e-03,4.888688393e-05,1.236858674e-03,1.813769479e-03,3.469401722e-06,1.817238880e-03,1.205448447e-03,2.414093621e-04,1.446857809e-03,1.262822790e-03,-1.975276973e-04,1.065295093e-03,1.602760221e-03,6.736155758e-05,1.670121779e-03
-4.1,7.509941001e-04,1.305558218e-04,8.815499219e-04,9.426648051e-04,6.723953155e-05,1.009904337e-03,6.117366109e-04,1.367930151e-04,7.485296260e-04,7.422937603e-04,5.134671418e-06,7.474284317e-04,6.145346239e-04,-1.275114318e-05,6.017834807e-04,2.359910218e-04,-6.307025025e-05,1.729207715e-04,5.724833887e-04,-2.847393139e-05,5.440094573e-04,5.186332528e-04,-2.820642797e-05,4.904268248e-04,6.198821639e-04,4.768970353e-06,6.246511342e-04,4.035480298e-04,-4.385488866e-06,3.991625410e-04,4.365269994e-04,3.577596793e-06,4.401045962e-04,9.109961434e-04,1.278490343e-04,1.038845178e-03,8.869473127e-04,1.203821285e-05,8.989855255e-04,7.466167799e-04,3.966456327e-05,7.862813432e-04,1.053136459e-03,4.971652064e-05,1.102852979e-03,7.873851991e-04,4.443251740e-05,8.318177165e-04,6.629203851e-04,6.031176316e-05,7.232321482e-04,8.423052092e-04,-1.538860779e-06,8.407663485e-04,7.620374029e-04,2.913626608e-05,7.911736690e-04,3.858076000e-04,-2.037838214e-06,3.837697618e-04,5.255180457e-04,3.365082988e-05,5.591688756e-04,4.224078142e-04,-6.469442372e-05,3.577133905e-04,6.557717256e-04,1.724751558e-05,6.730192412e-04,4.681540021e-04,-9.649627692e-05,3.716577252e-04,6.971624012e-04,3.915971496e-06,7.010783727e-04,2.592847668e-04,4.445150521e-05,3.037362720e-04,1.081691334e-03,-1.279795296e-05,1.068893381e-03,5.951217078e-04,7.444651952e-05,6.695682273e-04,1.050575162e-03,7.037622341e-05,1.120951386e-03,9.931945074e-04,-2.059784991e-05,9.725966574e-04,9.981121456e-04,1.280797643e-04,1.126191910e-03,1.244405907e-03,4.624710073e-05,1.290653008e-03,1.990811176e-03,-5.701079044e-05,1.933800386e-03,1.280548064e-03,2.442832146e-04,1.524831279e-03,1.325892805e-03,-1.911579127e-04,1.134734893e-03,1.666694254e-03,6.387424388e-05,1.730568498e-03
-4,7.926848734e-04,1.285085108e-04,9.211933842e-04,9.403934460e-04,5.945952682e-05,9.998529728e-04,6.393412785e-04,1.274364328e-04,7.667777113e-04,7.269455409e-04,-4.735802749e-06,7.222097382e-04,6.303819222e-04,-2.695792882e-05,6.034239934e-04,2.087331460e-04,-6.820130185e-05,1.405318442e-04,5.898627271e-04,-3.443409571e-05,5.554286314e-04,5.065668112e-04,-3.077263741e-05,4.757941738e-04,6.316229178e-04,-2.051278170e-06,6.295716396e-04,4.057373829e-04,-5.438066001e-06,4.002993169e-04,4.418808364e-04,-9.394282085e-07,4.409414082e-04,8.839140770e-04,1.171214043e-04,1.001035481e-03,8.924265915e-04,9.344144467e-06,9.017707360e-04,7.477934759e-04,3.644894590e-05,7.842424218e-04,1.097887664e-03,4.339403401e-05,1.141281698e-03,8.392063011e-04,3.836200734e-05,8.775683084e-04,7.207716483e-04,5.401973167e-05,7.747913799e-04,8.921286102e-04,-9.124238181e-06,8.830043720e-04,8.136150396e-04,2.321588589e-05,8.368309254e-04,3.760088679e-04,-4.969084301e-06,3.710397836e-04,5.195786753e-04,3.196870156e-05,5.515473769e-04,4.201897807e-04,-7.064403025e-05,3.495457504e-04,6.589423161e-04,1.050987159e-05,6.694521877e-04,4.774472243e-04,-1.021296413e-04,3.753175831e-04,6.862050765e-04,-3.654000636e-06,6.825510758e-04,2.668553887e-04,4.133764452e-05,3.081930332e-04,1.085841989e-03,-1.508791658e-05,1.070754073e-03,6.311793083e-04,6.654000981e-05,6.977193181e-04,1.099260058e-03,6.668307335e-05,1.165943131e-03,1.029652264e-03,-2.828744792e-05,1.001364816e-03,1.066310406e-03,1.259095316e-04,1.192219938e-03,1.295678410e-03,4.318971967e-05,1.338868130e-03,2.159330020e-03,-1.159513289e-04,2.043378691e-03,1.349386641e-03,2.463708525e-04,1.595757493e-03,1.382494524e-03,-1.821700993e-04,1.200324425e-03,1.724181110e-03,6.030538221e-05,1.784486492e-03
-3.9,8.304450709e-04,1.258818658e-04,9.563269367e-04,9.324139852e-04,5.120544129e-05,9.836194264e-04,6.630702814e-04,1.176708096e-04,7.807410910e-04,7.066496383e-04,-1.430825322e-05,6.923413851e-04,6.426951124e-04,-4.127336974e-05,6.014217427e-04,1.796214416e-04,-7.322400890e-05,1.063974327e-04,6.038270806e-04,-4.048483456e-05,5.633422460e-04,4.910500100e-04,-3.342287270e-05,4.576271373e-04,6.397697446e-04,-9.113730941e-06,6.306560136e-04,4.053636498e-04,-6.646703073e-06,3.987169467e-04,4.453891470e-04,-5.677696786e-06,4.397114502e-04,8.515960134e-04,1.057768609e-04,9.573728743e-04,8.943633525e-04,5.829548618e-06,9.001929011e-04,7.448768333e-04,3.299148768e-05,7.778683210e-04,1.138321730e-03,3.698430955e-05,1.175306039e-03,8.875292996e-04,3.207854302e-05,9.196078426e-04,7.759796940e-04,4.718236537e-05,8.231620594e-04,9.388419223e-04,-1.684110782e-05,9.220008144e-04,8.621663461e-04,1.690124818e-05,8.790675943e-04,3.636543322e-04,-8.046553753e-06,3.556077784e-04,5.109117131e-04,3.014385508e-05,5.410555682e-04,4.157881019e-04,-7.638066646e-05,3.394074354e-04,6.580745155e-04,3.754548187e-06,6.618290637e-04,4.837351187e-04,-1.074619734e-04,3.762731454e-04,6.716042907e-04,-1.111953173e-05,6.604847590e-04,2.732732937e-04,3.797793478e-05,3.112512285e-04,1.085213862e-03,-1.753246247e-05,1.067681400e-03,6.643972197e-04,5.849411819e-05,7.228913379e-04,1.143531059e-03,6.268168150e-05,1.206212741e-03,1.061585977e-03,-3.597978294e-05,1.025606194e-03,1.130623095e-03,1.232393666e-04,1.253862462e-03,1.341336669e-03,3.972502254e-05,1.381061691e-03,2.318169183e-03,-1.727779759e-04,2.145391208e-03,1.411493537e-03,2.474957419e-04,1.658989278e-03,1.432099391e-03,-1.705342511e-04,1.261565140e-03,1.774560286e-03,5.671323577e-05,1.831273522e-03
-3.8,8.638490098e-04,1.226632970e-04,9.865123068e-04,9.184298276e-04,4.248502773e-05,9.609148554e-04,6.825453718e-04,1.075311121e-04,7.900764839e-04,6.811469083e-04,-2.358116920e-05,6.575657391e-04,6.512188216e-04,-5.562409318e-05,5.955947285e-04,1.486096265e-04,-7.813636887e-05,7.047325759e-05,6.140993740e-04,-4.661599567e-05,5.674833783e-04,4.719475215e-04,-3.615124958e-05,4.357962719e-04,6.440759691e-04,-1.639959372e-05,6.276763754e-04,4.022430873e-04,-8.018236684e-06,3.942248506e-04,4.468427044e-04,-1.061426927e-05,4.362284351e-04,8.139354138e-04,9.392835827e-05,9.078637721e-04,8.924995584e-04,1.475372306e-06,8.939749307e-04,7.377240663e-04,2.930873600e-05,7.670328022e-04,1.174010500e-03,3.049867396e-05,1.204509174e-03,9.319928339e-04,2.561417662e-05,9.576070105e-04,8.281942533e-04,3.980947460e-05,8.680037280e-04,9.821246195e-04,-2.466313072e-05,9.574614888e-04,9.073192434e-04,1.022319093e-05,9.175424343e-04,3.486125274e-04,-1.125575529e-05,3.373567722e-04,4.993903917e-04,2.816681734e-05,5.275572091e-04,4.090377275e-04,-8.187779279e-05,3.271599347e-04,6.530738945e-04,-2.987996001e-06,6.500858985e-04,4.867769544e-04,-1.124716087e-04,3.743053457e-04,6.532023214e-04,-1.841667186e-05,6.347856496e-04,2.784179994e-04,3.438040511e-05,3.127984045e-04,1.079618511e-03,-2.016720048e-05,1.059451310e-03,6.944396258e-04,5.035819702e-05,7.447978228e-04,1.183052830e-03,5.837869685e-05,1.241431527e-03,1.088672578e-03,-4.363403759e-05,1.045038540e-03,1.190583907e-03,1.200535728e-04,1.310637480e-03,1.380973920e-03,3.587512060e-05,1.416849041e-03,2.466261068e-03,-2.269387009e-04,2.239322367e-03,1.466469764e-03,2.474690834e-04,1.713938847e-03,1.474260858e-03,-1.562891409e-04,1.317971717e-03,1.817231556e-03,5.314816157e-05,1.870379717e-03
-3.7,8.925126989e-04,1.188432680e-04,1.011355967e-03,8.982031807e-04,3.330913586e-05,9.315123166e-04,6.974312268e-04,9.705266077e-05,7.944838876e-04,6.502305245e-04,-3.256003871e-05,6.176704858e-04,6.557352209e-04,-6.993613133e-05,5.857990896e-04,1.156756816e-04,-8.293683519e-05,3.273884643e-05,6.204424768e-04,-5.281558700e-05,5.676268898e-04,4.491615093e-04,-3.894914086e-05,4.102123685e-04,6.443337059e-04,-2.388716603e-05,6.204465399e-04,3.962221200e-04,-9.556781138e-06,3.866653389e-04,4.460492627e-04,-1.572246136e-05,4.303268013e-04,7.708762086e-04,8.169468891e-05,8.525708975e-04,8.866006807e-04,-3.731159440e-06,8.828695213e-04,7.262281451e-04,2.541900404e-05,7.516471492e-04,1.204555650e-03,2.394551249e-05,1.228501163e-03,9.722730261e-04,1.899953210e-05,9.912725582e-04,8.770979510e-04,3.192006743e-05,9.090180184e-04,1.021682545e-03,-3.256527000e-05,9.891172749e-04,9.487351531e-04,3.217947003e-06,9.519531002e-04,3.307806864e-04,-1.458137913e-05,3.161993073e-04,4.849121334e-04,2.602753285e-05,5.109396662e-04,3.997981083e-04,-8.711058830e-05,3.126875200e-04,6.438911168e-04,-9.689470329e-06,6.342016465e-04,4.863724742e-04,-1.171384751e-04,3.692339991e-04,6.308745273e-04,-2.548638045e-05,6.053881468e-04,2.821803253e-04,3.055648881e-05,3.127368141e-04,1.068900226e-03,-2.302784174e-05,1.045872385e-03,7.210007617e-04,4.218129310e-05,7.631820548e-04,1.217530151e-03,5.378301368e-05,1.271313164e-03,1.110632796e-03,-5.121061868e-05,1.059422177e-03,1.245763728e-03,1.163402968e-04,1.362104025e-03,1.414232866e-03,3.167202778e-05,1.445904893e-03,2.602635949e-03,-2.779152317e-04,2.324720717e-03,1.513986684e-03,2.460945851e-04,1.760081269e-03,1.508618424e-03,-1.395429251e-04,1.369075499e-03,1.851662745e-03,4.964859425e-05,1.901311339e-03
-3.6,9.160972745e-04,1.144153420e-04,1.030512617e-03,8.715571563e-04,2.369136228e-05,8.952485186e-04,7.074386089e-04,8.627086574e-05,7.937094746e-04,6.137497030e-04,-4.125665833e-05,5.724930446e-04,6.560657034e-04,-8.413592433e-05,5.719297791e-04,8.082267175e-05,-8.762414865e-05,-6.801476900e-06,6.226609041e-04,-5.906975763e-05,5.635911465e-04,4.226317355e-04,-4.180503263e-05,3.808267029e-04,6.403745519e-04,-3.155240843e-05,6.088221435e-04,3.871780765e-04,-1.126363394e-05,3.759144426e-04,4.428352897e-04,-2.097198829e-05,4.218633014e-04,7.224108585e-04,6.919889584e-05,7.916097543e-04,8.764610795e-04,-9.797582547e-06,8.666634969e-04,7.103172915e-04,2.134201752e-05,7.316593090e-04,1.229593720e-03,1.732981242e-05,1.246923533e-03,1.008085522e-03,1.226299016e-05,1.020348512e-03,9.224078262e-04,2.354202218e-05,9.459498484e-04,1.057249603e-03,-4.052392890e-05,1.016725674e-03,9.861123225e-04,-4.073525863e-06,9.820387967e-04,3.100843341e-04,-1.800751641e-05,2.920768176e-04,4.673986303e-04,2.371543589e-05,4.911140662e-04,3.879552271e-04,-9.205640447e-05,2.958988227e-04,6.305195976e-04,-1.632436178e-05,6.141952358e-04,4.823632229e-04,-1.214443327e-04,3.609188902e-04,6.045319234e-04,-3.227531166e-05,5.722566117e-04,2.844633425e-04,2.652117121e-05,3.109845138e-04,1.052936590e-03,-2.614875673e-05,1.026787833e-03,7.438083376e-04,3.401134604e-05,7.778196837e-04,1.246708096e-03,4.890558445e-05,1.295613680e-03,1.127232694e-03,-5.867218353e-05,1.068560510e-03,1.295772713e-03,1.120911980e-04,1.407863911e-03,1.440806482e-03,2.715507898e-05,1.467961561e-03,2.726429569e-03,-3.252355978e-04,2.401193971e-03,1.553783164e-03,2.431726298e-04,1.796955794e-03,1.534895824e-03,-1.204699674e-04,1.414425857e-03,1.877393644e-03,4.623799046e-05,1.923631634e-03
-3.5,9.343102803e-04,1.093760664e-04,1.043686347e-03,8.383755431e-04,1.364773135e-05,8.520232745e-04,7.123259460e-04,7.522097593e-05,7.875469219e-04,5.716117529e-04,-4.968832315e-05,5.219234298e-04,6.520710085e-04,-9.815123536e-05,5.539197732e-04,4.407846402e-05,-9.219717780e-05,-4.811871378e-05,6.206008068e-04,-6.536285423e-05,5.552379526e-04,3.923343787e-04,-4.470446762e-05,3.476299111e-04,6.320690251e-04,-3.936948171e-05,5.926995434e-04,3.750189339e-04,-1.313725008e-05,3.618816838e-04,4.370469766e-04,-2.632919250e-05,4.107177841e-04,6.685768463e-04,5.656612110e-05,7.251429674e-04,8.619075122e-04,-1.672625451e-05,8.451812577e-04,6.899535561e-04,1.709851941e-05,7.070520756e-04,1.248800378e-03,1.065256496e-05,1.259452943e-03,1.039185316e-03,5.430103996e-06,1.044615420e-03,9.638748577e-04,1.471156665e-05,9.785864243e-04,1.088588058e-03,-4.851700745e-05,1.040071051e-03,1.019187110e-03,-1.160631513e-05,1.007580795e-03,2.864760970e-04,-2.151769056e-05,2.649584065e-04,4.467953079e-04,2.121957084e-05,4.680148787e-04,3.734226823e-04,-9.669503352e-05,2.767276488e-04,6.129926174e-04,-2.287034666e-05,5.901222708e-04,4.746329919e-04,-1.253729542e-04,3.492600377e-04,5.741222006e-04,-3.873608795e-05,5.353861126e-04,2.851827285e-04,2.229294375e-05,3.074756722e-04,1.031637726e-03,-2.956122478e-05,1.002076501e-03,7.626253977e-04,2.589447550e-05,7.885198732e-04,1.270370900e-03,4.375937627e-05,1.314130276e-03,1.138283798e-03,-6.598439100e-05,1.072299407e-03,1.340260780e-03,1.073010418e-04,1.447561822e-03,1.460436962e-03,2.236809329e-05,1.482805056e-03,2.836887554e-03,-3.684853083e-04,2.468402245e-03,1.585662677e-03,2.385032161e-04,1.824165893e-03,1.552896138e-03,-9.930603832e-05,1.453590100e-03,1.894035674e-03,4.292377255e-05,1.936959447e-03
-3.4,9.469059451e-04,1.037247720e-04,1.050630717e-03,7.986016488e-04,3.196514089e-06,8.017981629e-04,7.119002779e-04,6.393783544e-05,7.758381133e-04,5.237830652e-04,-5.787703895e-05,4.659060262e-04,6.436508029e-04,-1.119119446e-04,5.317388584e-04,5.494994398e-06,-9.665477432e-05,-9.115977992e-05,6.141492683e-04,-7.167750042e-05,5.424717679e-04,3.582805362e-04,-4.763004233e-05,3.106504938e-04,6.193257367e-04,-4.731112022e-05,5.720146164e-04,3.596828153e-04,-1.517324697e-05,3.445095683e-04,4.285512844e-04,-3.175729463e-05,3.967939898e-04,6.094529594e-04,4.392129834e-05,6.533742577e-04,8.428009519e-04,-2.451348401e-05,8.182874679e-04,6.651313828e-04,1.270992677e-05,6.778413096e-04,1.261893984e-03,3.910368035e-06,1.265804352e-03,1.065365449e-03,-1.476769655e-06,1.063888680e-03,1.001282422e-03,5.472712365e-06,1.006755134e-03,1.115488250e-03,-5.652387371e-05,1.058964376e-03,1.047734070e-03,-1.933242090e-05,1.028401649e-03,2.599348134e-04,-2.509474836e-05,2.348400651e-04,4.230709555e-04,1.852874287e-05,4.415996983e-04,3.561423663e-04,-1.010087975e-04,2.551335688e-04,5.913811348e-04,-2.930846439e-05,5.620726704e-04,4.631083634e-04,-1.289102714e-04,3.341980920e-04,5.396296027e-04,-4.482715459e-05,4.948024482e-04,2.842669580e-04,1.789352339e-05,3.021604814e-04,1.004944889e-03,-3.329177477e-05,9.716531139e-04,7.772511939e-04,1.787434098e-05,7.951255349e-04,1.288340858e-03,3.835946057e-05,1.326700319e-03,1.143642904e-03,-7.311645766e-05,1.070526447e-03,1.378917609e-03,1.019673106e-04,1.480884920e-03,1.472914461e-03,1.735671094e-05,1.490271172e-03,2.933366232e-03,-4.073156117e-04,2.526050620e-03,1.609491207e-03,2.318882512e-04,1.841379458e-03,1.562498120e-03,-7.634414628e-05,1.486153974e-03,1.901268665e-03,3.969842299e-05,1.940967088e-03
