Time,S1D1HbO,S1D1HbR,S1D1HbT,S2D2HbO,S2D2HbR,S2D2HbT,S3D3HbO,S3D3HbR,S3D3HbT,S4D4HbO,S4D4HbR,S4D4HbT,S5D5HbO,S5D5HbR,S5D5HbT,S6D6HbO,S6D6HbR,S6D6HbT,S7D7HbO,S7D7HbR,S7D7HbT,S8D8HbO,S8D8HbR,S8D8HbT,S9D9HbO,S9D9HbR,S9D9HbT,S10D10HbO,S10D10HbR,S10D10HbT,S11D11HbO,S11D11HbR,S11D11HbT,S12D12HbO,S12D12HbR,S12D12HbT,S13D13HbO,S13D13HbR,S13D13HbT,S14D14HbO,S14D14HbR,S14D14HbT,S15D15HbO,S15D15HbR,S15D15HbT,S16D16HbO,S16D16HbR,S16D16HbT,S17D17HbO,S17D17HbR,S17D17HbT,S18D18HbO,S18D18HbR,S18D18HbT,S19D19HbO,S19D19HbR,S19D19HbT,S20D20HbO,S20D20HbR,S20D20HbT,S21D21HbO,S21D21HbR,S21D21HbT,S22D22HbO,S22D22HbR,S22D22HbT,S23D23HbO,S23D23HbR,S23D23HbT,S24D24HbO,S24D24HbR,S24D24HbT,S25D25HbO,S25D25HbR,S25D25HbT,S26D26HbO,S26D26HbR,S26D26HbT,S27D27HbO,S27D27HbR,S27D27HbT,S28D28HbO,S28D28HbR,S28D28HbT,S29D29HbO,S29D29HbR,S29D29HbT,S30D30HbO,S30D30HbR,S30D30HbT,S31D31HbO,S31D31HbR,S31D31HbT,S32D32HbO,S32D32HbR,S32D32HbT,S33D33HbO,S33D33HbR,S33D33HbT,S34D34HbO,S34D34HbR,S34D34HbT,S35D35HbO,S35D35HbR,S35D35HbT,S36D36HbO,S36D36HbR,S36D36HbT
0.0,-0.0002165094256,0.0001856187282,-3.089069737e-05,-5.791574412e-05,0.0001840689754,0.0001261532312,0.0003125611229,3.979460174e-05,0.0003523557247,-0.0001813595685,-8.860413256e-05,-0.000269963701,-0.0004999007191,6.974337272e-05,-0.0004301573464,-0.00174978786,4.453933821e-05,-0.001705248522,-0.001613479625,-2.130337832e-05,-0.001634783004,-0.003168683202,0.0002136564675,-0.002955026734,-0.0004215286272,0.0001606882654,-0.0002608403617,-0.0009372914038,4.188276044e-05,-0.0008954086433,0.0001163073943,0.0001363631913,0.0002526705856,-0.0003245104351,-0.0001098139169,-0.000434324352,0.0004511526222,0.000274009663,0.0007251622851,-0.0007375945574,8.59968051e-05,-0.0006515977523,0.0006833004541,0.0001522039882,0.0008355044423,-0.0009665796716,-1.240200484e-05,-0.0009789816765,-0.001526708897,-0.0001016202567,-0.001628329154,0.000238061578,3.07937907e-05,0.0002688553687,-0.0001528480122,0.0002514776797,9.862966752e-05,-0.00173336007,0.0001992145998,-0.001534145471,0.00100520252,-0.0002153119748,0.0007898905451,0.0005980340154,-2.465288142e-05,0.000573381134,0.001025538706,1.010708718e-05,0.001035645793,0.0009308801264,0.0003872396137,0.00131811974,-0.0002029199383,-8.627153957e-05,-0.0002891914779,-0.0003558431154,-0.0001398712899,-0.0004957144053,0.0006981801641,0.0005293419543,0.001227522118,-0.0006152759274,-0.0003102546023,-0.0009255305298,0.0001489007309,-6.687901794e-05,8.202171292e-05,-0.001460810488,0.0002095904154,-0.001251220073,0.0004929568508,0.0001939891658,0.0006869460166,-0.001007745033,-0.0002680409003,-0.001275785933,0.0009621033689,0.0001230007779,0.001085104147,0.000675117768,-0.0003085135043,0.0003666042637,7.797041219e-05,0.0001003248393,0.0001782952515,0.002104892566,-0.0005944234757,0.00151046909
0.1,-0.0001687026983,0.0002061501711,3.744747284e-05,-7.171293904e-05,0.0001795847792,0.0001078718402,0.00031991955,4.300004669e-05,0.0003629195967,-0.0001350471776,-8.172100074e-05,-0.0002167681783,-0.0005479061288,6.964893498e-05,-0.0004782571938,-0.001779326739,5.489194623e-05,-0.001724434793,-0.001634424645,-9.455546902e-06,-0.001643880191,-0.003240922099,0.0002176767221,-0.003023245376,-0.0004714592923,0.0001625461024,-0.0003089131899,-0.0009605244652,4.683351925e-05,-0.0009136909459,9.590680455e-05,0.0001374453325,0.0002333521371,-0.0003933427476,-0.0001137831435,-0.0005071258911,0.0003987648292,0.0002347573554,0.0006335221846,-0.0007718832693,8.297494064e-05,-0.0006889083286,0.0006628992815,0.0001590885366,0.0008219878181,-0.001068810713,-1.564229076e-05,-0.001084453004,-0.001674527265,-7.900743359e-05,-0.001753534698,0.0001580277491,3.598506465e-05,0.0001940128138,-0.0002834869494,0.0002697728117,-1.37141377e-05,-0.001757312346,0.0002038193755,-0.001553492971,0.0009955796811,-0.0002144735551,0.000781106126,0.0005912896211,-2.435827894e-05,0.0005669313421,0.00102253238,1.191766999e-05,0.00103445005,0.0009584048383,0.0003937673521,0.00135217219,-0.0002858353957,-8.190483225e-05,-0.0003677402279,-0.0003918634005,-0.0001287671477,-0.0005206305482,0.0006216803981,0.0005187547162,0.001140435114,-0.0006551116715,-0.0002842741812,-0.0009393858527,0.0001184928702,-6.475294054e-05,5.373992964e-05,-0.00150602837,0.0002068392961,-0.001299189074,0.0004331524061,0.000205824418,0.0006389768241,-0.001095749391,-0.0002803763311,-0.001376125722,0.0009159147478,0.000125284278,0.001041199026,0.0006084318743,-0.0003069379882,0.0003014938861,-5.592881824e-06,9.220836845e-05,8.661548663e-05,0.001997450479,-0.0004480380783,0.001549412401
0.2,-0.0001188807976,0.0002266609886,0.0001077801911,-8.824465027e-05,0.0001746809315,8.643628122e-05,0.000326450146,4.654226934e-05,0.0003729924154,-9.084259253e-05,-7.425202195e-05,-0.0001650946145,-0.0005969137465,6.975125602e-05,-0.0005271624905,-0.001808771668,6.52326921e-05,-0.001743538976,-0.001653724352,2.141143447e-06,-0.001651583209,-0.003310218915,0.0002213356937,-0.003088883222,-0.0005218179058,0.0001640063427,-0.0003578115631,-0.0009845164958,5.154133918e-05,-0.0009329751566,7.273378472e-05,0.000138106346,0.0002108401307,-0.0004623724661,-0.0001183629742,-0.0005807354403,0.0003478887841,0.0001925058348,0.0005403946188,-0.0008057099815,7.958230372e-05,-0.0007261276778,0.0006407732826,0.0001646106626,0.0008053839452,-0.001171200803,-1.801434251e-05,-0.001189215146,-0.001820933995,-5.548740872e-05,-0.001876421403,7.8727239e-05,3.896907324e-05,0.0001176963122,-0.000413899709,0.0002854800069,-0.0001284197022,-0.001781597066,0.0002076062518,-0.001573990815,0.00098154034,-0.0002137217732,0.0007678185668,0.00058110051,-2.410122603e-05,0.000556999284,0.00101492563,1.349314103e-05,0.001028418771,0.0009845866996,0.0003998937876,0.001384480487,-0.000367575173,-7.889666509e-05,-0.0004464718381,-0.0004270688197,-0.0001171735642,-0.0005442423839,0.0005465056278,0.0005034292218,0.00104993485,-0.0006956765611,-0.0002569947988,-0.0009526713599,8.86301302e-05,-6.246839799e-05,2.616173221e-05,-0.001549316622,0.0002033567527,-0.001345959869,0.0003717579867,0.0002157430466,0.0005875010334,-0.001183183049,-0.0002934268174,-0.001476609867,0.0008715627406,0.0001255048229,0.0009970675636,0.0005402136612,-0.0003041336766,0.0002360799846,-9.045365771e-05,8.325372724e-05,-7.199930464e-06,0.001885294371,-0.0003005908334,0.001584703538
0.3,-6.783648345e-05,0.0002469229974,0.000179086514,-0.0001074512908,0.0001695016588,6.205036793e-05,0.0003320937617,5.042449997e-05,0.0003825182617,-4.968439633e-05,-6.631941459e-05,-0.0001160038109,-0.0006467883661,7.010841098e-05,-0.0005766799551,-0.001838204467,7.550994344e-05,-0.001762694524,-0.0016718479,1.336999078e-05,-0.001658477909,-0.003376659326,0.0002247025966,-0.003151956729,-0.0005725467096,0.0001650847959,-0.0004074619137,-0.001009422081,5.598880479e-05,-0.0009534332767,4.667521861e-05,0.0001383544338,0.0001850296524,-0.0005312332474,-0.0001235286875,-0.000654761935,0.0002981171303,0.0001476258729,0.0004457430031,-0.0008389984777,7.583627449e-05,-0.0007631622032,0.0006166978436,0.0001685047108,0.0007852025545,-0.001273438463,-1.954257301e-05,-0.001292981036,-0.001965464565,-3.13687497e-05,-0.001996833315,9.735356414e-08,3.990401404e-05,4.00013676e-05,-0.0005439630892,0.0002987317866,-0.0002452313026,-0.001806542762,0.000210619634,-0.001595923128,0.0009629177545,-0.0002130870459,0.0007498307086,0.0005673891275,-2.387692416e-05,0.0005435122033,0.001002694999,1.48397223e-05,0.001017534722,0.001009286906,0.0004055995011,0.001414886407,-0.0004480248195,-7.731273948e-05,-0.000525337559,-0.0004614076597,-0.0001051756322,-0.0005665832919,0.0004727140366,0.0004832509415,0.0009559649781,-0.0007368599528,-0.0002288199276,-0.0009656798804,5.927990106e-05,-6.006826751e-05,-7.883664555e-07,-0.001590965242,0.0001992348802,-0.001391730362,0.0003085942052,0.0002237392269,0.0005323334321,-0.001269884934,-0.000307066351,-0.001576951285,0.0008290563805,0.000123548559,0.0009526049395,0.0004705439928,-0.0003001019489,0.000170442044,-0.0001765388921,7.36059561e-05,-0.000102932936,0.001768330681,-0.0001531558442,0.001615174836
0.4,-1.634547747e-05,0.0002667136587,0.0002503681812,-0.0001292545484,0.0001641895227,3.493497427e-05,0.0003367989088,5.464315361e-05,0.0003914420625,-1.249211099e-05,-5.805180836e-05,-7.054391935e-05,-0.0006973815542,7.077347402e-05,-0.0006266080801,-0.001867701274,8.567012304e-05,-0.001782031151,-0.001689253588,2.412125032e-05,-0.001665132338,-0.00344032953,0.0002278444945,-0.003212485035,-0.0006235838671,0.0001657992775,-0.0004577845896,-0.001035376931,6.0162468e-05,-0.0009752144626,1.764289137e-05,0.0001382003037,0.0001558431951,-0.0005995863784,-0.0001292331566,-0.0007288195349,0.0002489962142,0.0001005314189,0.0003495276331,-0.0008716779791,7.176007526e-05,-0.0007999179038,0.0005904678104,0.00017053838,0.0007610061903,-0.001375201876,-2.026879051e-05,-0.001395470667,-0.00210767427,-6.95111841e-06,-0.002114625389,-7.793358349e-05,3.896128162e-05,-3.897230187e-05,-0.0006736024059,0.0003097012141,-0.0003639011918,-0.001832458073,0.0002129130369,-0.001619545036,0.0009395743282,-0.0002125968069,0.0007269775213,0.0005500991933,-2.368163134e-05,0.0005264175619,0.0009858489007,1.59651726e-05,0.001001814073,0.001032384786,0.0004108646888,0.001443249475,-0.000527090898,-7.71977078e-05,-0.0006042886058,-0.0004948119266,-9.287788105e-05,-0.0005876898076,0.0004003541288,0.0004581465111,0.0008585006398,-0.0007785436258,-0.0002001359109,-0.0009786795367,3.040711867e-05,-5.75966398e-05,-2.718952113e-05,-0.001631248412,0.0001945653545,-0.001436683058,0.0002434838857,0.0002298164882,0.0004733003739,-0.001355710768,-0.0003211460106,-0.001676856778,0.0007883615306,0.0001193363044,0.0009076978351,0.0003994863399,-0.0002948328486,0.0001046534913,-0.0002637825211,6.342380252e-05,-0.0002003587186,0.001646571294,-6.897934774e-06,0.001639673359
0.5,3.484680627e-05,0.0002858191556,0.0003206659619,-0.0001535585341,0.0001588837566,5.325222473e-06,0.0003405232819,5.918797661e-05,0.0003997112586,1.984955906e-05,-4.958171325e-05,-2.973215419e-05,-0.0007485316891,7.179391853e-05,-0.0006767377705,-0.00189733055,9.565863426e-05,-0.001801671916,-0.00170638051,3.429353408e-05,-0.001672086976,-0.003501311941,0.0002308244862,-0.003270487455,-0.0006748631134,0.0001661694128,-0.0005086937006,-0.001062496039,6.405271521e-05,-0.0009984433239,-1.442498609e-05,0.0001376570199,0.0001232320338,-0.0006671234169,-0.0001354083502,-0.0008025317671,0.0002000399116,5.16796575e-05,0.0002517195691,-0.0009036839637,6.738199702e-05,-0.0008363019666,0.0005618999317,0.0001705189635,0.0007324188952,-0.001476163488,-2.024949913e-05,-0.001496412987,-0.002247137712,1.747657125e-05,-0.002229661141,-0.0001554474109,3.632573965e-05,-0.0001191216712,-0.0008027732339,0.0003185826725,-0.0004841905614,-0.00185962733,0.0002145479755,-0.001645079354,0.000911403618,-0.0002122751483,0.0006991284697,0.0005291951867,-2.351275208e-05,0.0005056824346,0.0009644276537,1.687848072e-05,0.0009813061344,0.001053778872,0.0004156693625,0.001469448234,-0.0006046993766,-7.857361688e-05,-0.0006832729935,-0.000527194194,-8.040481501e-05,-0.000607599009,0.0003294610012,0.0004280896863,0.0007575506874,-0.0008206026324,-0.0001713095717,-0.0009919122041,1.978514798e-06,-5.5101938e-05,-5.31234232e-05,-0.001670417933,0.00018943517,-0.001480982763,0.0001762559171,0.0002339909971,0.0004102469141,-0.001440535683,-0.0003354962739,-0.001776031957,0.0007494077423,0.0001128229692,0.0008622307115,0.0003270931477,-0.0002883092189,3.878392875e-05,-0.0003521222832,5.28741414e-05,-0.0002992481418,0.001520132321,0.0001369485132,0.001657080834
0.6,8.503597895e-05,0.0003040371481,0.0003890731271,-0.0001802530537,0.0001537188709,-2.65341828e-05,0.0003432337548,6.404228424e-05,0.0004072760391,4.650258998e-05,-4.104300469e-05,5.459585291e-06,-0.0008000664753,7.321119272e-05,-0.0007268552826,-0.001927153429,0.000105421932,-0.001821731497,-0.001723642768,4.379496215e-05,-0.001679847805,-0.003559682409,0.0002337002512,-0.003325982157,-0.0007263159641,0.0001662164354,-0.0005600995287,-0.001090874672,6.765364321e-05,-0.001023221029,-4.956519928e-05,0.0001367398771,8.717467785e-05,-0.0007335689423,-0.0001419675053,-0.0008755364477,0.0001507393899,1.569412575e-06,0.0001523088025,-0.0009349603585,6.273477923e-05,-0.0008722255792,0.0005308316496,0.0001682992914,0.000699130941,-0.001575995499,-1.955349009e-05,-0.001595548989,-0.002383450237,4.163883549e-05,-0.002341811401,-0.0002325396903,3.219807712e-05,-0.0002003416132,-0.000931446172,0.000325575315,-0.000605870857,-0.001888308492,0.0002155928748,-0.001672715617,0.0008783308126,-0.0002121424955,0.0006661883171,0.0005046605011,-2.336886583e-05,0.0004812916353,0.0009385024464,1.758956391e-05,0.0009560920103,0.001073386696,0.0004199935638,0.00149338026,-0.0006807940258,-8.143965943e-05,-0.0007622336852,-0.0005584474478,-6.790047448e-05,-0.0006263479222,0.000260053803,0.0003931036082,0.0006531574112,-0.0008629074552,-0.0001426879868,-0.001005595442,-2.603544691e-05,-5.263928376e-05,-7.867473067e-05,-0.00170870023,0.0001839232492,-0.001524776981,0.0001067475935,0.0002362962566,0.0003430438501,-0.001524254929,-0.000349932175,-0.001874187104,0.0007120915909,0.0001039975864,0.0008160891773,0.0002534106398,-0.0002805114306,-2.710079081e-05,-0.0004414984149,4.21264341e-05,-0.0003993719808,0.001389210102,0.0002771152821,0.001666325384
0.7,0.0001335670625,0.000321179166,0.0004547462285,-0.0002092182881,0.0001488233291,-6.039495895e-05,0.0003449053408,6.918328063e-05,0.0004140886214,6.668434496e-05,-3.256859323e-05,3.411575173e-05,-0.0008518070441,7.506043783e-05,-0.0007767466063,-0.001957225682,0.0001149103172,-0.001842315364,-0.001741425767,5.254407718e-05,-0.00168888169,-0.003615508829,0.00023652298,-0.003378985849,-0.0007778753974,0.0001659630115,-0.000611912386,-0.001120591105,7.096299453e-05,-0.001049628111,-8.779279826e-05,0.0001354663655,4.767356728e-05,-0.0007986842079,-0.000148807162,-0.0009474913699,0.0001005698371,-4.926245222e-05,5.130738485e-05,-0.0009654625335,5.785541066e-05,-0.0009076071229,0.0004971159873,0.0001637842387,0.0006609002261,-0.001674376591,-1.825922769e-05,-0.001692635819,-0.00251623132,6.527749369e-05,-0.002450953826,-0.0003093229395,2.679689089e-05,-0.0002825260486,-0.001059595568,0.0003308714303,-0.0007287241373,-0.001918732755,0.0002161220237,-0.001702610731,0.0008403119619,-0.0002122152389,0.000628096723,0.0004764948323,-2.324965588e-05,0.0004532451765,0.0009081735991,1.810900532e-05,0.0009262826044,0.001091143751,0.0004238175112,0.001514961262,-0.0007553349752,-8.577312443e-05,-0.0008411080996,-0.0005884469841,-5.552682701e-05,-0.0006439738111,0.0001921354887,0.0003532597242,0.0005453952128,-0.0009053277188,-0.0001145991217,-0.001019926841,-5.366084969e-05,-5.027157031e-05,-0.00010393242,-0.001746296258,0.0001780980938,-0.001568198164,3.480742915e-05,0.0002367866942,0.0002715941234,-0.001606783332,-0.0003642600814,-0.001971043413,0.000676276549,9.288396993e-05,0.0007691605189,0.0001784818341,-0.0002714223988,-9.294056472e-05,-0.0005318541063,3.134817489e-05,-0.0005005059314,0.001254045075,0.0004123403765,0.001666385451
0.8,0.0001798411263,0.0003370725717,0.000516913698,-0.0002403297354,0.0001443181658,-9.60115696e-05,0.000345519902,7.458249798e-05,0.0004201024,7.967450191e-05,-2.42884122e-05,5.538608971e-05,-0.0009035723031,7.737033655e-05,-0.0008262019666,-0.0019875999,0.0001240807634,-0.001863519136,-0.001760083658,6.04705721e-05,-0.001699613086,-0.003668850762,0.0002393367786,-0.003429513984,-0.000829479434,0.0001654331069,-0.0006640463271,-0.001151709624,7.398216161e-05,-0.001077727462,-0.0001291046074,0.0001338562177,4.751610329e-06,-0.0008622712837,-0.0001558090714,-0.001018080355,4.899921387e-05,-0.0001002475692,-5.124835531e-05,-0.0009951598455,5.278514225e-05,-0.0009423747033,0.0004606140669,0.0001569374039,0.0006175514709,-0.001770999436,-1.645169109e-05,-0.001787451127,-0.002645129867,8.815687866e-05,-0.002556972988,-0.0003859285284,2.036014884e-05,-0.0003655683796,-0.001187192817,0.0003346506386,-0.0008525421779,-0.001951104629,0.0002162145005,-0.001734890128,0.0007973326156,-0.0002125054063,0.0005848272093,0.0004447116753,-2.315582237e-05,0.000421555853,0.000873568688,1.844783554e-05,0.0008920165235,0.001107002295,0.0004271215691,0.001534123864,-0.0008282971222,-9.153123349e-05,-0.0009198283557,-0.000617053712,-4.346077445e-05,-0.0006605144864,0.0001256939804,0.0003086756348,0.0004343696152,-0.0009477375674,-8.735142927e-05,-0.001035088997,-8.092201182e-05,-4.806917027e-05,-0.0001289911821,-0.001783382322,0.0001720157255,-0.001611366597,-3.970100596e-05,0.0002355396002,0.0001958385942,-0.001688053277,-0.0003782851855,-0.002066338462,0.0006417907611,7.954147802e-05,0.0007213322391,0.0001023483276,-0.0002610327428,-0.0001586844152,-0.0006231364646,2.070142242e-05,-0.0006024350422,0.001114887052,0.0005414035683,0.001656290621
0.9,0.0002233208476,0.000351562144,0.0005748829916,-0.0002734621999,0.0001403156372,-0.0001331465627,0.0003450655298,8.020642613e-05,0.0004252719559,8.48217319e-05,-1.632769693e-05,6.849403497e-05,-0.000955182042,8.016310429e-05,-0.0008750189377,-0.002018326533,0.000132899129,-0.001885427404,-0.001779936834,6.75158734e-05,-0.001712420961,-0.00371975958,0.0002421785999,-0.00347758098,-0.0008810728868,0.0001646518692,-0.0007164210176,-0.001184282068,7.671616197e-05,-0.001107565906,-0.000173481189,0.00013193142,-4.154976899e-05,-0.0009241758541,-0.0001628426965,-0.001087018551,-4.497935703e-06,-0.0001507964417,-0.0001552943774,-0.001024036272,4.756916756e-05,-0.0009764671048,0.000421188512,0.000147786478,0.0005689749901,-0.001865577459,-1.421885755e-05,-0.001879796317,-0.002769830897,0.0001100699315,-0.002659760965,-0.0004625075039,1.314730581e-05,-0.0004493601981,-0.001314205162,0.0003370803487,-0.0009771248129,-0.001985601165,0.0002159529208,-0.001769648244,0.0007494066769,-0.0002130205055,0.0005363861713,0.0004093368618,-2.308908774e-05,0.000386247774,0.0008348410834,1.861737653e-05,0.0008534584599,0.001120930639,0.0004298860256,0.001550816664,-0.000899667817,-9.865335833e-05,-0.0009983211754,-0.000644118399,-3.188967922e-05,-0.0006760080782,6.070327321e-05,0.000259513941,0.0003202172142,-0.0009900218598,-6.123092973e-05,-0.00105125279,-0.0001078432278,-4.61086623e-05,-0.0001539518901,-0.001820109537,0.0001657172515,-0.001654392285,-0.0001168951328,0.0002326569127,0.0001157617799,-0.00176801088,-0.0003918190922,-0.002159829972,0.000608425654,6.406501925e-05,0.0006724906732,2.505317652e-05,-0.0002493463944,-0.0002242932179,-0.0007152959652,1.03396262e-05,-0.000704956339,0.0009719701243,0.0006631568776,0.001635127002
1.0,0.000263535572,0.0003645114141,0.0006280469861,-0.0003084917951,0.0001369180409,-0.0001715737542,0.0003435373593,8.601734629e-05,0.0004295547056,8.155133495e-05,-8.805439041e-06,7.274589591e-05,-0.001006457613,8.345459646e-05,-0.0009230030166,-0.002049453081,0.000141341359,-0.001908111722,-0.001801268541,7.363357816e-05,-0.001727634963,-0.003768278678,0.0002450786588,-0.003523200019,-0.0009326060737,0.0001636454789,-0.0007689605947,-0.001218346699,7.917345343e-05,-0.001139173245,-0.0002208859845,0.0001297160631,-9.116992138e-05,-0.0009842870213,-0.000169768554,-0.001154055575,-6.042311827e-05,-0.0002003128242,-0.0002607359425,-0.001052088382,4.225563964e-05,-0.001009832742,0.0003787009145,0.0001364257923,0.0005151267068,-0.001957849228,-1.16481813e-05,-0.00196949741,-0.002890061535,0.0001308438832,-0.002759217652,-0.0005392303066,5.442347247e-06,-0.0005337879594,-0.00144059958,0.0003383220294,-0.001102277551,-0.002022369533,0.000215421963,-0.001806947571,0.0006965760517,-0.0002137635498,0.0004828125019,0.0003704087246,-2.305228549e-05,0.0003473564391,0.0007921691814,1.86291558e-05,0.0008107983372,0.001132913327,0.0004320908331,0.001565004161,-0.0009694434178,-0.0001070631733,-0.001076506591,-0.0006694859745,-2.100572157e-05,-0.0006904916961,-2.875814623e-06,0.0002059829226,0.000203107108,-0.001032081025,-3.649574189e-05,-0.001068576767,-0.00013444943,-4.447082187e-05,-0.0001789202519,-0.001856601182,0.0001592264515,-0.001697374731,-0.0001968706123,0.0002282685,3.139788771e-05,-0.001846610917,-0.0004046866978,-0.002251297615,0.0005759380248,4.65838785e-05,0.0006225219033,-5.335308682e-05,-0.0002363863962,-0.0002897394831,-0.0008082831171,4.042253097e-07,-0.0008078788918,0.0008255001029,0.0007765515922,0.001602051695
1.1,0.0003000861804,0.0003758038153,0.0006758899958,-0.0003452955737,0.00013421668,-0.0002110788937,0.0003409398906,9.197426162e-05,0.0004329141522,6.937417265e-05,-1.832961689e-06,6.754121096e-05,-0.00105722013,8.725442885e-05,-0.0009699657016,-0.002081021841,0.0001493937219,-0.001931628119,-0.001824320364,7.87897276e-05,-0.001745530637,-0.00381444341,0.0002480611444,-0.003566382265,-0.0009840307952,0.0001624409544,-0.0008215898409,-0.001253924562,8.136555995e-05,-0.001172559002,-0.0002712618474,0.0001272360092,-0.0001440258382,-0.001042534174,-0.000176441743,-0.001218975917,-0.0001192360853,-0.000248212011,-0.0003674480963,-0.001079321214,3.689414657e-05,-0.001042427067,0.0003330146758,0.000123015177,0.0004560298528,-0.002047579921,-8.823253623e-06,-0.002056403174,-0.00300559404,0.0001503444899,-0.00285524955,-0.0006162843283,-2.444031114e-06,-0.0006187283594,-0.001566349317,0.0003385408162,-0.0012278085,-0.002061523261,0.0002147068061,-0.001846816455,0.0006389110842,-0.0002147331648,0.0004241779194,0.0003279797114,-2.304940787e-05,0.0003049303035,0.0007457561316,1.849483282e-05,0.0007642509644,0.001142952216,0.0004337155203,0.001576667736,-0.001037624834,-0.0001166706562,-0.00115429549,-0.0006929990377,-1.099981432e-05,-0.000703998852,-6.509459794e-05,0.0001483388344,8.324423643e-05,-0.001073831887,-1.336991376e-05,-0.001087201801,-0.0001607657454,-4.323766776e-05,-0.0002040034132,-0.001892949379,0.000152548636,-0.001740400743,-0.0002797003798,0.0002225369285,-5.71634512e-05,-0.001923811468,-0.000416731652,-0.00234054312,0.0005440555078,2.72600723e-05,0.0005713155801,-0.0001328036661,-0.0002221999268,-0.0003550035929,-0.0009020428224,-8.978587644e-06,-0.00091102141,0.000675656554,0.0008806581703,0.001556314724
1.2,0.0003326496186,0.0003853435963,0.0007179932149,-0.0003837494925,0.0001322908459,-0.0002514586466,0.0003372899334,9.803376518e-05,0.0004353236985,4.789604338e-05,4.487356579e-06,5.238339996e-05,-0.0011072876,9.156600225e-05,-0.001015721598,-0.002113067398,0.0001570525038,-0.001956014894,-0.001849287343,8.296294201e-05,-0.001766324401,-0.00385828063,0.0002511448741,-0.003607135756,-0.001035295493,0.0001610659112,-0.0008742295817,-0.001291015114,8.330659516e-05,-0.001207708519,-0.000324526803,0.0001245184514,-0.0002000083516,-0.001098882266,-0.0001827151827,-0.001281597449,-0.0001813381817,-0.0002939426623,-0.000475280844,-0.001105743686,3.153398722e-05,-0.001074209698,0.0002840024128,0.0001077749202,0.000391777333,-0.002134560394,-5.82099991e-06,-0.002140381394,-0.003116246004,0.0001684791415,-0.002947766862,-0.0006938689722,-1.017506571e-05,-0.0007040440379,-0.001691439304,0.0003379138307,-0.001353525473,-0.002103138383,0.0002138916107,-0.001889246772,0.0005765112375,-0.0002159237407,0.0003605874968,0.0002821185639,-2.308552549e-05,0.0002590330384,0.0006958295077,1.822603673e-05,0.0007140555444,0.001151067965,0.0004347393649,0.00158580733,-0.001104212709,-0.0001273742911,-0.001231587,-0.000714500782,-2.055813243e-06,-0.0007165565953,-0.0001260153324,8.688903231e-05,-3.912630007e-05,-0.001115203422,7.960976217e-06,-0.001107242446,-0.000186816615,-4.248861842e-05,-0.0002293052334,-0.001929213401,0.0001456718184,-0.001783541582,-0.0003654347372,0.0002156616953,-0.000149773042,-0.001999569341,-0.0004278201079,-0.002427389448,0.0005124830876,6.287260504e-06,0.0005187703481,-0.000213205321,-0.0002068625029,-0.0004200678239,-0.0009965081224,-1.770031308e-05,-0.001014208435,0.0005226105084,0.0009746744067,0.001497284915
1.3,0.0003609825579,0.0003930564222,0.0007540389801,-0.0004237261922,0.0001312067798,-0.0002925194125,0.0003326188965,0.0001041507625,0.000436769659,1.68259155e-05,1.006319527e-05,2.688911077e-05,-0.001156472993,9.638641829e-05,-0.001060086575,-0.002145615123,0.0001643237538,-0.00198129137,-0.00187631396,8.614448385e-05,-0.001790169476,-0.003899808125,0.0002543435726,-0.003645464553,-0.00108634179,0.0001595482717,-0.000926793518,-0.001329593185,8.501277366e-05,-0.001244580412,-0.0003805711956,0.0001215914414,-0.0002589797542,-0.001153326712,-0.0001884431328,-0.001341769845,-0.0002470569751,-0.0003370101799,-0.000584067155,-0.001131365076,2.622254013e-05,-0.001105142536,0.0002315556907,9.097739692e-05,0.0003225330877,-0.002218604539,-2.710129778e-06,-0.002221314669,-0.003221879829,0.0001851998449,-0.003036679984,-0.0007721896217,-1.739199737e-05,-0.0007895816191,-0.001815867103,0.0003366329674,-0.001479234136,-0.00214725081,0.0002130580588,-0.001934192751,0.0005095054044,-0.0002173257246,0.0002921796798,0.0002329120871,-2.316662585e-05,0.0002097454613,0.0006426403772,1.783406628e-05,0.0006604744435,0.001157301258,0.0004351417944,0.001592443052,-0.001169203079,-0.0001390639736,-0.001308267052,-0.0007338383396,5.654565692e-06,-0.0007281837739,-0.0001857108185,2.199464205e-05,-0.0001637161764,-0.001156129171,2.735105593e-05,-0.001128778115,-0.0002126248654,-4.229647747e-05,-0.0002549213429,-0.001965421035,0.0001385701075,-0.001826850927,-0.0004541016081,0.0002078807618,-0.0002462208463,-0.002073836918,-0.0004378429558,-0.002511679874,0.0004809089552,-1.611004932e-05,0.0004647989059,-0.0002944277504,-0.0001904821903,-0.0004849099406,-0.001091595096,-2.567153889e-05,-0.001117266635,0.0003665550574,0.001057922754,0.001424477812
1.4,0.0003849235924,0.000398889669,0.0007838132614,-0.0004650938941,0.0001310166717,-0.0003340772224,0.0003269735392,0.0001102790615,0.0004372526007,-2.401832581e-05,1.481328159e-05,-9.205044217e-06,-0.001204584622,0.0001017063635,-0.001102878258,-0.002178681396,0.0001712235989,-0.002007457797,-0.001905491956,8.833829404e-05,-0.001817153662,-0.003939034444,0.000257665757,-0.003681368687,-0.001137103606,0.0001579158993,-0.0009791877066,-0.001369608428,8.650193781e-05,-0.00128310649,-0.0004392574139,0.000118483408,-0.0003207740059,-0.001205888633,-0.0001934856948,-0.001399374328,-0.0003166330798,-0.000376997898,-0.0006936309778,-0.001156193283,2.100385138e-05,-0.001135189432,0.0001755942828,7.293677593e-05,0.0002485310587,-0.002299545757,4.488576099e-07,-0.002299096899,-0.003322402667,0.0002005061769,-0.00312189649,-0.0008514513308,-2.372193976e-05,-0.0008751732705,-0.001939638729,0.0003349014823,-0.001604737247,-0.002193855635,0.0002122839832,-0.001981571652,0.0004380514542,-0.0002189261314,0.0002191253228,0.000180465937,-2.329945614e-05,0.0001571664808,0.000586461488,1.732950575e-05,0.0006037909938,0.001161713186,0.0004349029744,0.00159661616,-0.001232584089,-0.0001516247757,-0.001384208865,-0.0007508672211,1.197602769e-05,-0.0007388911934,-0.0002442649997,-4.592891986e-05,-0.0002901939196,-0.001196539275,4.46921903e-05,-0.001151847085,-0.0002382110096,-4.272385165e-05,-0.0002809348613,-0.002001572822,0.0001312081828,-0.001870364639,-0.0005457070487,0.0001994687249,-0.0003462383238,-0.002146560164,-0.000446717388,-0.002593277552,0.0004490098204,-3.967855308e-05,0.0004093312673,-0.0003762941409,-0.0001732034847,-0.0005494976256,-0.001187200109,-3.282214882e-05,-0.001220022258,0.0002077438009,0.001129839783,0.001337583583
1.5,0.0004043936168,0.0004028124994,0.0008072061162,-0.0005077169503,0.0001317577453,-0.000375959205,0.0003204149935,0.0001163718497,0.0004367868432,-7.470714364e-05,1.86682906e-05,-5.603885304e-05,-0.001251429095,0.0001075100267,-0.001143919069,-0.002212275451,0.0001777790203,-0.002034496431,-0.001936860233,8.956097513e-05,-0.001847299258,-0.00397595973,0.0002611144255,-0.003714845305,-0.001187508879,0.0001561961607,-0.001031312718,-0.001410987315,8.779311155e-05,-0.001323194204,-0.0005004222411,0.0001152226806,-0.0003851995605,-0.001256611399,-0.0001977137727,-0.001454325171,-0.0003902114629,-0.0004135828743,-0.0008037943372,-0.001180234761,1.591738575e-05,-0.001164317375,0.0001160729541,5.399827041e-05,0.0001700712245,-0.002377234157,3.602881148e-06,-0.002373631276,-0.00341776607,0.0002144467408,-0.003203319329,-0.0009318510387,-2.879047832e-05,-0.000960641517,-0.002062762373,0.0003329274943,-0.001729834879,-0.002242908494,0.0002116421895,-0.002031266305,0.0003623348397,-0.000220709173,0.0001416256668,0.0001249043102,-2.349136316e-05,0.0001014129471,0.0005275845982,1.672186161e-05,0.0005443064598,0.001164384601,0.0004340045478,0.001598389149,-0.001294334108,-0.0001649412051,-0.001459275313,-0.0007654567027,1.677315589e-05,-0.0007486835468,-0.0003017743751,-0.0001164146038,-0.0004181889789,-0.001236354412,5.990980174e-05,-0.00117644461,-0.0002635933411,-4.382011607e-05,-0.0003074134571,-0.002037648064,0.0001235456951,-0.001914102369,-0.0006402359771,0.0001907316346,-0.0004495043425,-0.002217677381,-0.0004543888658,-0.002672066246,0.0004164564457,-6.414066354e-05,0.0003523157821,-0.0004585753137,-0.000155209384,-0.0006137846977,-0.001283199819,-3.910028778e-05,-0.001322300107,4.653238867e-05,0.001189958636,0.001236491025
1.6,0.0004193944156,0.0004048157771,0.0008242101927,-0.0005514578338,0.0001334514403,-0.0004180063935,0.0003130164498,0.0001223820524,0.0004353985023,-0.0001351993282,2.157164092e-05,-0.0001136276872,-0.001296816218,0.0001137750561,-0.001183041162,-0.002246401798,0.0001840282002,-0.002062373598,-0.001970406566,8.984165081e-05,-0.001880564915,-0.00401057788,0.0002646867577,-0.003745891122,-0.00123748307,0.000154415477,-0.001083067593,-0.001453636921,8.890611887e-05,-0.001364730802,-0.0005638810484,0.0001118370752,-0.0004520439733,-0.001305559343,-0.0002010131459,-0.001506572489,-0.0004678392485,-0.0004465452249,-0.0009143844734,-0.001203495678,1.099688814e-05,-0.00119249879,5.298571268e-05,3.452754147e-05,8.751325414e-05,-0.002451536032,6.705904107e-06,-0.002444830128,-0.003507964361,0.000227117332,-0.003280847029,-0.00101356786,-3.223874063e-05,-0.001045806601,-0.002185244438,0.00033091819,-0.001854326248,-0.002294328514,0.0002111995434,-0.002083128971,0.0002825663603,-0.0002226568152,5.99095451e-05,6.63688273e-05,-2.375007029e-05,4.261875701e-05,0.0004663172709,1.601928299e-05,0.0004823365539,0.00116541467,0.0004324304271,0.001597845097,-0.001354421301,-0.0001789013149,-0.001533322616,-0.0007774953192,1.993295964e-05,-0.0007575623595,-0.0003583508223,-0.0001889491604,-0.0005472999827,-0.001275483016,7.295843145e-05,-0.001202524584,-0.0002887891934,-4.561907741e-05,-0.0003344082708,-0.002073611412,0.0001155411321,-0.001958070279,-0.0007376520702,0.0001819984726,-0.0005556535976,-0.002287119525,-0.0004608335945,-0.002747953119,0.0003829196254,-8.920117069e-05,0.0002937184547,-0.0005409893178,-0.0001367207777,-0.0006777100955,-0.001379453443,-4.447041536e-05,-0.001423923858,-0.0001165839393,0.001237887785,0.001121303846
1.7,0.0004300058819,0.0004049117693,0.0008349176512,-0.0005961797763,0.0001361027101,-0.0004600770661,0.0003048602731,0.0001282626048,0.0004331228779,-0.0002053437614,2.348016152e-05,-0.0001818635999,-0.001340564559,0.0001204725531,-0.001220092006,-0.002281061868,0.0001900195302,-0.002091042338,-0.002006070303,8.922164768e-05,-0.001916848655,-0.00404287978,0.0002683739618,-0.003774505818,-0.001286953045,0.0001525989537,-0.001134354091,-0.001497449117,8.986128674e-05,-0.001407587831,-0.0006294324517,0.0001083535983,-0.0005210788534,-0.001352818423,-0.0002032870498,-0.001556105473,-0.0005494713168,-0.0004757707777,-0.001025242095,-0.001225983627,6.269506943e-06,-0.00121971412,-1.363109565e-05,1.490020443e-05,1.269108776e-06,-0.002522335731,9.719618146e-06,-0.002512616113,-0.003593031632,0.0002386555817,-0.003354376051,-0.001096753648,-3.374223876e-05,-0.001130495887,-0.00230708961,0.0003290758007,-0.001978013809,-0.002348001907,0.0002110162581,-0.002136985649,0.0001989795702,-0.0002247492029,-2.576963271e-05,5.017277423e-06,-2.408341453e-05,-1.906613711e-05,0.0004029796703,1.522836577e-05,0.0004182080361,0.001164919157,0.0004301674852,0.001595086642,-0.001412804551,-0.0001934000341,-0.001606204585,-0.0007868952419,2.136644697e-05,-0.0007655287949,-0.000414125934,-0.0002629806254,-0.0006771065594,-0.001313822473,8.381898059e-05,-0.001230003492,-0.0003138170875,-4.813760448e-05,-0.0003619546919,-0.002109419081,0.000107155335,-0.002002263746,-0.0008378962174,0.000173610302,-0.0006642859154,-0.002354813203,-0.0004660603239,-0.002820873527,0.0003480762891,-0.0001145544935,0.0002335217956,-0.0006232071847,-0.0001179927948,-0.0007411999794,-0.001475805994,-4.891104645e-05,-0.00152471704,-0.0002809463213,0.001273294434,0.0009923481125
1.8,0.0004363825201,0.0004031335893,0.0008395161094,-0.0006417488689,0.0001396994544,-0.0005020494145,0.0002960354685,0.0001339667536,0.0004300022221,-0.00028488166,2.436464607e-05,-0.0002605170139,-0.001382506106,0.0001275671426,-0.001254938963,-0.002316254026,0.0001958091271,-0.002120444899,-0.002043744983,8.775397652e-05,-0.001955991006,-0.00407285682,0.0002721613269,-0.003800695493,-0.0013358496,0.0001507701246,-0.001185079476,-0.001542303493,9.067917013e-05,-0.001451624323,-0.0006968617231,0.0001047982411,-0.0005920634821,-0.001398497133,-0.0002044578349,-0.001602954968,-0.0006349836745,-0.0005012468931,-0.001136230568,-0.001247708832,1.755322621e-06,-0.00124595351,-8.369548859e-05,-4.508421699e-06,-8.820391029e-05,-0.00258953869,1.2615129e-05,-0.002576923561,-0.00367303732,0.0002492334918,-0.003423803829,-0.001181525868,-3.302804526e-05,-0.001214553913,-0.002428302087,0.0003275934031,-0.002100708684,-0.00240378499,0.000211145263,-0.002192639727,0.0001118286252,-0.0002269650945,-0.0001151364692,-5.897696431e-05,-2.449915954e-05,-8.347612386e-05,0.0003379019185,1.435403936e-05,0.0003522559578,0.001163029069,0.0004272060101,0.001590235079,-0.001469435245,-0.000208341344,-0.001677776589,-0.0007935943088,2.100925545e-05,-0.0007725850533,-0.0004692551185,-0.0003379276944,-0.0008071828129,-0.001351263914,9.249826982e-05,-0.001258765645,-0.0003386988559,-5.137541459e-05,-0.0003900742705,-0.002145024146,9.835512654e-05,-0.00204666902,-0.0009408841744,0.0001659091174,-0.000774975057,-0.002420685785,-0.0004701101935,-0.002890795979,0.0003116157852,-0.0001398909879,0.0001717247973,-0.0007048639713,-9.930779855e-05,-0.0008041717699,-0.001572090992,-5.241267524e-05,-0.001624503667,-0.0004457260373,0.001295899318,0.0008501732802
1.9,0.0004387499054,0.000399534423,0.0008382843284,-0.0006880344064,0.0001442121351,-0.0005438222713,0.0002866363428,0.0001394485024,0.0004260848452,-0.0003734479862,2.421032121e-05,-0.000349237665,-0.001422488498,0.000135017158,-0.00128747134,-0.002351971639,0.0002014573434,-0.002150514296,-0.002083279728,8.550258761e-05,-0.001997777141,-0.004100503668,0.000276028485,-0.003824475183,-0.001384107211,0.0001489507609,-0.00123515645,-0.001588067602,9.138017273e-05,-0.001496687429,-0.0007659415085,0.0001011957634,-0.0006647457451,-0.001442725812,-0.0002044683762,-0.001647194188,-0.0007241915431,-0.0005230528354,-0.001247244379,-0.001268683657,-2.532939512e-06,-0.001271216597,-0.0001570758913,-2.33326357e-05,-0.000180408527,-0.002653073949,1.537524833e-05,-0.002637698701,-0.003748079411,0.0002590489812,-0.00348903043,-0.001267961827,-2.988832717e-05,-0.001297850154,-0.00254888317,0.0003266483796,-0.00222223479,-0.002461505689,0.0002116316167,-0.002249874073,2.138721754e-05,-0.0002292824246,-0.000207895207,-0.0001254243315,-2.500495456e-05,-0.0001504292861,0.0002714223211,1.339956617e-05,0.0002848218872,0.001159890053,0.0004235399215,0.001583429974,-0.00152425908,-0.0002236394099,-0.00174789849,-0.0007975548798,1.882159661e-05,-0.0007787332832,-0.0005239191979,-0.0004131905201,-0.000937109718,-0.00138769868,9.903019637e-05,-0.001288668484,-0.0003634603888,-5.531623507e-05,-0.0004187766238,-0.002180380704,8.91172807e-05,-0.002091263424,-0.001046503803,0.0001592275011,-0.0008872763021,-0.002484670665,-0.0004730539482,-0.002957724614,0.0002732473904,-0.0001649020559,0.0001083453345,-0.0007855717473,-8.096572999e-05,-0.0008665374773,-0.001668131543,-5.497620345e-05,-0.001723107747,-0.000609931352,0.001305483011,0.000695551659
2.0,0.0004374015145,0.0003941866025,0.000831588117,-0.0007349068895,0.0001495936495,-0.00058531324,0.0002767627319,0.0001446631751,0.000421425907,-0.0004705713974,2.301721411e-05,-0.0004475541833,-0.001460374237,0.0001427749156,-0.001317599321,-0.002388199281,0.0002070249065,-0.002181174374,-0.002124478898,8.254135889e-05,-0.002041937539,-0.0041258196,0.0002799498428,-0.003845869757,-0.001431660772,0.000147160654,-0.001284500118,-0.001634594329,9.198398614e-05,-0.001542610343,-0.0008364296001,9.756939193e-05,-0.0007388602082,-0.001485653677,-0.0002032831015,-0.001688936779,-0.000816868059,-0.0005413468491,-0.001358214908,-0.001288919935,-6.590437032e-06,-0.001295510372,-0.0002335874353,-4.122384272e-05,-0.000274811278,-0.002712894933,1.799678982e-05,-0.002694898144,-0.003818274415,0.0002683163971,-0.003549958018,-0.001356092495,-2.418963855e-05,-0.001380282133,-0.002668822662,0.0003263929676,-0.002342429694,-0.002520963471,0.0002125119999,-0.002308451471,-7.205138139e-05,-0.0002316789005,-0.0003037302819,-0.0001941174174,-2.56083711e-05,-0.0002197257885,0.000203886302,1.236664807e-05,0.0002162529501,0.001155662535,0.0004191668997,0.001574829435,-0.001577216811,-0.0002392192626,-0.001816436073,-0.0007987596703,1.478794247e-05,-0.0007839717278,-0.0005783223496,-0.0004881621406,-0.00106648449,-0.001423023551,0.0001034770619,-0.001319546489,-0.0003881299921,-5.993039345e-05,-0.0004480603856,-0.00221544696,7.943246584e-05,-0.002136014495,-0.001154610801,0.0001538781686,-0.001000732633,-0.002546711788,-0.0004749859915,-0.003021697779,0.0002327101371,-0.0001892852114,4.342492577e-05,-0.0008649302738,-6.327338247e-05,-0.0009282036562,-0.001763739525,-5.661197499e-05,-0.0018203515,-0.0007724209876,0.00130190009,0.0005294791023
2.1,0.0004326957959,0.0003871805069,0.0008198763028,-0.0007822343245,0.0001557794767,-0.0006264548478,0.0002665212579,0.0001495679141,0.000416089172,-0.0005756734604,2.080038739e-05,-0.000554873073,-0.001496037893,0.0001507869892,-0.001345250904,-0.002424907849,0.0002125692272,-0.002212338621,-0.002167100616,7.895280926e-05,-0.002088147807,-0.004148808329,0.0002838950809,-0.003864913248,-0.001478440868,0.0001454173243,-0.001333023544,-0.00168171793,9.250891523e-05,-0.001589209015,-0.0009080652625,9.394043502e-05,-0.0008141248275,-0.001527444198,-0.0002008881519,-0.00172833235,-0.0009127619512,-0.0005563507221,-0.001469112673,-0.001308425046,-1.042113009e-05,-0.001318846176,-0.000312990388,-5.785586906e-05,-0.0003708462571,-0.002768978194,2.049212927e-05,-0.002748486064,-0.003883745089,0.0002772562174,-0.003606488872,-0.001445897054,-1.587725456e-05,-0.001461774309,-0.002788085646,0.0003269427862,-0.00246114286,-0.002581928587,0.0002138142647,-0.002368114323,-0.0001681738085,-0.0002341324612,-0.0004023062696,-0.0002648290669,-2.631691266e-05,-0.0002911459795,0.0001356454835,1.125555302e-05,0.0001469010365,0.001150522118,0.0004140885824,0.001564610701,-0.001628243528,-0.0002550176766,-0.001883261205,-0.0007972061034,8.916665655e-06,-0.0007882894377,-0.0006326861531,-0.0005622405186,-0.001194926672,-0.001457142604,0.0001059292817,-0.001351213323,-0.0004127346515,-6.517843017e-05,-0.0004779130817,-0.002250187324,6.930838491e-05,-0.002180878939,-0.001265021603,0.0001501422395,-0.001114879363,-0.002606768638,-0.0004760149554,-0.003082783593,0.0001897844889,-0.000212750398,-2.296590911e-05,-0.0009425339229,-4.65335036e-05,-0.0009890674265,-0.001858713474,-5.733919233e-05,-0.001916052667,-0.0009319229188,0.001285096864,0.0003531739455
2.2,0.000425052792,0.0003786231968,0.0008036759888,-0.0008298784141,0.0001626880305,-0.0006671903836,0.0002560263692,0.0001541219287,0.0004101482979,-0.0006880690007,1.759002543e-05,-0.0006704789753,-0.001529363518,0.000158994438,-0.00137036908,-0.002462050041,0.0002181411871,-0.002243908854,-0.002210855738,7.482661511e-05,-0.002136029123,-0.004169477037,0.0002878296667,-0.003881647371,-0.001524370036,0.0001437356693,-0.001380634366,-0.001729251192,9.297125482e-05,-0.001636279937,-0.0009805665334,9.032787114e-05,-0.0008902386623,-0.001568269784,-0.0001972909193,-0.001765560703,-0.001011614255,-0.0005683322308,-0.001579946486,-0.001327198342,-1.403879674e-05,-0.001341237139,-0.0003949918193,-7.292880845e-05,-0.0004679206277,-0.002821320707,2.288929573e-05,-0.002798431412,-0.003944608345,0.0002860851112,-0.003658523234,-0.001537301225,-4.973952522e-06,-0.001542275177,-0.002906599061,0.0003283656299,-0.002578233431,-0.002644142037,0.0002155569783,-0.002428585058,-0.0002666464404,-0.0002366215997,-0.0005032680401,-0.0003373111551,-2.713801246e-05,-0.0003644491675,6.705629567e-05,1.006516855e-05,7.712146422e-05,0.001144659534,0.0004083108396,0.001552970374,-0.00167726714,-0.0002709844035,-0.001948251543,-0.0007929015499,1.239510322e-06,-0.0007916620396,-0.0006872403041,-0.0006348412837,-0.001322081588,-0.0014899654,0.000106501681,-0.001383463719,-0.0004372956588,-7.101520694e-05,-0.0005083108658,-0.002284573268,5.877132938e-05,-0.002225801938,-0.001377504336,0.0001482573165,-0.001229247019,-0.00266482327,-0.0004762512996,-0.00314107457,0.0001443037242,-0.0002350276883,-9.072396415e-05,-0.001017977091,-3.103359865e-05,-0.001049010689,-0.001952836274,-5.718544595e-05,-0.00201002172,-0.001087060653,0.001255128802,0.0001680681492
2.3,0.0004149494449,0.0003686367469,0.0007835861918,-0.0008776922323,0.0001702212137,-0.0007074710186,0.0002453999983,0.0001582864717,0.00040368647,-0.0008069694681,1.343135042e-05,-0.0007935381176,-0.001560244145,0.0001673330382,-0.001392911107,-0.002499557601,0.0002237824317,-0.002275775169,-0.002255408787,7.0258046e-05,-0.002185150741,-0.004187835653,0.0002917154778,-0.003896120175,-0.001569361822,0.0001421275985,-0.001427234224,-0.001776985502,9.338483111e-05,-0.001683600671,-0.001053630305,8.674795117e-05,-0.0009668823538,-0.001608306251,-0.0001925199566,-0.001800826208,-0.001113173749,-0.0005775871398,-0.001690760889,-0.00134522927,-1.746765047e-05,-0.001362696921,-0.0004792501663,-8.617243811e-05,-0.0005654226044,-0.002869936457,2.523006577e-05,-0.002844706391,-0.00400096489,0.0002950070496,-0.00370595784,-0.001630179628,8.425170692e-06,-0.001621754457,-0.003024241944,0.0003306730893,-0.002693568854,-0.002707317287,0.0002177490034,-0.002489568283,-0.0003671161167,-0.0002391256994,-0.0006062418161,-0.000411294681,-2.807912562e-05,-0.0004393738066,-1.522262577e-06,8.792972823e-06,7.270710246e-06,0.001138279584,0.0004018440621,0.001540123647,-0.001724207448,-0.0002870833111,-0.002011290759,-0.0007858613095,-8.189203787e-06,-0.0007940505133,-0.0007422119371,-0.0007054101747,-0.001447622112,-0.001521402882,0.0001053255964,-0.001416077286,-0.0004618252321,-7.739416459e-05,-0.0005392193967,-0.002318582682,4.786575787e-05,-0.002270716924,-0.001491770999,0.0001484078464,-0.001343363152,-0.002720889202,-0.0004757934203,-0.003196682623,9.616257664e-05,-0.0002558752368,-0.0001597126601,-0.001090860967,-1.703436893e-05,-0.001107895336,-0.002045873967,-5.618633094e-05,-0.002102060298,-0.001236389293,0.001212176137,-2.421315669e-05
2.4,0.0004029129432,0.0003573563393,0.0007602692826,-0.0009255202875,0.0001782653351,-0.0007472549523,0.0002347693153,0.0001620246481,0.0003967939634,-0.0009314903524,8.384305346e-06,-0.0009231060471,-0.001588584114,0.0001757336124,-0.001412850502,-0.002537340922,0.0002295230683,-0.002307817853,-0.002300381694,6.534636596e-05,-0.002235035328,-0.00420389713,0.0002955116158,-0.003908385515,-0.001613323154,0.0001406016937,-0.001472721461,-0.001824694316,9.376070773e-05,-0.001730933608,-0.001126935699,8.321383955e-05,-0.001043721859,-0.001647727602,-0.000186625623,-0.001834353225,-0.001217210751,-0.0005844228506,-0.001801633602,-0.001362497792,-2.074225862e-05,-0.001383240051,-0.0005653823891,-9.734945856e-05,-0.0006627318477,-0.002914852643,2.756600077e-05,-0.002887286642,-0.004052890577,0.0003042050524,-0.003748685524,-0.001724359576,2.415825933e-05,-0.001700201316,-0.003140840454,0.0003338160751,-0.002807024379,-0.00277114429,0.0002203893115,-0.002550754978,-0.0004692120086,-0.0002416254466,-0.0007108374552,-0.0004864914023,-2.914793444e-05,-0.0005156393367,-6.973176472e-05,7.434989536e-06,-6.229677519e-05,0.001131598836,0.0003947034081,0.001526302244,-0.001768976918,-0.0003032927891,-0.002072269707,-0.0007761098343,-1.929359346e-05,-0.0007954034278,-0.0007978155285,-0.0007734343051,-0.001571249834,-0.001551363409,0.0001025380407,-0.001448825368,-0.0004863251773,-8.42712457e-05,-0.000570596423,-0.002352198201,3.665225137e-05,-0.002315545949,-0.001607473697,0.00015071863,-0.001456755067,-0.002775019775,-0.0004747148095,-0.003249734584,4.532151004e-05,-0.0002750859943,-0.0002297644843,-0.00116080267,-4.758538405e-06,-0.001165561208,-0.002137577128,-5.438499448e-05,-0.002191962123,-0.001378442823,0.001156559293,-0.0002218835299
2.5,0.0003895118944,0.000344928194,0.0007344400884,-0.0009732010256,0.0001866925475,-0.0007865084781,0.0002242627498,0.000165301157,0.0003895639067,-0.001060662758,2.522885177e-06,-0.001058139873,-0.001614303849,0.0001841225189,-0.00143018133,-0.002575290918,0.0002353798192,-0.002339911099,-0.002345360373,6.019316153e-05,-0.002285167211,-0.004217678864,0.0002991752742,-0.00391850359,-0.001656159437,0.0001391629387,-0.001516996498,-0.001872139409,9.410702841e-05,-0.001778032381,-0.001200150224,7.973534658e-05,-0.001120414878,-0.001686702081,-0.0001796805583,-0.001866382639,-0.00132352965,-0.0005891446004,-0.00191267425,-0.001378976956,-2.390678468e-05,-0.001402883741,-0.0006529740605,-0.0001062579869,-0.0007592320474,-0.002956105674,2.995296073e-05,-0.002926152713,-0.004100429154,0.0003138330123,-0.003786596141,-0.001819624818,4.200053038e-05,-0.001777624288,-0.003256168142,0.0003376849046,-0.002918483237,-0.002835295677,0.0002234672111,-0.002611828466,-0.0005725486827,-0.0002441031923,-0.000816651875,-0.0005625969056,-3.035253762e-05,-0.0005929494432,-0.0001372181618,5.985792648e-06,-0.0001312323692,0.0011248422,0.0003869089461,0.001511751146,-0.00181148335,-0.0003196051334,-0.002131088484,-0.0007636843815,-3.197748197e-05,-0.0007956618635,-0.0008542433855,-0.0008384530065,-0.001692696392,-0.001579750541,9.827070188e-05,-0.001481479839,-0.0005107876422,-9.160777553e-05,-0.0006023954177,-0.00238540572,2.520465794e-05,-0.002360201062,-0.001724205995,0.000155250619,-0.001568955376,-0.002827313222,-0.0004730552325,-0.003300368454,-8.19387921e-06,-0.0002924922265,-0.0003006861057,-0.001227446305,5.618579739e-06,-0.001221827725,-0.002227685876,-5.183106684e-05,-0.002279516943,-0.001511790546,0.001088754842,-0.0004230357048
2.6,0.0003753455473,0.0003315073095,0.0007068528568,-0.001020571036,0.0001953627871,-0.0008252082489,0.0002140050096,0.0001680820399,0.0003820870495,-0.00119344854,-4.066013767e-06,-0.001197514553,-0.001637345996,0.0001924223242,-0.001444923672,-0.002613282814,0.0002413549109,-0.002371927904,-0.00238990362,5.490056008e-05,-0.002335003059,-0.004229204767,0.0003026624899,-0.003926542277,-0.001697781111,0.0001378125948,-0.001559968516,-0.001919078747,9.442901019e-05,-0.001824649737,-0.001272937561,7.631882395e-05,-0.001196618737,-0.00172539029,-0.0001717787645,-0.001897169055,-0.001431980698,-0.0005920438159,-0.002024024514,-0.001394636842,-2.701372846e-05,-0.00142165057,-0.0007415919923,-0.0001127328702,-0.0008543248625,-0.002993737348,3.244509452e-05,-0.002961292253,-0.004143586664,0.0003240075454,-0.003819579119,-0.001915719889,6.166796494e-05,-0.001854051924,-0.003369952858,0.0003421155103,-0.003027837348,-0.002899434457,0.0002269630004,-0.002672471457,-0.0006767301295,-0.0002465431219,-0.0009232732514,-0.000639294655,-3.170149252e-05,-0.0006709961476,-0.0002036358063,4.438577163e-06,-0.0001991972291,0.001118238809,0.0003784855671,0.001496724376,-0.001851633827,-0.0003360251765,-0.002187659004,-0.0007486395289,-4.61260669e-05,-0.0007947655958,-0.0009116560198,-0.0009000690245,-0.001811725044,-0.001606462362,9.264120232e-05,-0.00151382116,-0.0005351970726,-9.937188526e-05,-0.0006345689579,-0.002418193786,1.360697664e-05,-0.00240458681,-0.001841508826,0.0001619982823,-0.001679510543,-0.002877913454,-0.0004708175347,-0.003348730989,-6.42979513e-05,-0.0003079675236,-0.0003722654749,-0.001290475423,1.397590181e-05,-0.001276499521,-0.002315938101,-4.857859919e-05,-0.0023645167,-0.0016350952,0.001009407794,-0.000625687406
2.7,0.0003610316011,0.000317254906,0.000678286507,-0.001067469683,0.0002041260884,-0.0008633435946,0.0002041121639,0.0001703345566,0.0003744467205,-0.001328757997,-1.12842756e-05,-0.001340042273,-0.001657681322,0.0002005527044,-0.001457128618,-0.002651181212,0.0002474358945,-0.002403745318,-0.002433553475,4.956935306e-05,-0.002383984122,-0.004238507455,0.0003059289418,-0.003932578513,-0.001738109973,0.0001365482904,-0.001601561682,-0.001965274405,9.472909094e-05,-0.001870545314,-0.001344965425,7.296724183e-05,-0.001271998183,-0.001763945147,-0.0001630327194,-0.001926977867,-0.001542470082,-0.000593388511,-0.002135858593,-0.001409448623,-3.012236825e-05,-0.001439570992,-0.0008307976061,-0.0001166461494,-0.0009474437554,-0.003027791937,3.508939851e-05,-0.002992702539,-0.004182328008,0.0003348004583,-0.003847527549,-0.00201235576,8.28243389e-05,-0.001929531421,-0.003481890204,0.0003469019782,-0.003134988226,-0.002963222034,0.0002308488895,-0.002732373144,-0.000781354167,-0.0002489312827,-0.00103028545,-0.0007162602568,-3.320371576e-05,-0.0007494639725,-0.0002686511668,2.785289489e-06,-0.0002658658773,0.001112017761,0.0003694625439,0.001481480305,-0.001889338986,-0.0003525687371,-0.002241907723,-0.0007310510067,-6.160803543e-05,-0.0007926590421,-0.0009701732454,-0.0009579585825,-0.001928131828,-0.001631391247,8.574754334e-05,-0.001545643704,-0.0005595323953,-0.0001075385598,-0.000667070955,-0.002450553199,1.950054041e-06,-0.002448603145,-0.001958878812,0.0001708881212,-0.00178799069,-0.002927006862,-0.000467969644,-0.003394976506,-0.0001228534458,-0.0003214263041,-0.0004442797498,-0.001349626564,2.025112602e-05,-0.001329375438,-0.002402078785,-4.468339873e-05,-0.002446762184,-0.001747165382,0.0009193357367,-0.0008278296456
2.8,0.0003471932217,0.000302335535,0.0006495287567,-0.001113742767,0.0002128252535,-0.0009009175136,0.0001946879809,0.0001720273629,0.0003667153438,-0.001465468902,-1.902472787e-05,-0.00148449363,-0.001675312551,0.0002084316411,-0.00146688091,-0.002688845133,0.0002535962357,-0.002435248897,-0.002475845949,4.429704777e-05,-0.002431548901,-0.004245629981,0.0003089311988,-0.003936698782,-0.001777083326,0.0001353643219,-0.001641719004,-0.0020104988,9.500714319e-05,-0.001915491657,-0.001415911785,6.968037721e-05,-0.001346231408,-0.001802512626,-0.0001535687481,-0.001956081374,-0.001654965561,-0.0005934166435,-0.002248382204,-0.00142338708,-3.329711071e-05,-0.001456684191,-0.0009201586712,-0.0001179075189,-0.00103806619,-0.003058314398,3.792152922e-05,-0.003020392869,-0.00421657605,0.000346232995,-0.003870343055,-0.002109216981,0.0001050932768,-0.002004123704,-0.00359166034,0.0003518127792,-0.00323984756,-0.003026325114,0.0002350899771,-0.002791235137,-0.0008860164151,-0.0002512556474,-0.001137272062,-0.0007931650985,-3.4868336e-05,-0.0008280334346,-0.0003319457182,1.016850585e-06,-0.0003309288676,0.001106404259,0.000359872715,0.001466276974,-0.001924516826,-0.0003692612686,-0.002293778094,-0.0007110175418,-7.827816587e-05,-0.0007892957077,-0.001029867752,-0.001011877409,-0.002041745161,-0.001654423488,7.766542754e-05,-0.001576758061,-0.000583768918,-0.0001160886292,-0.0006998575472,-0.0024824754,-9.671890457e-06,-0.00249214729,-0.002075776525,0.0001817779109,-0.001893998614,-0.002974814968,-0.000464450419,-0.003439265387,-0.0001836810766,-0.0003328212804,-0.000516502357,-0.00140470273,2.444366597e-05,-0.001380259064,-0.002485867626,-4.020075809e-05,-0.002526068384,-0.001847001468,0.0008195265323,-0.001027474936
2.9,0.0003344459049,0.0002869139622,0.0006213598671,-0.001159243976,0.000221299004,-0.0009379449723,0.0001858226331,0.0001731311082,0.0003589537414,-0.001602445362,-2.717370509e-05,-0.001629619067,-0.001690274347,0.0002159769396,-0.001474297408,-0.002726131421,0.0002597963308,-0.002466335091,-0.002516320861,3.917584019e-05,-0.002477145021,-0.004250626411,0.000311628475,-0.003938997936,-0.001814654236,0.0001342520957,-0.00168040214,-0.002054537644,9.526060329e-05,-0.001959277041,-0.001485467828,6.645501229e-05,-0.001419012816,-0.001841232111,-0.0001435213385,-0.001984753449,-0.001769494887,-0.0005923331798,-0.002361828066,-0.001436430138,-3.660583119e-05,-0.00147303597,-0.001009257149,-0.0001164657605,-0.001125722909,-0.003085348833,4.096295157e-05,-0.003044385882,-0.004246213221,0.0003582727841,-0.003887940437,-0.002205969704,0.0001280730833,-0.002077896621,-0.003698944206,0.0003566077407,-0.003342336466,-0.003088420246,0.0002396451347,-0.002848775111,-0.0009903131557,-0.0002535062881,-0.001243819444,-0.0008696787448,-3.670454211e-05,-0.0009063832869,-0.0003932176043,-8.764743503e-07,-0.0003940940787,0.001101616595,0.0003497514194,0.001451368014,-0.001957095445,-0.0003861365836,-0.002343232029,-0.0006886593802,-9.598062715e-05,-0.0007846400073,-0.00109076233,-0.001061660769,-0.002152423098,-0.001675438741,6.844777227e-05,-0.001606990969,-0.0006078795121,-0.0001250070933,-0.0007328866054,-0.002513948729,-2.116450367e-05,-0.002535113233,-0.002191633967,0.0001944571851,-0.001997176782,-0.003021582055,-0.0004601780269,-0.003481760081,-0.0002465674436,-0.0003421400512,-0.0005887074948,-0.001455583856,2.661594344e-05,-0.001428967912,-0.002567082879,-3.51844321e-05,-0.002602267311,-0.00193383623,0.0007111331632,-0.001222703067
3.0,0.0003233848382,0.0002711519537,0.0005945367919,-0.001203833328,0.0002293856543,-0.0009744476734,0.0001775943548,0.000173619387,0.0003512137418,-0.001738555036,-3.561390687e-05,-0.001774168943,-0.001702628518,0.000223107975,-0.001479520543,-0.002762895532,0.0002659846947,-0.002496910837,-0.00255452983,3.42905224e-05,-0.002520239307,-0.004253560529,0.0003139843951,-0.003939576134,-0.001850787322,0.0001332006348,-0.001717586687,-0.002097188994,9.548442678e-05,-0.002001704567,-0.001553337061,6.328508341e-05,-0.001490051978,-0.001880235335,-0.0001330272243,-0.002013262559,-0.001886135536,-0.0005903107462,-0.002476446282,-0.0014485553,-4.011810803e-05,-0.001488673408,-0.001097691685,-0.0001123117876,-0.001210003473,-0.003108935988,4.421920205e-05,-0.003064716786,-0.004271084919,0.0003708334908,-0.003900251428,-0.002302269193,0.0001513503228,-0.002150918871,-0.003803436649,0.0003610545826,-0.003442382066,-0.00314919556,0.0002444677805,-0.00290472778,-0.001093842875,-0.0002556755593,-0.001349518435,-0.0009454700185,-3.872138758e-05,-0.0009841914061,-0.0004521820216,-2.904589288e-06,-0.0004550866109,0.001097864195,0.0003391353872,0.001436999582,-0.001987014225,-0.0004032352245,-0.002390249449,-0.000664112618,-0.0001145532227,-0.0007786658407,-0.0011528315,-0.001107217241,-0.002260048741,-0.001694309781,5.812634542e-05,-0.001636183436,-0.0006318346233,-0.0001342811363,-0.0007661157596,-0.00254495302,-3.24357162e-05,-0.002577388736,-0.002305862254,0.0002086503857,-0.002097211868,-0.003067557786,-0.0004550597246,-0.00352261751,-0.0003112694484,-0.0003494018086,-0.000660671257,-0.001502230933,2.689294298e-05,-0.00147533799,-0.002645520955,-2.968688217e-05,-0.002675207837,-0.002007166849,0.0005954639726,-0.001411702877
3.1,0.0003145732011,0.0002552050237,0.0005697782248,-0.001247372843,0.0002369270669,-0.001010445776,0.0001700735442,0.0001734698263,0.0003435433706,-0.001872684114,-4.42273641e-05,-0.001916911478,-0.001712455273,0.0002297474992,-0.001482707774,-0.002798989848,0.0002720991855,-0.002526890662,-0.002590042454,2.971642183e-05,-0.002560326032,-0.004254502599,0.0003159682291,-0.00393853437,-0.001885451592,0.0001321971208,-0.001753254471,-0.002138259662,9.567090359e-05,-0.002042588758,-0.001619231771,6.016177287e-05,-0.001559069998,-0.001919643231,-0.0001222200889,-0.002041863319,-0.002004996978,-0.0005874931352,-0.002592490113,-0.00145973451,-4.39032251e-05,-0.001503637735,-0.001185075143,-0.0001054828913,-0.001290558034,-0.003129109699,4.767928338e-05,-0.003081430416,-0.004291004339,0.0003837770319,-0.003907227307,-0.002397766178,0.0001745108541,-0.002223255324,-0.003904855741,0.0003649447342,-0.003539911007,-0.00320835038,0.0002495065344,-0.002958843846,-0.001196206922,-0.0002577581784,-0.001453965101,-0.001020207367,-4.092753839e-05,-0.001061134905,-0.0005085708036,-5.077102325e-06,-0.0005136479059,0.001095346331,0.000328061735,0.001423408066,-0.002014223498,-0.0004206022649,-0.002434825762,-0.0006375203428,-0.0001338324209,-0.0007713527637,-0.001216007946,-0.001148517525,-0.00236452547,-0.001710903505,4.67160646e-05,-0.00166418744,-0.0006556011659,-0.0001438980612,-0.0007994992271,-0.00257545405,-4.339726521e-05,-0.002618851315,-0.002417860346,0.000224023532,-0.002193836814,-0.003112977257,-0.0004490016299,-0.003561978886,-0.0003775162173,-0.0003546538516,-0.0007321700689,-0.001544682012,2.545998804e-05,-0.001519222024,-0.002720993175,-2.376002837e-05,-0.002744753203,-0.002066772739,0.0004739630609,-0.001592809678
3.2,0.0003085312763,0.0002392191686,0.0005477504449,-0.001289721004,0.0002437725245,-0.00104594848,0.0001633277833,0.0001726651177,0.000335992901,-0.00200375086,-5.289828757e-05,-0.002056649148,-0.001719843072,0.000235823395,-0.001484019677,-0.002834260716,0.0002780683345,-0.002556192381,-0.002622451896,2.551750241e-05,-0.002596934394,-0.004253525028,0.0003175554409,-0.003935969587,-0.001918613156,0.0001312274563,-0.0017873857,-0.002177561541,9.580942389e-05,-0.002081752117,-0.001682869422,5.70735574e-05,-0.001625795864,-0.001959561068,-0.0001112264174,-0.002070787485,-0.002126200081,-0.0005840003964,-0.002710200477,-0.001469929572,-4.802791632e-05,-0.001517957489,-0.00127102948,-9.606698339e-05,-0.001367096463,-0.003145893695,5.131654217e-05,-0.003094577152,-0.004305759347,0.0003969188934,-0.003908840453,-0.002492113053,0.0001971506007,-0.002294962452,-0.004002948568,0.0003681071927,-0.003634841375,-0.003265594033,0.0002547056436,-0.00301088839,-0.001297010044,-0.0002597512347,-0.001556761279,-0.001093559438,-4.333104748e-05,-0.001136890485,-0.0005621319826,-7.403008445e-06,-0.000569534991,0.001094250625,0.0003165671009,0.001410817726,-0.002038683358,-0.0004382848685,-0.002476968227,-0.0006090235004,-0.0001536584222,-0.0007626819227,-0.00128019236,-0.001185581206,-0.002465773565,-0.001725083356,3.422168141e-05,-0.001690861675,-0.0006791411529,-0.0001538431003,-0.0008329842532,-0.002605399618,-5.396571825e-05,-0.002659365336,-0.002527024924,0.0002401939233,-0.002286831,-0.003158042809,-0.0004419167386,-0.003599959548,-0.0004450116455,-0.0003579668898,-0.0008029785353,-0.001583040734,2.25579599e-05,-0.001560482774,-0.002793322215,-1.745575234e-05,-0.002810777967,-0.002112715184,0.0003481766547,-0.001764538529
3.3,0.0003057258316,0.0002233277046,0.0005290535362,-0.001330728086,0.0002497823304,-0.001080945756,0.0001574260913,0.0001711939198,0.0003286200111,-0.002130719251,-6.151564773e-05,-0.002192234898,-0.001724879764,0.0002412703679,-0.001483609396,-0.002868545815,0.0002838130831,-0.002584732731,-0.002651381249,2.174471767e-05,-0.002629636531,-0.004250698085,0.000318727668,-0.003931970417,-0.001950230344,0.0001302768199,-0.001819953524,-0.002214910189,9.588627427e-05,-0.002119023915,-0.001743971348,5.400623834e-05,-0.001689965109,-0.002000073496,-0.0001001622903,-0.002100235786,-0.002249857913,-0.0005799344669,-0.00282979238,-0.001479089568,-5.25539393e-05,-0.001531643508,-0.001355180931,-8.420599863e-05,-0.00143938693,-0.0031593004,5.509112165e-05,-0.003104209279,-0.00431512221,0.0004100368567,-0.003905085353,-0.002584971601,0.0002188883499,-0.002366083251,-0.004097493445,0.0003704175493,-0.003727075896,-0.003320645222,0.0002600051598,-0.003060640062,-0.001395861471,-0.0002616542082,-0.00165751568,-0.001165196641,-4.593924509e-05,-0.001211135886,-0.0006126299759,-9.890521346e-06,-0.0006225204973,0.001094750506,0.0003046869137,0.00139943742,-0.002060362409,-0.000456330054,-0.002516692463,-0.0005787543578,-0.0001738793466,-0.0007526337044,-0.001345263613,-0.001218464971,-0.002563728584,-0.001736712809,2.064533232e-05,-0.001716067477,-0.0007024115903,-0.0001640965666,-0.0008665081568,-0.002634718477,-6.406312117e-05,-0.002698781598,-0.002632761114,0.0002567414435,-0.002376019671,-0.003202910735,-0.0004337305122,-0.003636641247,-0.0005134402025,-0.0003594292229,-0.0008728694254,-0.001617460261,1.847490541e-05,-0.001598985355,-0.002862340354,-1.082607612e-05,-0.00287316643,-0.002145316148,0.0002197045453,-0.001925611603
3.4,0.0003065595544,0.0002076484436,0.0005142079981,-0.001370233942,0.0002548311504,-0.001115402791,0.0001524412925,0.000169051595,0.0003214928875,-0.002252613546,-6.997545404e-05,-0.002322589,-0.001727646681,0.000246031572,-0.001481615109,-0.002901672988,0.0002892489663,-0.002612424021,-0.002676491261,1.84347096e-05,-0.002658056551,-0.004246086671,0.0003194722797,-0.003926614391,-0.001980252458,0.0001293301803,-0.001850922278,-0.002250126706,9.588454812e-05,-0.002154242158,-0.001802264801,5.094301398e-05,-0.001751321787,-0.002041241043,-8.913071484e-05,-0.002130371758,-0.002376057874,-0.0005753859476,-0.002951443822,-0.001487150809,-5.753565664e-05,-0.001544686465,-0.001437157948,-7.009800992e-05,-0.001507255957,-0.003169332614,5.895353586e-05,-0.003110379078,-0.004318861884,0.0004228820496,-0.003895979834,-0.002676022555,0.000239380034,-0.002436642521,-0.004188298996,0.0003717998981,-0.003816499098,-0.003373232935,0.0002653411799,-0.003107891755,-0.001492376877,-0.0002634689454,-0.001755845822,-0.001234794073,-4.875871406e-05,-0.001283552787,-0.0006598466977,-1.254696822e-05,-0.0006723936659,0.001097001346,0.0002924548417,0.001389456187,-0.00207923718,-0.0004747826543,-0.002554019834,-0.0005468338922,-0.0001943539939,-0.0007411878862,-0.001411086717,-0.001247254188,-0.002658340905,-0.001745660032,5.993490094e-06,-0.001739666542,-0.0007253669972,-0.0001746298593,-0.0008999968565,-0.002663322396,-7.361704137e-05,-0.002736939437,-0.002734494037,0.0002732203364,-0.002461273701,-0.003247682813,-0.0004243851588,-0.003672067972,-0.0005824766485,-0.0003591413534,-0.0009416180019,-0.001648126308,1.353373687e-05,-0.001634592571,-0.002927890173,-3.923527359e-06,-0.002931813701,-0.002165117441,9.014200544e-05,-0.002074975436
3.5,0.0003113612006,0.000192281498,0.0005036426986,-0.001408068915,0.0002588110362,-0.001149257878,0.0001484500212,0.000166240675,0.0003146906962,-0.002368533539,-7.818276499e-05,-0.002446716304,-0.001728216228,0.0002500600662,-0.001478156162,-0.002933460624,0.0002942881971,-0.002639172427,-0.002697488894,1.560902889e-05,-0.002681879865,-0.004239748654,0.0003197816408,-0.003919967013,-0.002008622276,0.0001283727549,-0.001880249521,-0.002283042712,9.578427644e-05,-0.002187258436,-0.001857488149,4.786469742e-05,-0.001809623452,-0.002083098584,-7.821971211e-05,-0.002161318297,-0.002504843139,-0.000570443612,-0.003075286751,-0.001494039447,-6.301775066e-05,-0.001557057197,-0.001516593744,-5.399702073e-05,-0.001570590764,-0.003175988175,6.284878006e-05,-0.003113139395,-0.004316757392,0.0004351904827,-0.003881566909,-0.002764975193,0.0002583317796,-0.002506643414,-0.004275202826,0.0003722229795,-0.003902979847,-0.003423099298,0.0002706465938,-0.003152452705,-0.001586181253,-0.0002651994548,-0.001851380708,-0.001302035788,-5.179523584e-05,-0.001353831024,-0.0007035835345,-1.537869632e-05,-0.0007189622308,0.001101135668,0.000279902456,0.001381038124,-0.002095292815,-0.0004936831725,-0.002588975988,-0.0005133729713,-0.0002149532009,-0.0007283261722,-0.001477517724,-0.001272057875,-0.002749575598,-0.001751804076,-9.717296931e-06,-0.001761521373,-0.000747964486,-0.0001854009583,-0.0009333654443,-0.002691110438,-8.256007663e-05,-0.002773670514,-0.002831681735,0.0002891718456,-0.002542509889,-0.00329240096,-0.0004138440567,-0.003706245016,-0.000651798795,-0.0003572124891,-0.001009011284,-0.00167524184,8.07668048e-06,-0.00166716516,-0.002989827258,3.197957987e-06,-0.0029866293,-0.002172829535,-3.897641348e-05,-0.002211805949
3.6,0.0003203776649,0.0001773079496,0.0004976856144,-0.0014440576,0.0002616338969,-0.001182423703,0.0001455304445,0.0001627709585,0.000308301403,-0.00247766942,-8.605342705e-05,-0.002563722847,-0.001726652732,0.0002533199337,-0.001473332798,-0.002963719182,0.0002988410995,-0.002664878082,-0.002714135617,1.327407459e-05,-0.002700861543,-0.00423173488,0.0003196523055,-0.003912082574,-0.002035281579,0.0001273904208,-0.001907891158,-0.002313507401,9.556284859e-05,-0.002217944553,-0.00190939819,4.475016848e-05,-0.001864648021,-0.002125655422,-6.750176558e-05,-0.002193157188,-0.002636194709,-0.0005652063012,-0.00320140101,-0.001499676487,-6.903303231e-05,-0.001568709519,-0.001593134108,-3.620918275e-05,-0.001629343291,-0.003179266886,6.67204342e-05,-0.003112546452,-0.00430861064,0.0004466937431,-0.003861916897,-0.002851575171,0.0002755094584,-0.002576065712,-0.004358072938,0.0003716942423,-0.003986378696,-0.003470003945,0.0002758524463,-0.003194151499,-0.001676912428,-0.0002668514768,-0.001943763905,-0.001366619972,-5.505366286e-05,-0.001421673635,-0.0007436638194,-1.839101455e-05,-0.000762054834,0.001107258249,0.000267059064,0.001374317313,-0.002108525079,-0.0005130655536,-0.002621590633,-0.0004784761953,-0.0002355602388,-0.0007140364341,-0.001544405333,-0.001293006723,-0.002837412055,-0.001755042221,-2.645589535e-05,-0.001781498116,-0.0007701698734,-0.0001963509386,-0.000966520812,-0.002717973782,-9.082938651e-05,-0.002808803168,-0.002923829612,0.0003041386411,-0.002619690971,-0.003337043817,-0.0004020968676,-0.003739140684,-0.0007211018321,-0.0003537589805,-0.001074860813,-0.001699014658,2.448230247e-06,-0.001696566428,-0.003048024275,1.048188172e-05,-0.003037542393,-0.002169281764,-0.0001662223653,-0.00233550413
3.7,0.0003337689209,0.0001627894924,0.0004965584134,-0.001478024471,0.0002632332143,-0.001214791256,0.0001437583461,0.0001586592678,0.0003024176139,-0.002579314887,-9.351547591e-05,-0.002672830363,-0.001723015562,0.0002557869775,-0.001467228585,-0.002992253472,0.0003028169762,-0.002689436495,-0.00272625432,1.142181991e-05,-0.0027148325,-0.004222090705,0.0003190844776,-0.003903006227,-0.002060178192,0.0001263700656,-0.001933808126,-0.00234139512,9.519569332e-05,-0.002246199427,-0.00195777803,4.157705565e-05,-0.001916200974,-0.00216889633,-5.703484882e-05,-0.002225931179,-0.002770018234,-0.0005597941765,-0.003329812411,-0.001503984383,-7.560033831e-05,-0.001579584721,-0.00166644874,-1.708562602e-05,-0.001683534366,-0.003179178076,7.051418309e-05,-0.003108663893,-0.004294257493,0.0004571281888,-0.003837129304,-0.002935610246,0.0002907440737,-0.002644866172,-0.004436811482,0.000370253771,-0.004066557711,-0.003513728855,0.0002808896202,-0.003232839235,-0.001764224711,-0.0002684319502,-0.002032656661,-0.001428264221,-5.853780688e-05,-0.001486802028,-0.0007799352791,-2.158818378e-05,-0.0008015234628,0.001115442013,0.0002539516036,0.001369393616,-0.002118943101,-0.0005329551743,-0.002651898275,-0.0004422467597,-0.0002560707986,-0.0006983175583,-0.001611589378,-0.001310253814,-0.002921843192,-0.001755297678,-4.417313415e-05,-0.001799470812,-0.0007919630245,-0.0002074026851,-0.0009993657095,-0.002743799736,-9.836672132e-05,-0.002842166457,-0.003010504771,0.0003176802368,-0.002692824534,-0.003381525003,-0.0003891651152,-0.003770690118,-0.0007901123375,-0.0003489036833,-0.001139016021,-0.001719649049,-3.020994359e-06,-0.001722670043,-0.003102375971,1.786833861e-05,-0.003084507632,-0.002155376884,-0.0002903092645,-0.002445686149
3.8,0.0003516061749,0.0001487690241,0.0005003751991,-0.001509799984,0.0002635650022,-0.001246234982,0.0001432026728,0.0001539290032,0.0002971316761,-0.002672877187,-0.0001005101406,-0.002773387327,-0.001717362995,0.0002574490173,-0.001459913978,-0.003018865384,0.0003061249452,-0.002712740439,-0.002733733933,1.003119991e-05,-0.002723702733,-0.00421085851,0.0003180818367,-0.003892776674,-0.002083272545,0.0001252998493,-0.001957972695,-0.00236661174,9.465710393e-05,-0.002271954636,-0.002002443733,3.832254452e-05,-0.001964121188,-0.00221278288,-4.68646418e-05,-0.002259647522,-0.002906137743,-0.0005543561932,-0.003460493936,-0.001506893915,-8.272273375e-05,-0.001589616649,-0.001736242233,2.986091865e-06,-0.001733256141,-0.003175746909,7.418043563e-05,-0.003101566474,-0.00427357664,0.0004662426006,-0.00380733404,-0.003016913988,0.0003039331383,-0.002712980849,-0.004511357414,0.0003679676586,-0.004143389756,-0.003554082548,0.0002856905209,-0.003268392027,-0.001847792102,-0.0002699485316,-0.002117740633,-0.001486710054,-6.225044771e-05,-0.001548960502,-0.0008122719178,-2.497339295e-05,-0.0008372453107,0.001125725384,0.0002406045041,0.001366329889,-0.002126572133,-0.0005533671123,-0.002679939245,-0.0004047907628,-0.0002763928546,-0.0006811836174,-0.001678896805,-0.001323977159,-0.003002873964,-0.001752526667,-6.279933064e-05,-0.001815325998,-0.0008133411638,-0.0002184620454,-0.001031803209,-0.002768474489,-0.0001051189904,-0.002873593479,-0.00309134788,0.0003293872589,-0.002761960621,-0.003425692976,-0.000375107278,-0.003800800254,-0.0008585997242,-0.0003427752134,-0.001201374938,-0.001737342213,-8.02787839e-06,-0.001745370092,-0.003152804334,2.529385273e-05,-0.003127510481,-0.002132046456,-0.0004101225443,-0.002542169
3.9,0.0003738732575,0.0001352720739,0.0005091453313,-0.001539225716,0.0002626081191,-0.001276617597,0.0001439218602,0.0001486096188,0.000292531479,-0.002757882845,-0.000106992461,-0.002864875306,-0.001709755059,0.0002583058444,-0.001451449215,-0.003043356591,0.000308675074,-0.002734681517,-0.002736531,9.069923753e-06,-0.002727461076,-0.0041980802,0.0003166513932,-0.003881428807,-0.002104541768,0.0001241693651,-0.001980372403,-0.002389098137,9.392107047e-05,-0.002295177067,-0.002043248024,3.496418884e-05,-0.002008283835,-0.002257254303,-3.702736568e-05,-0.002294281668,-0.003044295666,-0.0005490717084,-0.003593367375,-0.001508349946,-9.03863061e-05,-0.001598736252,-0.001802260815,2.358980631e-05,-0.001778671008,-0.003169018222,7.767620213e-05,-0.003091342019,-0.004246496342,0.0004738049524,-0.003772691389,-0.00309536713,0.0003150383456,-0.002780328784,-0.004581686041,0.0003649205849,-0.004216765456,-0.003590902703,0.0002901905963,-0.003300712107,-0.001927310592,-0.0002714091868,-0.002198719779,-0.00154172596,-6.6193437e-05,-0.001607919397,-0.00084057491,-2.854864585e-05,-0.0008691235559,0.001138111471,0.0002270394922,0.001365150963,-0.002131455779,-0.0005743044623,-0.002705760241,-0.0003662195944,-0.0002964464127,-0.0006626660071,-0.001746135667,-0.001334382978,-0.003080518645,-0.001746723717,-8.224296648e-05,-0.001828966683,-0.0008343196709,-0.000229420772,-0.001063740443,-0.002791884528,-0.000111039394,-0.002902923922,-0.003166081311,0.0003388934537,-0.002827187857,-0.003469332151,-0.0003600222173,-0.003829354368,-0.000926383145,-0.0003355066197,-0.001261889765,-0.001752284532,-1.230736544e-05,-0.001764591897,-0.003199262514,3.269205945e-05,-0.003166570455,-0.00210020845,-0.0005247443156,-0.002624952766
4.0,0.0004004712199,0.0001223088663,0.0005227800861,-0.001566157335,0.0002603639436,-0.001305793391,0.0001459619239,0.0001427360457,0.0002886979695,-0.002833978304,-0.0001129315555,-0.002946909859,-0.001700254081,0.0002583688324,-0.001441885248,-0.003065530577,0.0003103796005,-0.002755150976,-0.002734667695,8.49647608e-06,-0.002726171219,-0.004183798793,0.0003148030565,-0.003868995736,-0.00212398022,0.0001229697217,-0.002001010498,-0.002408829916,9.296202743e-05,-0.002315867888,-0.002080080154,3.148065061e-05,-0.002048599503,-0.002302227139,-2.755298524e-05,-0.002329780125,-0.003184159063,-0.0005441444453,-0.003728303508,-0.00150831514,-9.85596989e-05,-0.001606874839,-0.001864293533,4.428736746e-05,-0.001820006166,-0.003159057581,8.096653071e-05,-0.003078091051,-0.004212999188,0.000479608799,-0.003733390389,-0.003170896217,0.0003240796159,-0.002846816601,-0.004647806593,0.0003612083451,-0.004286598248,-0.003624056689,0.0002943295725,-0.003329727117,-0.002002499407,-0.0002728217762,-0.002275321183,-0.001593108702,-7.0367773e-05,-0.001663476475,-0.0008647723784,-3.231458297e-05,-0.0008970869614,0.001152569115,0.0002132754305,0.001365844545,-0.002133657021,-0.0005957567911,-0.002729413812,-0.0003266493916,-0.0003161632095,-0.0006428126011,-0.001813088102,-0.001341708732,-0.003154796835,-0.001737924039,-0.0001023911473,-0.001840315186,-0.0008549305378,-0.0002401602413,-0.001095090779,-0.002813916599,-0.000116089632,-0.002930006231,-0.003234513929,0.0003458861903,-0.002888627739,-0.003512164154,-0.0003440510746,-0.003856215228,-0.0009933327992,-0.0003272337609,-0.00132056656,-0.001764661103,-1.563972443e-05,-0.001780300828,-0.003241736178,3.999526213e-05,-0.003201740916,-0.002060732379,-0.000633470278,-0.002694202657
4.1,0.0004312258439,0.0001098767337,0.0005411025776,-0.001590465162,0.0002568553156,-0.001333609847,0.0001493563158,0.0001363480111,0.0002857043269,-0.00290092574,-0.0001183105171,-0.003019236257,-0.001688923079,0.0002576601715,-0.001431262908,-0.003085193906,0.000311153968,-0.002774039938,-0.002728226652,8.262153625e-06,-0.002719964498,-0.004168059041,0.0003125490681,-0.003855509973,-0.002141597163,0.0001216935577,-0.002019903606,-0.002425814161,9.175549932e-05,-0.002334058661,-0.002112862708,2.785233791e-05,-0.00208501037,-0.002347593653,-1.84685741e-05,-0.002366062227,-0.003325332,-0.0005397882559,-0.003865120255,-0.00150677175,-0.0001071944127,-0.001613966162,-0.001922170275,6.462532941e-05,-0.001857544946,-0.003145949923,8.402546663e-05,-0.003061924457,-0.004173124965,0.0004834789749,-0.003689645991,-0.003243469023,0.0003311250891,-0.002912343934,-0.00470976011,0.0003569310203,-0.00435282909,-0.003653440306,0.0002980522797,-0.003355388026,-0.002073101395,-0.0002741936381,-0.002347295033,-0.001640683212,-7.477359156e-05,-0.001715456804,-0.0008848183982,-3.62703522e-05,-0.0009210887504,0.001169035379,0.0001993283213,0.0013683637,-0.002133257495,-0.0006176992345,-0.002750956729,-0.0002861976682,-0.0003354866673,-0.0006216843355,-0.001879504409,-0.001346225193,-0.003225729602,-0.001726202107,-0.0001231129482,-0.001849315055,-0.0008752189042,-0.0002505555361,-0.00112577444,-0.002834456061,-0.0001202438786,-0.00295469994,-0.003296543824,0.0003501166921,-0.002946427132,-0.003553848112,-0.0003273791237,-0.003881227235,-0.001059365988,-0.0003180941757,-0.001377460164,-0.001774651997,-1.785507689e-05,-0.001792507074,-0.00328024227,4.713666334e-05,-0.003233105606,-0.002014412652,-0.0007358204686,-0.00275023312
4.2,0.0004658972223,9.796258396e-05,0.0005638598062,-0.001612033315,0.0002521247189,-0.001359908596,0.0001541265256,0.0001294892175,0.0002836157432,-0.002958595585,-0.0001231258581,-0.003081721443,-0.001675823627,0.0002562117497,-0.001419611877,-0.003102157706,0.0003109179776,-0.002791239728,-0.002717343898,8.313069019e-06,-0.002709030829,-0.004150907686,0.0003099036105,-0.003841004075,-0.002157413812,0.0001203349677,-0.002037078844,-0.002440085341,9.027866533e-05,-0.002349806676,-0.002141547546,2.406190871e-05,-0.002117485637,-0.002393220329,-9.80113452e-06,-0.002403021464,-0.003467371672,-0.0005362062479,-0.00400357792,-0.001503722351,-0.0001162258519,-0.001619948203,-0.00197576075,8.414343333e-05,-0.001891617316,-0.003129796366,8.683614363e-05,-0.003042960222,-0.004126971857,0.0004852761348,-0.003641695723,-0.003313086296,0.0003362768179,-0.002976809478,-0.004767618556,0.000352187307,-0.004415431249,-0.003678975789,0.0003013090238,-0.003377666765,-0.002138883076,-0.0002755313138,-0.00241441439,-0.001684301829,-7.941014603e-05,-0.001763711975,-0.0009006918623,-4.041360623e-05,-0.0009411054685,0.0011874186,0.0001852115604,0.00137263016,-0.002130355668,-0.0006400923511,-0.002770448019,-0.0002449787112,-0.0003543722978,-0.000599351009,-0.001945100301,-0.001348237378,-0.003293337678,-0.001711666701,-0.0001442663504,-0.001855933052,-0.0008952383523,-0.000260480052,-0.001155718404,-0.002853384269,-0.0001234943283,-0.002976878597,-0.00335215977,0.0003514099127,-0.003000749857,-0.00359398064,-0.0003102381565,-0.003904218797,-0.001124439944,-0.0003082267645,-0.001432666709,-0.001782430493,-1.883650242e-05,-0.001801266996,-0.00331482625,5.405251315e-05,-0.003260773737,-0.001961947214,-0.0008315445511,-0.002793491765
4.3,0.0005041901781,8.654524248e-05,0.0005907354206,-0.001630759013,0.0002462318856,-0.001384527128,0.0001602822267,0.0001222064153,0.000282488642,-0.003006957703,-0.0001273864621,-0.003134344166,-0.001661015086,0.0002540637881,-0.001406951298,-0.003116240586,0.0003095975502,-0.002806643036,-0.00270220153,8.592082521e-06,-0.002693609448,-0.004132394031,0.0003068825917,-0.00382551144,-0.002171461805,0.0001188893251,-0.002052572479,-0.002451702344,8.851086292e-05,-0.002363191481,-0.002166112918,2.009461698e-05,-0.002146018301,-0.002438948043,-1.579225444e-06,-0.002440527268,-0.003609804958,-0.0005335664809,-0.004143371439,-0.001499190444,-0.0001255750274,-0.001624765472,-0.002024976645,0.0001023856073,-0.001922591037,-0.00311071005,8.938976135e-05,-0.003021320289,-0.004074695767,0.0004848997621,-0.003589796005,-0.003379770235,0.0003396533401,-0.003040116895,-0.0048214835,0.0003470701527,-0.004474413347,-0.003700610287,0.000304055617,-0.00339655467,-0.002199634893,-0.0002768404937,-0.002476475387,-0.001723843681,-8.427582989e-05,-0.001808119511,-0.0009123957342,-4.474059659e-05,-0.0009571363308,0.001207601185,0.0001709364388,0.001378537624,-0.002125065526,-0.000662882148,-0.002787947674,-0.0002030998283,-0.0003727883735,-0.0005758882018,-0.002009557597,-0.001348084677,-0.003357642274,-0.001694454267,-0.000165708084,-0.001860162351,-0.0009150461826,-0.0002698104064,-0.001184856589,-0.002870576659,-0.0001258568578,-0.002996433517,-0.003401441033,0.0003496723559,-0.003051768677,-0.003632098433,-0.0002929077264,-0.00392500616,-0.001188544255,-0.0002977718121,-0.001486316068,-0.001788160756,-1.852214813e-05,-0.001806682904,-0.003345558652,6.068291383e-05,-0.003284875738,-0.001903920952,-0.0009206167598,-0.002824537711
4.4,0.0005457643986,7.559760941e-05,0.000621362008,-0.001646553159,0.0002392511061,-0.001407302053,0.0001678203531,0.0001145484211,0.0002823687742,-0.003046072599,-0.000131112139,-0.003177184738,-0.001644556195,0.0002512633464,-0.001393292849,-0.003127273187,0.000307126968,-0.002820146219,-0.002683021228,9.040614323e-06,-0.002673980614,-0.004112571286,0.0003035034068,-0.003809067879,-0.002183783979,0.0001173530423,-0.002066430936,-0.002460747507,8.64340637e-05,-0.002374313443,-0.002186562698,1.593853853e-05,-0.002170624159,-0.002484594418,6.166434466e-06,-0.002478427983,-0.003752142825,-0.000531979777,-0.004284122602,-0.001493221458,-0.0001351507337,-0.001628372192,-0.002069776078,0.0001189127626,-0.001950863315,-0.003088812058,9.168366048e-05,-0.002997128397,-0.004016507323,0.0004822892094,-0.003534218114,-0.003443551885,0.000341372166,-0.003102179719,-0.004871481525,0.0003416627528,-0.004529818773,-0.003718315546,0.0003062532861,-0.00341206226,-0.002255172065,-0.0002781260473,-0.002533298112,-0.001759214669,-8.936815725e-05,-0.001848582827,-0.0009199568622,-4.924628421e-05,-0.0009692031464,0.001229441762,0.0001565128195,0.001385954582,-0.002117516841,-0.0006859997342,-0.002803516575,-0.0001606598138,-0.0003907165268,-0.0005513763406,-0.002072527254,-0.001346140125,-0.003418667379,-0.001674722935,-0.0001873042051,-0.00186202714,-0.0009346997852,-0.0002784310685,-0.001213130854,-0.002885903296,-0.0001273752132,-0.003013278509,-0.003444554683,0.0003448958731,-0.00309965881,-0.003667686606,-0.0002757128508,-0.003943399457,-0.001251694792,-0.0002868710801,-0.001538565872,-0.001791997083,-1.690528416e-05,-0.001808902367,-0.003372531366,6.697062794e-05,-0.003305560738,-0.001840797741,-0.001003213845,-0.002844011585
4.5,0.0005902436051,6.508860269e-05,0.0006553322077,-0.001659342381,0.0002312684447,-0.001428073937,0.0001767231819,0.0001065651164,0.0002832882983,-0.003076083254,-0.0001343319537,-0.003210415208,-0.001626508878,0.0002478627844,-0.001378646094,-0.003135103732,0.00030345104,-0.002831652692,-0.002660059061,9.600303413e-06,-0.002650458758,-0.004091498917,0.0002997846197,-0.003791714298,-0.002194437162,0.0001157233635,-0.002078713798,-0.002467327478,8.403338007e-05,-0.002383294098,-0.002202927548,1.158478074e-05,-0.002191342768,-0.002529958,1.340284854e-05,-0.002516555151,-0.00389388976,-0.0005314868946,-0.004425376655,-0.001485884289,-0.0001448519801,-0.001630736269,-0.002110168433,0.0001333160807,-0.001976852352,-0.003064228197,9.371879333e-05,-0.002970509404,-0.003952667306,0.0004774228855,-0.003475244421,-0.003504461414,0.00034153588,-0.003162925534,-0.004917755605,0.0003360335791,-0.004581722025,-0.003732088952,0.0003078686282,-0.003424220324,-0.002305336131,-0.0002793919618,-0.002584728093,-0.00179034814,-9.468358254e-05,-0.001885031722,-0.0009234261832,-5.392441887e-05,-0.0009773506021,0.001252776761,0.000141949835,0.001394726596,-0.002107856606,-0.0007093607852,-0.002817217391,-0.0001177497761,-0.0004081521174,-0.0005259018936,-0.002133634313,-0.001342807681,-0.003476441994,-0.001652649153,-0.0002089385408,-0.001861587694,-0.0009542542773,-0.0002862386059,-0.001240492883,-0.002899231947,-0.0001281231415,-0.003027355089,-0.003481750358,0.0003371564932,-0.003144593865,-0.003700193861,-0.0002590170311,-0.003959210892,-0.001313929708,-0.0002756681683,-0.001589597876,-0.001794085688,-1.40315995e-05,-0.001808117288,-0.003395854219,7.285860331e-05,-0.003322995616,-0.001772926191,-0.001079673076,-0.002852599267
4.6,0.0006372236092,5.49848527e-05,0.0006922084619,-0.001669071993,0.0002223789142,-0.001446693079,0.0001869559695,9.830647409e-05,0.0002852624436,-0.003097207536,-0.0001370824567,-0.003234289993,-0.001606943306,0.0002439182616,-0.001363025044,-0.003139604133,0.0002985269704,-0.002841077163,-0.0026336014,1.021452354e-05,-0.002623386876,-0.004069245931,0.0002957457034,-0.003773500228,-0.002203495915,0.0001139982655,-0.00208949765,-0.002471574914,8.129762542e-05,-0.002390277289,-0.002215267086,7.027761883e-06,-0.002208239324,-0.002574823513,2.009464486e-05,-0.002554728868,-0.004034546266,-0.0005320592457,-0.004566605512,-0.001477272942,-0.0001545705602,-0.001631843502,-0.002146218183,0.0001452298749,-0.002000988308,-0.003037086924,9.549671308e-05,-0.002941590211,-0.003883481918,0.0004703164404,-0.003413165478,-0.003562524873,0.0003402242541,-0.003222300619,-0.00496045432,0.0003302299498,-0.004630224371,-0.003741955392,0.0003088736256,-0.003433081766,-0.002349996862,-0.0002806411912,-0.002630638054,-0.001817205862,-0.0001002171822,-0.001917423044,-0.0009228789157,-5.876757652e-05,-0.0009816464922,0.001277421785,0.0001272564284,0.001404678213,-0.002096250445,-0.0007328654802,-0.002829115925,-7.445537915e-05,-0.0004251044357,-0.0004995598148,-0.002192485576,-0.001338515596,-0.003531001172,-0.001628427995,-0.0002305169982,-0.001858944993,-0.0009737607638,-0.0002931458994,-0.001266906663,-0.002910432442,-0.000128204579,-0.003038637021,-0.003513353454,0.0003266085673,-0.003186744886,-0.00372905319,-0.0002432107694,-0.00397226396,-0.001375307745,-0.0002643087101,-0.001639616455,-0.001794567927,-9.994855366e-06,-0.001804562782,-0.00341565225,7.828741927e-05,-0.003337364831,-0.001700559593,-0.001150434521,-0.002850994114
4.7,0.0006862795297,4.525215123e-05,0.0007315316809,-0.001675708893,0.0002126836485,-0.001463025245,0.0001984649674,8.982171243e-05,0.0002882866798,-0.003109730677,-0.0001394058588,-0.003249136536,-0.001585942788,0.0002394883779,-0.00134645441,-0.003140676093,0.0002923260276,-0.002848350066,-0.002603961297,1.08297891e-05,-0.002593131508,-0.004045894431,0.0002914069883,-0.003754487443,-0.00221105564,0.0001121764707,-0.002098879169,-0.002473649553,7.821986458e-05,-0.002395429688,-0.002223671523,2.265535672e-06,-0.002221405988,-0.00261896704,2.620347371e-05,-0.002592763566,-0.004173605958,-0.0005336113463,-0.004707217305,-0.001467507284,-0.0001641938008,-0.001631701085,-0.002178046847,0.000154343491,-0.002023703356,-0.003007518325,9.70163896e-05,-0.002910501935,-0.003809298033,0.0004610205308,-0.003348277502,-0.003617767749,0.0003374926361,-0.003280275113,-0.004999721484,0.0003242707305,-0.004675450753,-0.003747968945,0.000309245648,-0.003438723297,-0.002389053958,-0.0002818755544,-0.002670929512,-0.001839778616,-0.000105962337,-0.001945740953,-0.0009184142821,-6.376713267e-05,-0.0009821814147,0.001303173287,0.000112441675,0.001415614962,-0.00208288298,-0.0007563994604,-0.00283928244,-3.085909144e-05,-0.0004415968701,-0.0004724559615,-0.002248680656,-0.001333705092,-0.003582385748,-0.001602276703,-0.0002519675789,-0.001854244282,-0.0009932643382,-0.0002990864962,-0.001292350834,-0.002919381246,-0.0001277517702,-0.003047133016,-0.003539757113,0.0003134749953,-0.003226282117,-0.003753705444,-0.0002286964597,-0.003982401903,-0.001435908587,-0.0002529392045,-0.001688847792,-0.001793582872,-4.93251496e-06,-0.001798515387,-0.003432063336,8.319336399e-05,-0.003348869972,-0.001623884797,-0.001215978523,-0.00283986332
4.8,0.0007369726675,3.585671084e-05,0.0007728293783,-0.001679243318,0.0002022871848,-0.001476956133,0.0002111767001,8.115866838e-05,0.0002923353685,-0.003113997042,-0.0001413481877,-0.00325534523,-0.00156360693,0.0002346330302,-0.0013289739,-0.003138256117,0.0002848348926,-0.002853421225,-0.002571474454,1.139702412e-05,-0.00256007743,-0.004021542459,0.0002867897674,-0.003734752691,-0.002217233427,0.0001102575186,-0.002106975909,-0.002473737182,7.479784718e-05,-0.002398939335,-0.002228261253,-2.699950815e-06,-0.002230961204,-0.002662159864,3.168655138e-05,-0.002630473313,-0.00431055163,-0.0005360196156,-0.004846571246,-0.00145673196,-0.000173607493,-0.001630339453,-0.002205832564,0.0001604113358,-0.002045421228,-0.002975653838,9.827136469e-05,-0.002877382474,-0.003730497052,0.0004496177377,-0.003280879315,-0.003670221919,0.0003333753033,-0.003336846616,-0.00503568822,0.000318139911,-0.004717548309,-0.003750213388,0.0003089674361,-0.003441245952,-0.00242243802,-0.0002830957375,-0.002705533758,-0.001858085709,-0.0001119104868,-0.001969996196,-0.0009101544208,-6.891313877e-05,-0.0009790675596,0.001329811048,9.751498195e-05,0.00142732603,-0.002067956477,-0.0007798360307,-0.002847792507,1.295876492e-05,-0.0004576670264,-0.0004447082615,-0.002301826142,-0.001328815555,-0.003630641697,-0.001574439735,-0.0002732369241,-0.001847676659,-0.001012801087,-0.0003040188555,-0.001316819942,-0.002925965908,-0.0001269209641,-0.003052886872,-0.00356141147,0.0002980339629,-0.003263377507,-0.003773622603,-0.0002158714234,-0.003989494027,-0.001495833706,-0.0002417038927,-0.001737537599,-0.001791268058,9.785925314e-07,-0.001790289465,-0.003445235463,8.75075404e-05,-0.003357727923,-0.001543054317,-0.001276769076,-0.002819823393
4.9,0.0007888574944,2.676626811e-05,0.0008156237625,-0.001679688674,0.0001912949889,-0.001488393686,0.0002249990527,7.236338392e-05,0.0002973624366,-0.003110400611,-0.0001429575113,-0.003253358122,-0.001540052099,0.0002294124679,-0.001310639631,-0.003132318298,0.0002760564572,-0.002856261841,-0.002536494128,1.187258177e-05,-0.002524621546,-0.003996305251,0.0002819162768,-0.003714388974,-0.002222165987,0.0001082418462,-0.002113924141,-0.002472045971,7.103425915e-05,-0.002401011712,-0.002229183723,-7.862756597e-06,-0.002237046479,-0.002704170201,3.649447106e-05,-0.00266767573,-0.004444854575,-0.0005391418205,-0.004983996395,-0.001445113322,-0.0001826987648,-0.001627812087,-0.002229806994,0.0001632595986,-0.002066547395,-0.002941625918,9.92474372e-05,-0.00284237848,-0.00364748602,0.0004362177936,-0.003211268227,-0.003719931554,0.0003278915924,-0.003392039961,-0.00506846892,0.0003117835677,-0.004756685352,-0.003748801029,0.0003080271321,-0.003440773897,-0.002450110655,-0.0002843013242,-0.002734411979,-0.001872173259,-0.0001180509042,-0.001990224163,-0.0008982424717,-7.41941321e-05,-0.0009724366038,0.001357101694,8.248633325e-05,0.001439588027,-0.002051687538,-0.0008030395113,-0.002854727049,5.692069376e-05,-0.0004733664716,-0.0004164457778,-0.002351552148,-0.001324268145,-0.003675820293,-0.001545193285,-0.0002942844006,-0.001839477685,-0.001032393864,-0.0003079300687,-0.001340323932,-0.002930089094,-0.0001258860073,-0.003055975101,-0.003578808432,0.000280602769,-0.003298205663,-0.00378832828,-0.0002051116013,-0.003993439881,-0.001555205648,-0.000230740218,-0.001785945866,-0.00178775846,7.527452755e-06,-0.001780231007,-0.003455323561,9.115640939e-05,-0.003364167152,-0.001458219515,-0.001333207303,-0.002791426818
5.0,0.0008414888606,1.795097849e-05,0.000859439839,-0.001677079551,0.0001798112898,-0.001497268262,0.0002398239205,6.347979761e-05,0.0003033037181,-0.003099374494,-0.0001442823152,-0.003243656809,-0.001515409505,0.0002238864458,-0.001291523059,-0.003122874951,0.0002660101757,-0.002856864776,-0.002499385119,1.221892251e-05,-0.002487166196,-0.003970314757,0.0002768092625,-0.003693505494,-0.002226005554,0.000106130845,-0.002119874709,-0.002468801155,6.693681715e-05,-0.002401864337,-0.002226608516,-1.32130103e-05,-0.002239821526,-0.002744762976,4.056866141e-05,-0.002704194314,-0.004575979518,-0.0005428332192,-0.005118812738,-0.001432835224,-0.0001913585163,-0.00162419374,-0.002250249653,0.0001627887438,-0.002087460909,-0.002905566914,9.992081172e-05,-0.002805646102,-0.003560686251,0.0004209510772,-0.003139735174,-0.003766955413,0.0003210522355,-0.003445903177,-0.005098161089,0.0003051118379,-0.004793049251,-0.00374387032,0.0003064183582,-0.003437451962,-0.002472063977,-0.0002854907905,-0.002757554768,-0.001882111719,-0.0001243704373,-0.002006482156,-0.0008828402098,-7.959700478e-05,-0.0009624372145,0.001384802963,6.736666213e-05,0.001452169625,-0.002034302447,-0.0008258693688,-0.002860171816,0.0001009538413,-0.0004887595759,-0.0003878057345,-0.002397529977,-0.001320449428,-0.003717979405,-0.001514847723,-0.0003150752493,-0.001829922972,-0.001052047241,-0.0003108388068,-0.001362886048,-0.002931671974,-0.0001248309851,-0.003056502959,-0.00359246301,0.0002615204908,-0.003330942519,-0.003797414345,-0.0001967580001,-0.003994172345,-0.001614165227,-0.0002201737079,-0.001834338935,-0.001783184222,1.44749335e-05,-0.001768709288,-0.003462486687,9.406381026e-05,-0.003368422876,-0.001369565448,-0.001385594685,-0.002755160133
5.1,0.0008944290049,9.384032545e-06,0.0009038130374,-0.001671469019,0.0001679372539,-0.001503531765,0.0002555303981,5.454943714e-05,0.0003100798352,-0.00308138072,-0.0001453700616,-0.003226750782,-0.001489822471,0.0002181133969,-0.001271709074,-0.003109976256,0.0002547322464,-0.00285524401,-0.002460517834,1.240497494e-05,-0.002448112859,-0.003943718029,0.0002714911005,-0.003672226929,-0.002228915751,0.0001039268766,-0.002124988874,-0.002464239976,6.251827447e-05,-0.002401721702,-0.002220722585,-1.873710286e-05,-0.002239459687,-0.002783698997,4.383917092e-05,-0.002739859826,-0.004703395037,-0.0005469585516,-0.005250353589,-0.001420094966,-0.0001994832747,-0.001619578241,-0.002267480242,0.0001589719059,-0.002108508336,-0.00286760763,0.0001002569763,-0.002767350653,-0.003470521727,0.0004039614333,-0.003066560294,-0.003811365689,0.0003128637529,-0.003498501936,-0.005124847991,0.0002980055093,-0.004826842481,-0.003735583212,0.0003041401608,-0.003431443051,-0.002488319977,-0.0002866615336,-0.00277498151,-0.001887993465,-0.0001308532982,-0.002018846764,-0.000864125819,-8.510705063e-05,-0.0009492328696,0.001412667965,5.216831663e-05,0.001464836281,-0.002016032327,-0.0008481846569,-0.002864216984,0.0001449913511,-0.0005039211005,-0.0003589297494,-0.002439489706,-0.001317696234,-0.00375718594,-0.001483747141,-0.0003355747167,-0.001819321858,-0.001071742491,-0.0003127973748,-0.001384539866,-0.00293065739,-0.0001239429101,-0.0030546003,-0.003602894321,0.0002411315483,-0.003361762772,-0.003800553588,-0.0001911066363,-0.003991660224,-0.001672868058,-0.000210112834,-0.001882980892,-0.001777668089,2.156029151e-05,-0.001756107797,-0.003466886348,9.615371531e-05,-0.003370732633,-0.001277346041,-0.001434107631,-0.002711453672
5.2,0.0009472536542,1.041999956e-06,0.0009482956541,-0.001662926661,0.000155769563,-0.001507157098,0.0002719873535,4.561110137e-05,0.0003175984549,-0.003056901735,-0.0001462659243,-0.003203167659,-0.001463444591,0.0002121496304,-0.001251294961,-0.00309371018,0.000242275734,-0.002851434446,-0.002420263562,1.240627007e-05,-0.002407857292,-0.003916675391,0.0002659826578,-0.003650692733,-0.002231069087,0.0001016332262,-0.002129435861,-0.002458608453,5.779636825e-05,-0.002400812085,-0.00221172727,-2.441799883e-05,-0.002236145269,-0.002820735733,4.622395529e-05,-0.002774511777,-0.00482658765,-0.0005514010761,-0.005377988726,-0.001407100183,-0.0002069767324,-0.001614076916,-0.0022818495,0.0001518495176,-0.002129999982,-0.002827876944,0.0001002107806,-0.002727666164,-0.003377409969,0.0003853994938,-0.002992010475,-0.00385324481,0.0003033301209,-0.003549914689,-0.005148603344,0.0002903256388,-0.004858277705,-0.003724123114,0.000301196622,-0.003422926492,-0.002498930126,-0.0002878100493,-0.002786740175,-0.001889931052,-0.0001374810131,-0.002027412065,-0.0008422922773,-9.070818956e-05,-0.0009330004668,0.001440448753,3.690555323e-05,0.001477354306,-0.00199710912,-0.0008698483547,-0.002866957475,0.0001889715053,-0.0005189324857,-0.0003299609805,-0.00247723725,-0.001316282127,-0.003793519377,-0.00145226603,-0.0003557444603,-0.00180801049,-0.001091433884,-0.0003138924293,-0.001405326314,-0.002927013737,-0.0001234047688,-0.003050418506,-0.003610609062,0.0002197709936,-0.003390838069,-0.00379750871,-0.0001884016185,-0.003985910329,-0.001731482195,-0.0002006444604,-0.001932126655,-0.001771324249,2.850830126e-05,-0.001742815947,-0.003468686158,9.735269176e-05,-0.003371333466,-0.001181912352,-0.001478788656,-0.002660701007
5.3,0.0009995566312,-7.095023348e-06,0.0009924616079,-0.001651538218,0.0001433994707,-0.001508138747,0.0002890547543,3.670057018e-05,0.0003257553244,-0.003026434339,-0.0001470117234,-0.003173446062,-0.001436439731,0.0002060486166,-0.001230391115,-0.00307420345,0.0002287106135,-0.002845492837,-0.002378991607,1.220491215e-05,-0.002366786695,-0.003889358987,0.0002603020686,-0.003629056918,-0.002232646717,9.925399732e-05,-0.00213339272,-0.002452160445,5.2793696e-05,-0.002399366749,-0.002199837701,-3.023566305e-05,-0.002230073364,-0.0028556313,4.763054313e-05,-0.002808000757,-0.00494507725,-0.0005560696875,-0.005501146937,-0.001394066796,-0.0002137513784,-0.001607818175,-0.002293729167,0.0001415205131,-0.002152208654,-0.00278650352,9.97276605e-05,-0.00268677586,-0.003281756981,0.0003654171562,-0.002916339825,-0.003892681821,0.0002924525721,-0.003600229249,-0.005169498116,0.0002819246674,-0.004887573449,-0.003709694042,0.0002975962569,-0.003412097785,-0.002503975465,-0.0002889322213,-0.002792907687,-0.001888056367,-0.0001442325339,-0.002032288901,-0.0008175465214,-9.638326837e-05,-0.0009139297898,0.001467898889,2.159501516e-05,0.001489493904,-0.001977763032,-0.0008907312036,-0.002868494236,0.0002328338025,-0.0005338770799,-0.0003010432774,-0.002510670123,-0.001316405471,-0.003827075594,-0.001420804002,-0.0003755411138,-0.001796345116,-0.001111047637,-0.0003142436913,-0.001425291329,-0.002920740166,-0.0001233889834,-0.003044129149,-0.003616089681,0.0001977518702,-0.003418337811,-0.003788138341,-0.0001888307139,-0.003976969055,-0.001790187406,-0.0001918309207,-0.001982018327,-0.001764259906,3.503722711e-05,-0.001729222679,-0.003468052987,9.759173021e-05,-0.003370461257,-0.001083726306,-0.001519555602,-0.002603281908
5.4,0.001050952784,-1.504339723e-05,0.001035909387,-0.001637406907,0.0001309123541,-0.001506494553,0.0003065837881,2.785034648e-05,0.0003344341346,-0.002990486001,-0.0001476451195,-0.00313813112,-0.001408983797,0.000199860399,-0.001209123398,-0.003051623616,0.0002141236651,-0.002837499951,-0.002337068279,1.178942166e-05,-0.002325278858,-0.003861951959,0.0002544635603,-0.003607488399,-0.002233840129,9.679399103e-05,-0.002137046138,-0.002445158647,4.753753094e-05,-0.002397621116,-0.002185284222,-3.616754022e-05,-0.002221451762,-0.002888151574,4.795960565e-05,-0.002840191968,-0.005058431934,-0.0005609040159,-0.005619335949,-0.001381217725,-0.0002197303019,-0.001600948026,-0.002303502304,0.0001281313798,-0.002175370924,-0.002743619554,9.874545099e-05,-0.002644874103,-0.0031839567,0.0003441638487,-0.002839792851,-0.003929770405,0.0002802292286,-0.003649541176,-0.005187608002,0.000272656964,-0.004914951038,-0.003692521128,0.0002933515877,-0.003399169541,-0.002503567248,-0.0002900235291,-0.002793590777,-0.001882520585,-0.0001510843991,-0.002033604984,-0.000790109219,-0.0001021143432,-0.0008922235621,0.001494775115,6.256122496e-06,0.001501031237,-0.001958221708,-0.0009107147039,-0.002868936412,0.0002765126518,-0.0005488349885,-0.0002723223367,-0.002539790108,-0.001318179846,-0.003857969954,-0.001389779942,-0.0003949160225,-0.001784695965,-0.001130483941,-0.0003140005459,-0.001444484487,-0.002911873065,-0.0001240513605,-0.003035924426,-0.003619789286,0.0001753557298,-0.003444433557,-0.003772401042,-0.0001925227783,-0.00396492382,-0.001849175374,-0.0001837095519,-0.002032884926,-0.001756579309,4.08667959e-05,-0.001715712513,-0.00346516002,9.680787293e-05,-0.003368352147,-0.0009833619489,-0.001556219846,-0.002539581795
5.5,0.001101079459,-2.281603132e-05,0.001078263427,-0.001620655809,0.0001183876543,-0.001502268155,0.000324416334,1.908941893e-05,0.0003435057529,-0.002949572825,-0.0001481991083,-0.003097771934,-0.001381267463,0.0001936311528,-0.00118763631,-0.003026181419,0.0001986180539,-0.002827563365,-0.002294857193,1.115451e-05,-0.002283702683,-0.003834648257,0.0002484765744,-0.003586171682,-0.002234853726,9.425863847e-05,-0.002140595087,-0.002437876441,4.205962011e-05,-0.002395816821,-0.002168314832,-4.21889802e-05,-0.002210503812,-0.0029180791,4.710923701e-05,-0.002870969863,-0.005166280316,-0.0005658769111,-0.005732157227,-0.001368781939,-0.0002248488228,-0.001593630762,-0.002311555267,0.0001118649001,-0.002199690367,-0.002699365992,9.719651325e-05,-0.002602169478,-0.003084394401,0.0003217851204,-0.00276260928,-0.003964610499,0.0002666556103,-0.003697954888,-0.005203018327,0.0002623856169,-0.00494063271,-0.003672852023,0.0002884791117,-0.003384372911,-0.002497847956,-0.0002910790397,-0.002788926995,-0.001873494501,-0.0001580108725,-0.002031505373,-0.0007602146843,-0.0001078829186,-0.0008680976029,0.001520838605,-9.088753606e-06,0.001511749851,-0.001938710712,-0.0009296932105,-0.002868403923,0.0003199304591,-0.0005638783818,-0.0002439479227,-0.002564711425,-0.00132162848,-0.003886339905,-0.001359626209,-0.0004138155083,-0.001773441718,-0.001149621563,-0.0003133369811,-0.001462958544,-0.002900493195,-0.0001255255325,-0.003026018728,-0.003622133358,0.00015282704,-0.003469306319,-0.003750357981,-0.0001995463353,-0.003949904316,-0.001908650303,-0.0001762942995,-0.002084944603,-0.001748388868,4.572487102e-05,-0.001702663997,-0.003460191594,9.494607493e-05,-0.003365245519,-0.0008815031868,-0.001588501855,-0.002470005041
5.6,0.001149597066,-3.042258648e-05,0.00111917448,-0.001601430272,0.0001058990611,-0.001495531211,0.0003423846378,1.044309594e-05,0.0003528277337,-0.002904218069,-0.0001487017761,-0.003052919845,-0.001353498532,0.0001874029125,-0.001166095619,-0.002998132234,0.0001823124647,-0.00281581977,-0.002252719937,1.030084974e-05,-0.002242419088,-0.003807652911,0.0002423454925,-0.003565307418,-0.002235906732,9.1654013e-05,-0.002144252719,-0.002430599117,3.639598088e-05,-0.002394203136,-0.002149197072,-4.82735611e-05,-0.002197470633,-0.002945222539,4.497932851e-05,-0.002900243211,-0.005268316941,-0.0005709953544,-0.005839312295,-0.001356993206,-0.0002290556683,-0.001586048874,-0.002318271006,9.292956117e-05,-0.002225341445,-0.002653898574,9.501033154e-05,-0.002558888243,-0.002983452342,0.0002984232565,-0.002685029085,-0.003997313315,0.0002517254547,-0.00374558786,-0.005215824838,0.000250983908,-0.00496484093,-0.003650957967,0.0002829994588,-0.003367958508,-0.002486992093,-0.0002920932776,-0.002779085371,-0.001861168493,-0.000164984122,-0.002026152615,-0.000728110323,-0.0001136701554,-0.0008417804784,0.001545856456,-2.44144479e-05,0.001521442008,-0.001919454338,-0.0009475753611,-0.0028670297,0.0003629917277,-0.0005790675602,-0.0002160758325,-0.002585664395,-0.001326683911,-0.003912348306,-0.001330782533,-0.0004321814432,-0.001762963976,-0.001168324594,-0.0003124450265,-0.00148076962,-0.002886732084,-0.0001279181008,-0.003014650185,-0.003623525127,0.0001303706581,-0.003493154469,-0.003722174205,-0.0002099086096,-0.003932082815,-0.001968829703,-0.0001695782947,-0.002138407997,-0.001739802509,4.935261956e-05,-0.001690449889,-0.003453348762,9.196118431e-05,-0.003361387577,-0.0007789425893,-0.001616041638,-0.002394984227
5.7,0.001196189451,-3.786973299e-05,0.001158319718,-0.001579899149,9.351485826e-05,-0.001486384291,0.0003603121422,1.933022593e-06,0.0003622451648,-0.002854949914,-0.0001491762013,-0.003004126115,-0.00132590235,0.0001812135005,-0.001144688849,-0.002967775294,0.0001653396779,-0.002802435616,-0.002211015909,9.234835625e-06,-0.002201781073,-0.003781182352,0.000236070122,-0.00354511223,-0.002237232689,8.898687845e-05,-0.00214824581,-0.002423622816,3.058662898e-05,-0.002393036187,-0.002128217632,-5.439337507e-05,-0.002182611007,-0.002969425403,4.147591884e-05,-0.002927949484,-0.005364294902,-0.0005763026442,-0.005940597546,-0.001346087513,-0.0002323137315,-0.001578401244,-0.002324021676,7.154950863e-05,-0.002252472167,-0.002607393567,9.211648878e-05,-0.002515277078,-0.002881515708,0.0002742191883,-0.002607296519,-0.004028007239,0.0002354308287,-0.003792576411,-0.005226132521,0.0002383341246,-0.004987798396,-0.003627133104,0.0002769374509,-0.003350195654,-0.002471205969,-0.0002930601708,-0.00276426614,-0.001845751369,-0.0001719745261,-0.002017725895,-0.0006940550485,-0.0001194570343,-0.0008135120828,0.001569604053,-3.969348996e-05,0.001529910563,-0.001900675704,-0.0009642849861,-0.00286496069,0.0004055792309,-0.0005944476432,-0.0001888684123,-0.002602994353,-0.001333192912,-0.003936187265,-0.001303688933,-0.0004499515388,-0.001753640472,-0.00118645087,-0.0003115266324,-0.001497977503,-0.002870775726,-0.000131304985,-0.003002080711,-0.003624350612,0.0001081515064,-0.003516199106,-0.00368811768,-0.0002235549429,-0.003911672623,-0.002029944256,-0.0001635369349,-0.002193481191,-0.001730946644,5.150898856e-05,-0.001679437655,-0.003444853797,8.781952255e-05,-0.003357034274,-0.0006765785131,-0.001638409363,-0.002314987876
5.8,0.001240564767,-4.516138923e-05,0.001195403378,-0.001556253777,8.129840457e-05,-0.001474955372,0.0003780162509,-6.422560155e-06,0.0003715936908,-0.002802297339,-0.000149640415,-0.002951937754,-0.001298718943,0.0001750966382,-0.001123622305,-0.002935449572,0.0001478442426,-0.002787605329,-0.002170100206,7.968268941e-06,-0.002162131937,-0.003755464032,0.0002296468201,-0.003525817211,-0.002239075272,8.626470401e-05,-0.002152810568,-0.002417250019,2.467512214e-05,-0.002392574897,-0.00210567839,-6.051938528e-05,-0.002166197776,-0.002990572857,3.651538347e-05,-0.002954057474,-0.005454005936,-0.0005818822666,-0.006035888203,-0.001336298376,-0.0002346004305,-0.001570898806,-0.002329159285,4.795507807e-05,-0.002281204207,-0.00256005142,8.844754943e-05,-0.00247160387,-0.002778977739,0.0002493154191,-0.00252966232,-0.004056842427,0.0002177623433,-0.003839080084,-0.005234055253,0.0002243278112,-0.005009727442,-0.003601691247,0.0002703220736,-0.003331369173,-0.002450725899,-0.0002939731339,-0.002744699033,-0.001827467571,-0.0001789511035,-0.002006418674,-0.0006583163997,-0.000125224471,-0.0007835408707,0.001591868685,-5.489675988e-05,0.001536971925,-0.001882595546,-0.0009797612752,-0.002862356821,0.0004475533501,-0.0006100460745,-0.0001624927244,-0.002617154348,-0.001340925639,-0.003958079988,-0.001278777636,-0.0004670583603,-0.001745835996,-0.001203860662,-0.0003107845301,-0.001514645192,-0.002852864294,-0.0001357292543,-0.002988593548,-0.003624981582,8.629744201e-05,-0.00353868414,-0.003648554543,-0.0002403694277,-0.00388892397,-0.0020922348,-0.0001581318132,-0.002250366613,-0.001721963228,5.197474959e-05,-0.001669988478,-0.003434952024,8.249980808e-05,-0.003352452216,-0.000575406775,-0.001655119242,-0.002230526017
5.9,0.001282457265,-5.229892014e-05,0.001230158344,-0.001530704241,6.930864062e-05,-0.001461395601,0.0003953131637,-1.460840365e-05,0.0003807047601,-0.002746783681,-0.0001501074238,-0.002896891105,-0.001272196639,0.0001690821513,-0.001103114488,-0.002901526104,0.0001299789704,-0.002771547134,-0.002130319293,6.517927912e-06,-0.002123801366,-0.00373073479,0.000223070015,-0.003507664775,-0.002241680698,8.349561568e-05,-0.002158185082,-0.002411781852,1.870786464e-05,-0.002393073987,-0.002081889095,-6.662190309e-05,-0.002148510999,-0.003008595942,3.002854585e-05,-0.002978567397,-0.005537257478,-0.0005878591624,-0.006125116641,-0.001327850261,-0.0002359075384,-0.0015637578,-0.002334006042,2.237508405e-05,-0.002311630958,-0.002512097007,8.394161248e-05,-0.002428155395,-0.002676243617,0.0002238599395,-0.002452383678,-0.004083993987,0.0001987122057,-0.003885281781,-0.005239716386,0.0002088687378,-0.005030847648,-0.00357496042,0.0002631865397,-0.00331177388,-0.002425814865,-0.0002948251852,-0.002720640051,-0.001806552982,-0.000185881987,-0.001992434969,-0.0006211665995,-0.0001309534509,-0.0007521200504,0.001612454243,-6.999408673e-05,0.001542460156,-0.001865429749,-0.0009939579097,-0.002859387658,0.000488755273,-0.0006258713977,-0.0001371161246,-0.002628690582,-0.00134958777,-0.003978278351,-0.001256464565,-0.0004834266182,-0.001739891183,-0.001220423713,-0.0003104132006,-0.001530836914,-0.002833288107,-0.0001412003967,-0.002974488504,-0.0036257767,6.490689907e-05,-0.003560869801,-0.003603939315,-0.0002601773196,-0.003864116634,-0.002155945262,-0.0001533156916,-0.002309260954,-0.001713009665,5.055549149e-05,-0.001662454173,-0.003423910608,7.599379168e-05,-0.003347916816,-0.0004765074319,-0.001665644414,-0.002142151846
6.0,0.00132162986,-5.928136803e-05,0.001262348492,-0.001503473595,5.760041577e-05,-0.001445873179,0.0004120239316,-2.261186593e-05,0.0003894120657,-0.00268891876,-0.0001505853174,-0.002839504077,-0.001246583592,0.0001631961599,-0.001083387432,-0.002866398008,0.000111900695,-0.002754497313,-0.002092005281,4.905062483e-06,-0.002087100218,-0.00370723815,0.0002163339777,-0.003490904172,-0.00224528876,8.068829878e-05,-0.002164600462,-0.002407509172,1.27332379e-05,-0.002394775934,-0.002057158678,-7.267114778e-05,-0.002129829826,-0.003023473393,2.196501331e-05,-0.00300150838,-0.005613857754,-0.0005943936736,-0.006208251428,-0.001320951483,-0.0002362405248,-0.001557192007,-0.002338848059,-4.96763663e-06,-0.002343815696,-0.00246377678,7.854486099e-05,-0.002385231919,-0.002573733217,0.0001980108152,-0.002375722402,-0.004109664813,0.0001782819596,-0.003931382854,-0.005243248952,0.0001918774918,-0.005051371461,-0.003547276292,0.0002555683895,-0.003291707902,-0.002396758242,-0.0002956090479,-0.00269236729,-0.00178325026,-0.0001927349178,-0.001975985177,-0.0005828782663,-0.0001366253066,-0.0007195035729,0.001631186186,-8.495468375e-05,0.001546231502,-0.001849386294,-0.00100684138,-0.002856227674,0.0005290130856,-0.0006419133529,-0.0001129002673,-0.002638221579,-0.001358834992,-0.003997056571,-0.001237140834,-0.0004989697095,-0.001736110544,-0.001236023692,-0.0003105909905,-0.001546614682,-0.002812381016,-0.0001476952259,-0.002960076242,-0.00362708095,4.406048073e-05,-0.003583020469,-0.003554800952,-0.0002827483109,-0.003837549263,-0.002221312874,-0.0001490377641,-0.002370350638,-0.001704256154,4.708337289e-05,-0.001657172781,-0.003412015398,6.830706032e-05,-0.003343708338,-0.0003810296471,-0.001669430729,-0.002050460376
6.1,0.001357876782,-6.610581253e-05,0.001291770969,-0.001474791691,4.622451626e-05,-0.001428567174,0.000427980236,-3.042265777e-05,0.0003975575782,-0.002629191463,-0.0001510774279,-0.002780268891,-0.001222119627,0.0001574612125,-0.001064658414,-0.002830470356,9.376620702e-05,-0.002736704149,-0.002055470426,3.154867404e-06,-0.002052315558,-0.003685221377,0.0002094347866,-0.003475786591,-0.002250125125,7.785186387e-05,-0.002172273261,-0.002404705,6.80067944e-06,-0.002397904321,-0.00203178782,-7.863781708e-05,-0.002110425637,-0.003035231707,1.229760609e-05,-0.003022934101,-0.005683614244,-0.0006016677983,-0.006285282043,-0.001315788205,-0.000235617702,-0.001551405907,-0.002343934769,-3.385734611e-05,-0.002377792116,-0.002415354568,7.221452523e-05,-0.002343140043,-0.002471883527,0.0001719407376,-0.002299942789,-0.004134088828,0.000156493879,-0.003977594949,-0.00524479625,0.000173297246,-0.005071499004,-0.003518975725,0.0002475093335,-0.003271466391,-0.002363859389,-0.0002963173462,-0.002660176735,-0.001757804837,-0.0001994778266,-0.001957282663,-0.0005437206005,-0.0001422221921,-0.0006859427926,0.001647915659,-9.974743833e-05,0.001548168221,-0.001834662501,-0.001018389233,-0.002853051734,0.000568148496,-0.0006581440571,-8.999556115e-05,-0.002646414092,-0.001368289146,-0.004014703238,-0.00122116432,-0.0005135876133,-0.001734751933,-0.001250560382,-0.0003114740698,-0.001562034452,-0.002790512588,-0.0001551606825,-0.002945673271,-0.0036292225,2.383261807e-05,-0.003605389881,-0.003501727874,-0.0003077994159,-0.00380952729,-0.002288558762,-0.000145247962,-0.002433806724,-0.001695882128,4.141832817e-05,-0.0016544638,-0.003399567603,5.946009897e-05,-0.003340107504,-0.0002901738528,-0.001665912929,-0.001956086782
6.2,0.001391025425,-7.276785386e-05,0.001318257571,-0.001444890369,3.522748712e-05,-0.001409662882,0.0004430285916,-3.803270397e-05,0.0004049958877,-0.002568064559,-0.0001515824904,-0.00271964705,-0.001199030408,0.0001518963995,-0.001047134009,-0.002794151581,7.572876088e-05,-0.002718422821,-0.002021003263,1.295933483e-06,-0.00201970733,-0.003664933142,0.0002023723617,-0.00346256078,-0.002256396615,7.499567026e-05,-0.002181400944,-0.00240362001,9.59809226e-07,-0.0024026602,-0.002006064557,-8.449361359e-05,-0.00209055817,-0.003043944369,1.026184424e-06,-0.003042918185,-0.00574634512,-0.0006098678219,-0.006356212942,-0.001312520515,-0.0002340695032,-0.001546590019,-0.002349483306,-6.408474463e-05,-0.00241356805,-0.002367107575,6.492203664e-05,-0.002302185538,-0.002371151277,0.0001458404853,-0.002225310792,-0.004157534341,0.0001334031212,-0.004024131219,-0.005244515521,0.0001531010978,-0.005091414424,-0.003490391458,0.000239054702,-0.003251336756,-0.002327435715,-0.0002969430044,-0.00262437872,-0.001730462376,-0.0002060795283,-0.001936541904,-0.0005039566101,-0.0001477276747,-0.0006516842847,0.001662521977,-0.0001143410817,0.001548180895,-0.001821443074,-0.00102858888,-0.002850031954,0.0006059823068,-0.0006745201959,-6.853788908e-05,-0.002653959713,-0.001377554208,-0.004031513922,-0.001208851634,-0.0005271678021,-0.001736019436,-0.001263950615,-0.0003131925456,-0.00157714316,-0.00276808075,-0.0001635179494,-0.0029315987,-0.003632506591,4.298782843e-06,-0.003628207808,-0.003445355181,-0.0003349976063,-0.003780352787,-0.002357881479,-0.0001418997191,-0.002499781198,-0.001688073139,3.344935714e-05,-0.001654623782,-0.003386881641,4.948950703e-05,-0.003337392134,-0.000205166412,-0.001654539278,-0.00185970569
6.3,0.001420936795,-7.926209024e-05,0.001341674705,-0.001414000969,2.4651434e-05,-0.001389349535,0.0004570323913,-4.543607691e-05,0.0004115963144,-0.002505972561,-0.0001520948408,-0.002658067402,-0.001177524793,0.0001465174886,-0.001031007304,-0.002757847024,5.793491133e-05,-0.002699912113,-0.0019888671,-6.403701338e-07,-0.00198950747,-0.003646622174,0.0001951523099,-0.003451469864,-0.002264290001,7.212912379e-05,-0.002192160877,-0.002404481549,-4.740321547e-06,-0.00240922187,-0.001980263392,-9.021168222e-05,-0.002070475075,-0.003049731183,-1.181986051e-05,-0.003061551044,-0.00580189873,-0.0006191691928,-0.006421067923,-0.00131128069,-0.0002316380164,-0.001542918706,-0.002355685541,-9.544603531e-05,-0.002451131576,-0.002319323386,5.665566919e-05,-0.002262667716,-0.002272014913,0.0001199201324,-0.002152094781,-0.004180306275,0.0001091075816,-0.004071198694,-0.005242585823,0.0001313001032,-0.00511128572,-0.003461848639,0.0002302526966,-0.003231595942,-0.002287815625,-0.0002974797561,-0.002585295381,-0.001701468,-0.0002125104022,-0.001913978402,-0.0004638415644,-0.0001531272936,-0.0006169688579,0.001674913164,-0.0001287042525,0.001546208911,-0.00180989917,-0.001037436978,-0.002847336148,0.0006423377772,-0.000690986096,-4.864831878e-05,-0.002661555396,-0.001386230374,-0.00404778577,-0.001200470967,-0.0005395892717,-0.001740060239,-0.00127612905,-0.0003158485878,-0.001591977637,-0.002745506287,-0.000172666637,-0.002918172924,-0.003637207877,-1.446395124e-05,-0.003651671828,-0.003386355374,-0.0003639635092,-0.003750318883,-0.002429454323,-0.0001389515294,-0.002568405852,-0.001681019221,2.309581678e-05,-0.001657923404,-0.003374284516,3.844915349e-05,-0.003335835363,-0.0001272252133,-0.001634804869,-0.001762030082
6.4,0.001447504369,-8.55824953e-05,0.001361921874,-0.001382354214,1.453391578e-05,-0.001367820298,0.0004698719084,-5.262898881e-05,0.0004172429195,-0.002443322519,-0.0001526047707,-0.002595927289,-0.001157795155,0.0001413370973,-0.001016458057,-0.002721954503,4.052151379e-05,-0.00268143299,-0.001959300892,-2.620604063e-06,-0.001961921496,-0.003630536822,0.0001877873637,-0.003442749458,-0.002273973834,6.92615157e-05,-0.002204712318,-0.002407495693,-1.025179207e-05,-0.002417747485,-0.001954647428,-9.576690342e-05,-0.002050414331,-0.003052757746,-2.618100325e-05,-0.00307893875,-0.005850173596,-0.0006297275452,-0.006479901141,-0.001312173401,-0.0002283765748,-0.001540549976,-0.002362716226,-0.0001277418646,-0.00249045809,-0.002272298609,4.742250444e-05,-0.002224876104,-0.002174974647,9.440751306e-05,-0.002080567134,-0.004202745843,8.375304826e-05,-0.004118992795,-0.005239218414,0.0001079493087,-0.005131269105,-0.00343366342,0.000221153749,-0.003212509671,-0.002245336471,-0.000297922559,-0.00254325903,-0.001671067133,-0.0002187428956,-0.001889810029,-0.0004236225057,-0.0001584089817,-0.0005820314874,0.001685024769,-0.0001428055226,0.001542219246,-0.001800188812,-0.00104493886,-0.002845127672,0.0006770416194,-0.0007074770554,-3.043543605e-05,-0.002669888912,-0.00139392612,-0.004063815032,-0.001196236064,-0.0005507287467,-0.001746964811,-0.001287049467,-0.0003195162286,-0.001606565695,-0.00272322933,-0.000182488451,-0.002905717781,-0.003643563326,-3.238219372e-05,-0.003675945519,-0.003325431812,-0.0003942773858,-0.003719709198,-0.002503425988,-0.0001363680242,-0.002639794013,-0.001674915406,1.030834615e-05,-0.00166460706,-0.003362116149,2.641100066e-05,-0.003335705148,-5.75202965e-05,-0.001606287525,-0.001663807822
6.5,0.001470651696,-9.172275088e-05,0.001378928945,-0.001350181819,4.907954169e-06,-0.001345273865,0.0004814428345,-5.960980828e-05,0.0004218330262,-0.002380496976,-0.0001530991151,-0.002533596091,-0.001140019765,0.0001363649257,-0.001003654839,-0.002686861528,2.361322117e-05,-0.002663248307,-0.001932522001,-4.609988782e-06,-0.00193713199,-0.003616925297,0.0001802984196,-0.003436626877,-0.002285602204,6.640196873e-05,-0.002219200235,-0.00241285111,-1.552816522e-05,-0.002428379275,-0.001929472283,-0.0001011360105,-0.002030608294,-0.003053234206,-4.196909092e-05,-0.003095203297,-0.005891133434,-0.0006416748809,-0.006532808315,-0.001315277529,-0.0002243491131,-0.001539626642,-0.002370741339,-0.0001607754986,-0.002531516838,-0.002226339567,3.725030963e-05,-0.002189089257,-0.002080550479,6.954455963e-05,-0.002011005919,-0.00422522726,5.753276755e-05,-0.004167694492,-0.005234667671,8.314930437e-05,-0.005151518367,-0.003406143187,0.0002118101602,-0.003194333026,-0.002200343302,-0.0002982678171,-0.002498611119,-0.001639507339,-0.0002247518521,-0.001864259191,-0.0003835383807,-0.0001635633247,-0.0005471017055,0.001692817492,-0.0001566135142,0.001536203978,-0.001792458789,-0.00105110752,-0.002843566309,0.0007099229267,-0.0007239220384,-1.399911172e-05,-0.002679628924,-0.001400268723,-0.004079897647,-0.001196301606,-0.0005604679333,-0.001756769539,-0.001296686373,-0.0003242427371,-0.00162092911,-0.002701706509,-0.0001928509612,-0.00289455747,-0.003651766522,-4.939480033e-05,-0.003701161322,-0.003263313476,-0.0004254875531,-0.003688801029,-0.002579923495,-0.0001341212036,-0.002714044699,-0.00166996443,-4.930367658e-06,-0.001674894797,-0.003350729907,1.346558495e-05,-0.003337264322,2.865742081e-06,-0.001568681496,-0.001565815754
6.6,0.001490329344,-9.767662594e-05,0.001392652718,-0.001317718817,-4.197825928e-06,-0.001321916643,0.0004916541724,-6.637900427e-05,0.0004252751682,-0.00231785795,-0.0001535620168,-0.002471419967,-0.00112436588,0.0001316080977,-0.0009927577825,-0.002652943847,7.321017605e-06,-0.002645622829,-0.001908729924,-6.573039301e-06,-0.001915302963,-0.00360603631,0.0001727153162,-0.003433320994,-0.002299318832,6.355948965e-05,-0.002235759342,-0.002420723149,-2.052470452e-05,-0.002441247853,-0.001904990221,-0.0001062975706,-0.002011287792,-0.003051412811,-5.907051344e-05,-0.003110483324,-0.005924815576,-0.0006551175818,-0.006579933158,-0.001320648925,-0.0002196292375,-0.001540278162,-0.002379925286,-0.0001943501129,-0.002574275399,-0.002181764396,2.618969399e-05,-0.002155574702,-0.001989278963,4.558230201e-05,-0.001943696661,-0.004248151963,3.068239164e-05,-0.004217469572,-0.005229241909,5.704341488e-05,-0.005172198494,-0.00337958745,0.0002022760194,-0.003177311431,-0.002153187907,-0.0002985134727,-0.00245170138,-0.001607040207,-0.000230514826,-0.001837555033,-0.0003438202329,-0.0001685836531,-0.000512403886,0.00169827437,-0.0001700972195,0.00152817715,-0.001786847686,-0.001055962099,-0.002842809786,0.0007408111591,-0.0007402451828,5.65976262e-07,-0.002691418442,-0.001404913032,-0.004096331474,-0.00120076045,-0.0005687007345,-0.001769461185,-0.001305036256,-0.0003300515282,-0.001635087784,-0.002681407237,-0.0002036122122,-0.00288501945,-0.003661963359,-6.546150556e-05,-0.003727424864,-0.003200750369,-0.0004571200893,-0.003657870459,-0.002659056595,-0.0001321915858,-0.002791248181,-0.00166638075,-2.260426529e-05,-0.001688985016,-0.003340492681,-2.776674879e-07,-0.003340770349,5.297412769e-05,-0.001521828417,-0.00146885429
6.7,0.001506511832,-0.000103438356,0.001403073476,-0.001285205381,-1.27589137e-05,-0.001297964294,0.0005004264623,-7.293891001e-05,0.0004274875523,-0.002255750541,-0.0001539757428,-0.002409726284,-0.001110991942,0.0001270716487,-0.0009839202932,-0.002620564819,-8.258080319e-06,-0.002628822899,-0.001888109738,-8.474061885e-06,-0.0018965838,-0.003598119446,0.0001650773346,-0.003433042111,-0.002315259698,6.074307542e-05,-0.002254516623,-0.00243127638,-2.519858386e-05,-0.002456474964,-0.001881452659,-0.0001112319223,-0.001992684582,-0.003047584252,-7.735015954e-05,-0.003124934412,-0.005951332371,-0.0006701354169,-0.006621467788,-0.001328322819,-0.0002142991738,-0.001542621993,-0.002390435314,-0.0002282659428,-0.002618701256,-0.002138904803,1.431594215e-05,-0.002124588861,-0.001901708951,2.277469858e-05,-0.001878934253,-0.004271940781,3.472160733e-06,-0.004268468621,-0.005223314187,2.981328422e-05,-0.005193500903,-0.003354288201,0.0001926073564,-0.003161680844,-0.00210422754,-0.0002986590354,-0.002402886575,-0.001573922334,-0.0002360124996,-0.001809934833,-0.000304690885,-0.0001734659291,-0.000478156814,0.001701398252,-0.0001832265543,0.001518171698,-0.001783489203,-0.001059526137,-0.00284301534,0.0007695349665,-0.0007563663706,1.316859585e-05,-0.002705868978,-0.001407548566,-0.004113417543,-0.001209642559,-0.0005753396651,-0.001784982224,-0.001312117888,-0.0003369460567,-0.001649063945,-0.002662808341,-0.0002146259682,-0.002877434309,-0.003674249703,-8.056877264e-05,-0.003754818476,-0.003138509442,-0.000488688024,-0.003627197466,-0.002740923407,-0.0001305680372,-0.002871491444,-0.001664393969,-4.266210934e-05,-0.001707056079,-0.00333178385,-1.469038614e-05,-0.003346474237,9.199993946e-05,-0.001465745566,-0.001373745627
