Time,S1D1HbO,S1D1HbR,S1D1HbT,S2D2HbO,S2D2HbR,S2D2HbT,S3D3HbO,S3D3HbR,S3D3HbT,S4D4HbO,S4D4HbR,S4D4HbT,S5D5HbO,S5D5HbR,S5D5HbT,S6D6HbO,S6D6HbR,S6D6HbT,S7D7HbO,S7D7HbR,S7D7HbT,S8D8HbO,S8D8HbR,S8D8HbT,S9D9HbO,S9D9HbR,S9D9HbT,S10D10HbO,S10D10HbR,S10D10HbT,S11D11HbO,S11D11HbR,S11D11HbT,S12D12HbO,S12D12HbR,S12D12HbT,S13D13HbO,S13D13HbR,S13D13HbT,S14D14HbO,S14D14HbR,S14D14HbT,S15D15HbO,S15D15HbR,S15D15HbT,S16D16HbO,S16D16HbR,S16D16HbT,S17D17HbO,S17D17HbR,S17D17HbT,S18D18HbO,S18D18HbR,S18D18HbT,S19D19HbO,S19D19HbR,S19D19HbT,S20D20HbO,S20D20HbR,S20D20HbT,S21D21HbO,S21D21HbR,S21D21HbT,S22D22HbO,S22D22HbR,S22D22HbT,S23D23HbO,S23D23HbR,S23D23HbT,S24D24HbO,S24D24HbR,S24D24HbT,S25D25HbO,S25D25HbR,S25D25HbT,S26D26HbO,S26D26HbR,S26D26HbT,S27D27HbO,S27D27HbR,S27D27HbT,S28D28HbO,S28D28HbR,S28D28HbT,S29D29HbO,S29D29HbR,S29D29HbT,S30D30HbO,S30D30HbR,S30D30HbT,S31D31HbO,S31D31HbR,S31D31HbT,S32D32HbO,S32D32HbR,S32D32HbT,S33D33HbO,S33D33HbR,S33D33HbT,S34D34HbO,S34D34HbR,S34D34HbT,S35D35HbO,S35D35HbR,S35D35HbT,S36D36HbO,S36D36HbR,S36D36HbT
0.0,-0.0004864171153,0.0001780091801,-0.0003084079352,0.0003588936852,-0.0002230073211,0.0001358863641,0.0002237684942,1.709173009e-05,0.0002408602243,0.0009058423435,-0.0001051185377,0.0008007238058,0.0007504780409,-0.0002698367654,0.0004806412754,0.0007570850228,-4.735556422e-05,0.0007097294586,0.0004560743407,-8.860311105e-05,0.0003674712296,0.0006794710636,-0.0001683566019,0.0005111144617,0.0007834915472,-0.000102708063,0.0006807834842,0.000829862455,5.35067053e-05,0.0008833691603,0.0007644300382,-0.0002235131554,0.0005409168829,0.0007685378124,-0.0002262688922,0.0005422689202,0.001146713953,4.165890698e-05,0.00118837286,0.0002324518589,7.680398369e-05,0.0003092558426,0.001203967046,8.942586852e-05,0.001293392915,0.002381725836,9.623946267e-05,0.002477965298,0.003427264353,0.0001630177601,0.003590282113,0.001160740526,-5.328615882e-05,0.001107454367,0.001237457504,2.559429513e-05,0.001263051799,0.0008960566253,-4.311535732e-06,0.0008917450896,0.001002582172,3.511896007e-05,0.001037701132,0.000614242859,-3.306181218e-05,0.0005811810468,0.0001106127731,0.0001583953978,0.0002690081709,7.270328609e-05,7.600766221e-05,0.0001487109483,0.001013009924,-7.188674602e-05,0.0009411231784,0.0006999559063,-4.866509019e-05,0.0006512908161,0.00147855242,-0.0001098602439,0.001368692176,0.0009264328103,-5.008796345e-06,0.000921424014,0.003246265102,0.0001830863346,0.003429351437,0.001747439592,2.674211274e-05,0.001774181705,0.004074041298,0.0001523589638,0.004226400261,0.002885020313,-1.09744398e-05,0.002874045873,0.003656190219,0.0001257507794,0.003781940999,0.001465920696,-1.663410304e-06,0.001464257286,0.003255054643,-2.348542105e-05,0.003231569222,0.002688339735,0.0001327045748,0.00282104431
0.1,-0.0005046475028,0.0001826081183,-0.0003220393845,0.0003610725099,-0.0002272690634,0.0001338034465,0.0002244738704,1.451659098e-05,0.0002389904614,0.0009108893221,-0.0001110092936,0.0007998800285,0.0007542314244,-0.0002753486657,0.0004788827587,0.0007589002217,-5.56607747e-05,0.000703239447,0.0004463006616,-9.477762943e-05,0.0003515230322,0.0006356507029,-0.0001766221153,0.0004590285876,0.0007730739778,-0.0001051810301,0.0006678929476,0.0008136271484,5.478650208e-05,0.0008684136505,0.0007587433099,-0.0002236472351,0.0005350960748,0.0007645015247,-0.0002267691777,0.0005377323471,0.001164416827,4.062635551e-05,0.001205043183,0.000216595477,8.066742701e-05,0.000297262904,0.001215036,8.817602612e-05,0.001303212026,0.002397864635,9.500413515e-05,0.00249286877,0.003469160895,0.0001591986391,0.003628359534,0.001126727441,-5.453109223e-05,0.001072196349,0.001216074339,1.975367448e-05,0.001235828013,0.0008848724885,-8.964828516e-06,0.00087590766,0.001014220264,3.483937774e-05,0.001049059642,0.000631547944,-3.89058995e-05,0.0005926420445,0.0001092845027,0.0001597323372,0.00026901684,6.203397608e-05,7.969150017e-05,0.0001417254763,0.001019606442,-7.62680697e-05,0.0009433383722,0.0007003488179,-5.055278419e-05,0.0006497960337,0.001500669647,-0.0001173021497,0.001383367497,0.0009524530907,-1.341040496e-05,0.0009390426857,0.003302169788,0.0001782985557,0.003480468344,0.001761609712,1.328334746e-05,0.001774893059,0.004137476264,0.000130267989,0.004267744253,0.002888821516,-2.54606609e-05,0.002863360855,0.003706062549,0.0001114290749,0.003817491624,0.001439115111,-2.230323913e-06,0.001436884787,0.003228120856,-2.864325428e-05,0.003199477601,0.002658539823,0.0001305673281,0.002789107151
0.2,-0.0005238609419,0.0001872715752,-0.0003365893667,0.0003621250404,-0.0002312779572,0.0001308470832,0.0002238363263,1.187824607e-05,0.0002357145724,0.000914054753,-0.0001170115591,0.0007970431939,0.0007561930147,-0.0002806377443,0.0004755552704,0.0007587328889,-6.385346405e-05,0.0006948794249,0.0004347320766,-0.000100717131,0.0003340149456,0.0005899119331,-0.000184752306,0.0004051596271,0.0007607951742,-0.0001073421434,0.0006534530307,0.0007959219887,5.604801772e-05,0.0008519700065,0.0007502847506,-0.0002235610942,0.0005267236563,0.0007595106619,-0.0002272105861,0.0005323000758,0.001179695184,4.012198926e-05,0.001219817173,0.0001999689593,8.424639694e-05,0.0002842153562,0.001223935873,8.678993241e-05,0.001310725805,0.00241118696,9.33793467e-05,0.002504566307,0.003508387576,0.000155242372,0.003663629948,0.001091352985,-5.603046704e-05,0.001035322518,0.001193143287,1.399033254e-05,0.00120713362,0.0008716165166,-1.377901537e-05,0.0008578375013,0.001022773018,3.402879699e-05,0.001056801815,0.0006469109429,-4.512471304e-05,0.0006017862299,0.0001057574341,0.0001607576058,0.00026651504,4.917382565e-05,8.350644952e-05,0.0001326802752,0.001025173329,-8.104296339e-05,0.0009441303658,0.000700081043,-5.235247339e-05,0.0006477285696,0.001524302952,-0.0001271281467,0.001397174806,0.0009786194065,-2.186675452e-05,0.0009567526519,0.003354951192,0.0001734692549,0.003528420447,0.001773832209,1.42311735e-07,0.001773974521,0.004198034146,0.0001083411352,0.004306375281,0.002890553242,-3.9873867e-05,0.002850679375,0.003755481351,9.596503837e-05,0.003851446389,0.001411238453,-2.715817498e-06,0.001408522635,0.003196915847,-3.38618918e-05,0.003163053956,0.00262441407,0.0001277909272,0.002752204997
0.3,-0.000544122109,0.0001919964934,-0.0003521256156,0.0003619761915,-0.0002350107059,0.0001269654855,0.000221794825,9.211389364e-06,0.0002310062143,0.0009152134459,-0.0001231230208,0.0007920904251,0.0007562985076,-0.0002856811952,0.0004706173124,0.0007565036707,-7.189729296e-05,0.0006846063778,0.0004213635435,-0.0001063980635,0.0003149654801,0.0005422881277,-0.0001927095504,0.0003495785773,0.0007466595187,-0.0001091916147,0.000637467904,0.0007767068998,5.726609205e-05,0.0008339729918,0.0007390489142,-0.0002232584866,0.0005157904276,0.0007535881955,-0.0002276408372,0.0005259473582,0.001192346825,4.031506761e-05,0.001232661892,0.0001825698168,8.754399641e-05,0.0002701138132,0.001230558661,8.531986143e-05,0.001315878523,0.002421531852,9.136402246e-05,0.002512895875,0.003544729871,0.0001511735747,0.003695903445,0.001054649992,-5.781688889e-05,0.0009968331032,0.001168594223,8.364182934e-06,0.001176958406,0.0008562638323,-1.875131274e-05,0.0008375125196,0.001027999757,3.264395628e-05,0.001060643713,0.0006601765118,-5.168880127e-05,0.0006084877105,9.996715027e-05,0.000161497792,0.0002614649422,3.411203473e-05,8.745819178e-05,0.0001215702265,0.00102970784,-8.617411922e-05,0.0009435337209,0.0006991102704,-5.401639027e-05,0.0006450938802,0.001549237944,-0.0001392597418,0.001409978202,0.00100461524,-3.022957426e-05,0.0009743856655,0.003404339065,0.0001686748088,0.003573013873,0.001783908721,-1.264681266e-05,0.001771261908,0.004255251213,8.672955775e-05,0.004341980771,0.002890000857,-5.403045852e-05,0.002835970399,0.003804173543,7.954623022e-05,0.003883719773,0.00138222488,-3.106376375e-06,0.001379118503,0.003161480116,-3.910146732e-05,0.003122378649,0.002585862141,0.0001243866505,0.002710248792
0.4,-0.0005654905702,0.0001967794379,-0.0003687111322,0.0003605656297,-0.0002384465001,0.0001221191296,0.0002183084364,6.552430279e-06,0.0002248608667,0.0009142450407,-0.0001293418151,0.0007849032256,0.0007544922462,-0.0002904559695,0.0004640362767,0.0007521502511,-7.976189487e-05,0.0006723883562,0.0004061854913,-0.0001118036655,0.0002943818258,0.0004928346208,-0.0002004638579,0.000292370763,0.0007306885841,-0.0001107313241,0.00061995726,0.0007559504261,5.841407802e-05,0.0008143645041,0.0007250593134,-0.000222743263,0.0005023160504,0.0007467710895,-0.0002281088663,0.0005186622232,0.00120219204,4.137315105e-05,0.001243565191,0.0001644083462,9.056812566e-05,0.0002549764718,0.001234818236,8.381694003e-05,0.001318635176,0.002428754409,8.895668343e-05,0.002517711092,0.00357798182,0.000147013688,0.003724995508,0.001016661224,-5.99234618e-05,0.0009567377626,0.001142374953,2.932708203e-06,0.001145307661,0.0008388005718,-2.387910498e-05,0.0008149214668,0.001029669292,3.064099577e-05,0.001060310288,0.0006712016213,-5.856804466e-05,0.0006126335766,9.188474839e-05,0.0001619822684,0.0002538670168,1.686295043e-05,9.155268724e-05,0.0001084156377,0.001033221408,-9.162161718e-05,0.000941599791,0.0006973924531,-5.549783494e-05,0.0006418946182,0.001575166612,-0.00015352764,0.001421638972,0.00103014596,-3.837006083e-05,0.0009917758992,0.003450092345,0.0001639816793,0.003614074024,0.001791678336,-2.507561749e-05,0.001766602718,0.004308676922,6.557999032e-05,0.004374256912,0.00288696652,-6.774982089e-05,0.002819216699,0.003851833832,6.239116104e-05,0.003914224993,0.001352026641,-3.395345445e-06,0.001348631295,0.003121878985,-4.432454932e-05,0.003077554436,0.00254280782,0.0001203753171,0.002663183137
0.5,-0.0005880189181,0.0002016165458,-0.0003864023723,0.0003578497559,-0.0002415677436,0.0001162820123,0.0002133588565,3.939192341e-06,0.0002172980489,0.0009110371937,-0.0001356665677,0.000775370626,0.0007507310221,-0.0002949388094,0.0004557922127,0.0007456291129,-8.742214933e-05,0.0006582069635,0.0003891858413,-0.0001169243785,0.0002722614628,0.0004416297313,-0.0002079925069,0.0002336372244,0.0007129248816,-0.0001119647533,0.0006009601284,0.0007336332888,5.946401198e-05,0.0007930973007,0.0007083731385,-0.0002220196853,0.0004863534532,0.0007391103114,-0.0002286627638,0.0005104475476,0.001209081097,4.345596876e-05,0.001252537066,0.000145510192,9.333079799e-05,0.00023884099,0.00123665341,8.232960699e-05,0.001318983017,0.002432729036,8.615524394e-05,0.00251888428,0.003607948496,0.0001427803693,0.003750728866,0.0009774406518,-6.238254089e-05,0.0009150581109,0.00111445503,-2.250854471e-06,0.001112204176,0.000819225686,-2.916031254e-05,0.0007900653734,0.001027564998,2.797552065e-05,0.001055540519,0.0006798584814,-6.573241851e-05,0.0006141260629,8.152293672e-05,0.0001622431561,0.0002437660928,-2.530136526e-06,9.579627856e-05,9.326614203e-05,0.001035742221,-9.734506619e-05,0.0009383971548,0.0006948857982,-5.675369894e-05,0.0006381320993,0.001601696284,-0.0001696713761,0.001432024907,0.001054945723,-4.618162871e-05,0.001008764094,0.00349200336,0.0001594454338,0.003651448794,0.001797024363,-3.716314475e-05,0.001759861219,0.004357882314,4.503362666e-05,0.004402915941,0.002881276124,-8.085865583e-05,0.002800417468,0.003898135615,4.474102151e-05,0.003942876636,0.001320619073,-3.583680049e-06,0.001317035393,0.003078205168,-4.949725558e-05,0.003028707913,0.002495201139,0.0001157886982,0.002610989837
0.6,-0.0006117505666,0.0002065035391,-0.0004052470275,0.0003538037507,-0.0002443604282,0.0001094433225,0.0002069530047,1.410554477e-06,0.0002083635592,0.0009054894466,-0.0001420963596,0.000763393087,0.0007449885564,-0.0002991064294,0.000445882127,0.0007369172402,-9.485686363e-05,0.0006420603766,0.0003703524845,-0.0001217581911,0.0002485942934,0.0003887755841,-0.0002152793662,0.0001734962179,0.0006934358418,-0.0001128970701,0.0005805387716,0.0007097522224,6.038675277e-05,0.0007701389751,0.0006890862003,-0.0002210929245,0.0004679932758,0.0007306709538,-0.0002293475625,0.0005013233912,0.001212902795,4.67081732e-05,0.001259610968,0.0001259190935,9.584709051e-05,0.000221766184,0.001236030811,8.090201744e-05,0.001316932828,0.002433353285,8.295701226e-05,0.002516310297,0.003634449775,0.0001384870485,0.003772936823,0.0009370559358,-6.522464495e-05,0.0008718312909,0.001084830048,-7.138835837e-06,0.001077691212,0.0007975530077,-3.459380067e-05,0.0007629592071,0.001021490204,2.460277892e-05,0.001046092983,0.0006860378568,-7.315279326e-05,0.0006128850636,6.894138157e-05,0.000162315271,0.0002312566525,-2.399170579e-05,0.0001001958275,7.620412168e-05,0.001037318531,-0.0001033055438,0.0009340129874,0.000691555611,-5.774687828e-05,0.0006338087327,0.001628364664,-0.0001873433575,0.001441021306,0.001078783493,-5.358167528e-05,0.001025201817,0.003529901006,0.0001551109145,0.003685011921,0.00179987771,-4.89537684e-05,0.001750923942,0.004402468273,2.522495818e-05,0.004427693231,0.002872787285,-9.319616966e-05,0.002779591116,0.003942743747,2.68506461e-05,0.003969594393,0.001288007059,-3.680891977e-06,0.001284326167,0.003030582527,-5.459128819e-05,0.002975991239,0.002443021886,0.0001106707642,0.00255369265
0.7,-0.0006367175962,0.0002114357469,-0.0004252818493,0.0003484231416,-0.0002468141322,0.0001016090095,0.0001991250322,-9.940418192e-07,0.0001981309904,0.0008975170251,-0.0001486306272,0.0007488863979,0.0007372592769,-0.0003029359524,0.0004343233245,0.0007260132482,-0.0001020470313,0.0006239662169,0.0003496753942,-0.0001263107782,0.000223364616,0.0003343985327,-0.0002223141297,0.000112084403,0.0006723164781,-0.0001135352669,0.0005587812112,0.0006843227232,6.115219715e-05,0.0007454749203,0.0006673357031,-0.0002199696145,0.0004473660886,0.00072153187,-0.0002302030989,0.0004913287711,0.001213591563,5.125225189e-05,0.001264843815,0.0001056986887,9.813411881e-05,0.0002038328075,0.001232946794,7.957259714e-05,0.001312519392,0.002430551527,7.935895719e-05,0.002509910484,0.003657324132,0.0001341426109,0.003791466743,0.0008955907967,-6.847727985e-05,0.0008271135169,0.001053525137,-1.169004464e-05,0.001041835092,0.0007738130673,-4.01797444e-05,0.0007336333229,0.001011272548,2.047804029e-05,0.001031750588,0.0006896519752,-8.080166232e-05,0.0006088503129,5.424908403e-05,0.0001622357906,0.0002164848747,-4.741270372e-05,0.0001047587492,5.734604544e-05,0.001038021161,-0.0001094668638,0.000928554297,0.0006873790627,-5.844842416e-05,0.0006289306385,0.001654655217,-0.0002061148152,0.001448540402,0.001101467016,-6.051204931e-05,0.001040954966,0.003563651932,0.0001510133212,0.003714665253,0.001800216213,-6.051127599e-05,0.001739704937,0.004442072635,6.280298195e-06,0.004448352933,0.002861396767,-0.0001046192652,0.002756777501,0.003985327439,8.979094191e-06,0.003994306533,0.001254230314,-3.705642469e-06,0.001250524671,0.002979169933,-5.958726718e-05,0.002919582666,0.00238628409,0.0001050775344,0.002491361625
0.8,-0.0006629390291,0.000216408079,-0.0004465309501,0.0003417245609,-0.0002489218392,9.280272173e-05,0.000189937128,-3.235206365e-06,0.0001867019216,0.0008870538304,-0.0001552689432,0.0007317848872,0.0007275604345,-0.0003064055293,0.0004211549052,0.0007129375765,-0.0001089739932,0.0006039635833,0.0003271480226,-0.000130595269,0.0001965527536,0.0002786486771,-0.0002290914657,4.955721135e-05,0.0006496898646,-0.000113888239,0.0005358016256,0.0006573799893,6.17296299e-05,0.0007191096192,0.0006432996178,-0.0002186583235,0.0004246412943,0.0007117842501,-0.0002312620766,0.0004805221735,0.001211132036,5.718225748e-05,0.001268314294,8.4932682e-05,0.0001002103582,0.0001851430402,0.001227427807,7.837304386e-05,0.00130580085,0.002424277212,7.535846604e-05,0.002499635678,0.003676431193,0.0001297512498,0.003806182443,0.0008531463195,-7.216375513e-05,0.0007809825644,0.001020596631,-1.587061098e-05,0.00100472602,0.0007480543686,-4.591999247e-05,0.0007021343762,0.0009967666726,1.555709327e-05,0.001012323766,0.0006906365489,-8.865380774e-05,0.0006019827411,3.760295367e-05,0.0001620435218,0.0001996464755,-7.265171091e-05,0.0001094928555,3.684114459e-05,0.001037944097,-0.0001157961588,0.0009221479377,0.0006823489069,-5.883920397e-05,0.0006235097029,0.001680010343,-0.0002254834462,0.001454526897,0.001122843664,-6.693806973e-05,0.001055905594,0.003593159422,0.0001471795947,0.003740339016,0.001798060879,-7.19104567e-05,0.001726150423,0.004476375583,-1.16842277e-05,0.004464691356,0.002847046119,-0.0001150069207,0.002732039198,0.004025572396,-8.620167677e-06,0.004016952228,0.001219365068,-3.685262331e-06,0.001215679806,0.002924163598,-6.447824522e-05,0.002859685353,0.002325041051,9.90744136e-05,0.002424115464
0.9,-0.0006904197605,0.0002214149911,-0.0004690047694,0.0003337455749,-0.0002506797367,8.306583815e-05,0.0001794788558,-5.27423841e-06,0.0001742046174,0.0008740543117,-0.000162010639,0.0007120436727,0.0007159324135,-0.0003094949728,0.0004064374407,0.0006977318573,-0.000115617981,0.0005821138763,0.0003027681743,-0.0001346315968,0.0001681365775,0.0002216981717,-0.0002356100137,-1.391184193e-05,0.0006257054793,-0.0001139667711,0.0005117387082,0.0006289781757,6.208817009e-05,0.0006910663458,0.0006171928824,-0.0002171698933,0.000400022989,0.0007015291337,-0.0002325485188,0.0004689806148,0.001205561202,6.455833978e-05,0.001270119542,6.372336732e-05,0.0001020953176,0.0001658186849,0.001219529177,7.732789962e-05,0.001296857077,0.002414512791,7.095473114e-05,0.002485467522,0.00369165263,0.0001253124816,0.003816965112,0.000809841144,-7.630230611e-05,0.0007335388378,0.0009861314662,-1.965484428e-05,0.000966476622,0.0007203440669,-5.181848341e-05,0.0006685255835,0.0009778554193,9.796744199e-06,0.0009876521635,0.000688951785,-9.668690715e-05,0.0005922648779,1.920313492e-05,0.0001617778699,0.0001809810048,-9.953815098e-05,0.0001144060387,1.486788772e-05,0.001037203034,-0.0001222640709,0.0009149389634,0.0006764755602,-5.891083571e-05,0.0006175647245,0.001703845065,-0.0002448851668,0.001458959898,0.001142797859,-7.284628233e-05,0.001069951577,0.003618360579,0.0001436295155,0.003761990095,0.001793470043,-8.322781627e-05,0.001710242227,0.004505102958,-2.856501049e-05,0.004476537947,0.002829724831,-0.0001242631751,0.002705461656,0.004063191814,-2.570925568e-05,0.004037482559,0.001183521619,-3.654264322e-06,0.001179867355,0.002865796849,-6.92719634e-05,0.002796524886,0.002259389752,9.273156227e-05,0.002352121314
1.0,-0.000719150149,0.000226450526,-0.000492699623,0.0003245435406,-0.0002520869476,7.245659298e-05,0.0001678652071,-7.073733194e-06,0.000160791474,0.0008584944207,-0.0001688543301,0.0006896400905,0.0007024377569,-0.0003121862724,0.0003902514845,0.0006804578701,-0.0001219573986,0.0005585004715,0.000276538812,-0.0001384455476,0.0001380932644,0.0001637387419,-0.0002418713916,-7.813264977e-05,0.0006005361206,-0.0001137834498,0.0004867526708,0.000599188659,6.219725409e-05,0.0006613859131,0.0005892616815,-0.0002155176624,0.0003737440191,0.0006908743737,-0.0002340767972,0.0004567975765,0.001196968206,7.340215811e-05,0.001270370364,4.21889535e-05,0.0001038094271,0.0001459983806,0.001209332699,7.64546801e-05,0.001285787379,0.002401267412,6.615060539e-05,0.002467418017,0.003702891764,0.0001208213079,0.003823713072,0.0007658109843,-8.090564282e-05,0.0006849053415,0.0009502445893,-2.302593162e-05,0.0009272186577,0.0006907680157,-5.788159618e-05,0.0006328864195,0.0009544501938,3.155333606e-06,0.0009576055274,0.000684582487,-0.0001048819669,0.0005797005201,-7.133874524e-07,0.0001614777585,0.0001607643711,-0.0001278765388,0.0001195059258,-8.370613018e-06,0.001035932299,-0.0001288447532,0.0009070875459,0.0006697876012,-5.866588445e-05,0.0006111217167,0.001725564629,-0.0002637114997,0.001461853129,0.001161245603,-7.82411135e-05,0.00108300449,0.003639222874,0.0001403761686,0.003779599043,0.001786532232,-9.453247074e-05,0.001691999762,0.004528027571,-4.427308767e-05,0.004483754484,0.002809470866,-0.0001323188002,0.002677152065,0.004097935725,-4.207523877e-05,0.004055860486,0.001146839083,-3.652652916e-06,0.00114318643,0.002804337591,-7.399146327e-05,0.002730346127,0.002189473326,8.61189508e-05,0.002275592276
1.1,-0.0007491059891,0.0002315084477,-0.0005175975413,0.0003141937287,-0.0002531450864,6.104864232e-05,0.0001552339231,-8.598201521e-06,0.0001466357216,0.0008403722262,-0.0001757975008,0.0006645747253,0.0006871598429,-0.0003144639706,0.0003726958723,0.0006611964837,-0.0001279688284,0.0005332276553,0.0002484692571,-0.0001420676932,0.0001064015639,0.0001049792539,-0.0002478795551,-0.0001429003012,0.000574374477,-0.0001133525036,0.0004610219734,0.0005680983108,6.202715329e-05,0.0006301254641,0.0005597776211,-0.0002137175738,0.0003460600473,0.0006799317683,-0.0002358512823,0.000444080486,0.001185491738,8.369386978e-05,0.001269185608,2.046038966e-05,0.0001053740596,0.0001258344492,0.001196943423,7.576467479e-05,0.001272708098,0.002384573401,6.095454083e-05,0.002445527941,0.00371007256,0.0001162686648,0.003826341224,0.0007212079413,-8.598067044e-05,0.0006352272709,0.0009130753867,-2.597637124e-05,0.0008870990155,0.0006594302108,-6.411820983e-05,0.0005953120009,0.0009264914454,-4.406620389e-06,0.0009220848251,0.0006775375911,-0.000113223455,0.0005643141361,-2.187883756e-05,0.0001611807645,0.0001393019269,-0.0001574504372,0.0001247996385,-3.265079874e-05,0.001034280828,-0.0001355156773,0.0008987651503,0.0006623311316,-5.811746806e-05,0.0006042136635,0.001744585365,-0.0002813306679,0.001463254697,0.001178127515,-8.3140637e-05,0.001094986878,0.003655740999,0.0001374257797,0.003793166779,0.001777359489,-0.0001058781652,0.001671481324,0.004544969626,-5.873577367e-05,0.004486233852,0.002786369241,-0.0001391322464,0.002647236995,0.004129598156,-5.753765985e-05,0.004072060496,0.00110947953,-3.724532563e-06,0.001105754998,0.002740084584,-7.867458886e-05,0.002661409995,0.00211548158,7.930202076e-05,0.002194783601
1.2,-0.0007802484044,0.0002365824067,-0.0005436659977,0.0003027874501,-0.0002538577009,4.892974919e-05,0.0001417427758,-9.814758805e-06,0.000131928017,0.0008197088969,-0.0001828362923,0.0006368726046,0.0006702022489,-0.0003163154346,0.0003538868143,0.0006400469008,-0.000133627464,0.0005064194368,0.0002185771183,-0.0001455323737,7.304474451e-05,4.564390795e-05,-0.0002536407371,-0.0002079968291,0.0005474304838,-0.0001126895784,0.0004347409055,0.0005358087321,6.15495474e-05,0.0005973582795,0.0005290335549,-0.0002117881744,0.0003172453805,0.0006688150085,-0.0002378665041,0.0004309485044,0.001171315548,9.537141291e-05,0.001266686961,-1.321465668e-06,0.000106811609,0.0001054901433,0.001182486188,7.526454804e-05,0.001257750736,0.002364482927,5.538216883e-05,0.002419865096,0.003713138841,0.0001116423985,0.003824781239,0.0006762000246,-9.152801793e-05,0.0005846720067,0.0008747844708,-2.850812976e-05,0.0008462763411,0.0006264519182,-7.053940474e-05,0.0005559125134,0.0008939502165,-1.292561969e-05,0.0008810245968,0.0006678497204,-0.0001216991809,0.0005461505395,-4.39986688e-05,0.0001609226257,0.0001169239569,-0.000188024981,0.0001302937017,-5.773127936e-05,0.001032408136,-0.0001422572383,0.0008901508975,0.000654168401,-5.728828385e-05,0.0005968801172,0.001760356114,-0.0002971090703,0.001463247044,0.001193402472,-8.757218563e-05,0.001105830286,0.003667934565,0.0001347772139,0.003802711779,0.001766083148,-0.0001172975741,0.001648785574,0.00455579771,-7.18978844e-05,0.004483899825,0.002760550337,-0.0001446903911,0.002615859946,0.004158021969,-7.195303081e-05,0.004086068938,0.001071623389,-3.916650772e-06,0.001067706738,0.002673363453,-8.33726468e-05,0.002589990806,0.002037651079,7.233795747e-05,0.002109989036
1.3,-0.0008125233035,0.0002416660805,-0.000570857223,0.0002904310428,-0.0002542298253,3.620121753e-05,0.0001275672567,-1.06938631e-05,0.0001168733935,0.0007965504676,-0.0001899654973,0.0006065849703,0.0006516893422,-0.0003177310745,0.0003339582678,0.0006171264819,-0.0001389077182,0.0004782187637,0.0001868909266,-0.0001488768505,3.801407612e-05,-1.402894274e-05,-0.0002591639751,-0.0002731929179,0.0005199300439,-0.0001118115307,0.0004081185132,0.0005024368221,6.073811242e-05,0.0005631749345,0.0004973417431,-0.0002097505693,0.0002875911739,0.0006576386324,-0.0002401076201,0.0004175310124,0.001154663381,0.0001083319362,0.001262995317,-2.300773099e-05,0.0001081454617,8.513773071e-05,0.001166102513,7.495841005e-05,0.001241060923,0.002341065899,4.945719899e-05,0.002390523098,0.003712054294,0.0001069289396,0.003818983233,0.0006309711853,-9.754125169e-05,0.0005334299336,0.0008355517328,-3.063251035e-05,0.0008049192224,0.0005919709022,-7.715797461e-05,0.0005148129276,0.0008568311304,-2.243431858e-05,0.0008343968118,0.0006555752061,-0.0001303001066,0.0005252750995,-6.675347264e-05,0.0001607370799,9.398360731e-05,-0.000219347847,0.0001359940325,-8.335381448e-05,0.001030481055,-0.0001490522595,0.0008814287952,0.0006453759922,-5.620900506e-05,0.0005891669871,0.001772379533,-0.0003104317227,0.00146194781,0.001207043673,-9.156890489e-05,0.001115474768,0.003675846697,0.0001324214795,0.003808268177,0.001752852125,-0.0001287994094,0.001624052715,0.004560431073,-8.372286326e-05,0.00447670821,0.002732189871,-0.0001490094302,0.00258318044,0.004183101618,-8.521584462e-05,0.004097885773,0.001033466805,-4.276378331e-06,0.001029190427,0.002604522932,-8.814829789e-05,0.002516374635,0.001956265713,6.527265146e-05,0.002021538365
1.4,-0.0008458604399,0.0002467533147,-0.0005991071252,0.000277245927,-0.0002542678348,2.29780922e-05,0.0001128985901,-1.12100394e-05,0.0001016885507,0.0007709701749,-0.0001971786218,0.0005737915531,0.0006317675905,-0.0003187045931,0.0003130629975,0.000592571205,-0.0001437840203,0.0004487871847,0.0001534529256,-0.0001521406857,1.312239847e-06,-7.378777641e-05,-0.0002644620551,-0.0003382498315,0.0004921145896,-0.0001107363718,0.0003813782178,0.0004681160908,5.956903131e-05,0.0005276851221,0.0004650332711,-0.0002076284364,0.0002574048347,0.0006465176682,-0.0002425511297,0.0004039665385,0.001135794369,0.0001224345618,0.001258228931,-4.444253952e-05,0.0001093996929,6.495715334e-05,0.001147948287,7.484956844e-05,0.001222797856,0.002314409188,4.321161984e-05,0.002357620808,0.003706802913,0.0001021156577,0.003808918571,0.0005857215787,-0.0001040059308,0.0004817156479,0.0007955755437,-3.236976847e-05,0.0007632057752,0.0005561408586,-8.398791609e-05,0.0004721529425,0.0008151762205,-3.296066707e-05,0.0007822155534,0.0006407944418,-0.0001390201746,0.0005017742673,-8.980045647e-05,0.0001606558186,7.085536214e-05,-0.0002511497928,0.0001419058973,-0.0001092438955,0.001028671211,-0.0001558854289,0.0008727857823,0.0006360428634,-5.491628542e-05,0.000581126578,0.00178023374,-0.0003207225211,0.001459511219,0.001219037435,-9.516781652e-05,0.001123869618,0.003679542921,0.0001303416453,0.003809884566,0.001737832013,-0.00014036766,0.001597464353,0.004558842641,-9.419404889e-05,0.004464648592,0.00270151091,-0.0001521358449,0.002549375065,0.00420478377,-9.725653476e-05,0.004107527235,0.0009952202496,-4.849377531e-06,0.0009903708721,0.002533931813,-9.307342662e-05,0.002440858386,0.001871657179,5.813852387e-05,0.001929795703
1.5,-0.0008801724877,0.0002518383186,-0.000628334169,0.000263369054,-0.0002539795765,9.389477528e-06,9.794155315e-05,-1.13425681e-05,8.659898505e-05,0.0007430707173,-0.0002044679223,0.000538602795,0.0006106063332,-0.0003192333675,0.0002913729657,0.0005665363458,-0.000148231887,0.0004183044588,0.0001183211937,-0.0001553653116,-3.704411789e-05,-0.0001333692614,-0.0002695525806,-0.000402921842,0.0004642401641,-0.0001094834001,0.0003547567641,0.0004329975299,5.802138654e-05,0.0004910189164,0.0004324566204,-0.000205448133,0.0002270084875,0.0006355675254,-0.0002451660407,0.0003904014847,0.001114998912,0.0001375038468,0.001252502759,-6.546391515e-05,0.0001105984432,4.513452809e-05,0.001128192151,7.494136848e-05,0.00120313352,0.002284616563,3.66853852e-05,0.002321301948,0.003697388986,9.719350335e-05,0.00379458249,0.0005406671662,-0.0001108988272,0.000429768339,0.0007550721334,-3.374856549e-05,0.0007213235679,0.0005191306719,-9.104385673e-05,0.0004280868151,0.0007690684119,-4.452700998e-05,0.0007245414019,0.0006236119427,-0.0001478560655,0.0004757558772,-0.0001127765863,0.0001607083121,4.793172581e-05,-0.0002831462658,0.000148033761,-0.0001351125048,0.001027152335,-0.0001627425195,0.0008644098156,0.0006262683631,-5.345083869e-05,0.0005728175244,0.001783592899,-0.0003274652474,0.001456127652,0.001229383517,-9.840898474e-05,0.001130974532,0.00367910939,0.0001285136115,0.003807623001,0.001721203509,-0.0001519616506,0.001569241859,0.004551061129,-0.0001033158351,0.004447745294,0.002668785701,-0.0001541466097,0.002514639092,0.004223065197,-0.0001080371192,0.004115028078,0.0009571072025,-5.677704635e-06,0.0009514294979,0.002461976368,-9.822779686e-05,0.002363748571,0.001784204483,5.095299145e-05,0.001835157475
1.6,-0.0009153545524,0.0002569159118,-0.0006584386406,0.0002489528279,-0.0002533745804,-4.421752495e-06,8.291157933e-05,-1.107615108e-05,7.183542825e-05,0.0007129858958,-0.0002118244644,0.0005011614314,0.0005883969907,-0.0003193189864,0.0002690780043,0.0005391966909,-0.0001522291588,0.0003869675321,8.157060947e-05,-0.0001585936452,-7.70230357e-05,-0.000192500383,-0.0002744588124,-0.0004669591954,0.0004365748969,-0.0001080734186,0.0003285014784,0.0003972491055,5.60774927e-05,0.0004533265982,0.0003999738214,-0.0002032387983,0.0001967350231,0.0006249036945,-0.0002479155943,0.0003769881003,0.001092594605,0.0001533338347,0.00124592844,-8.590516271e-05,0.0001117650964,2.585993373e-05,0.001107014089,7.523711211e-05,0.001182251201,0.002251808615,2.992565728e-05,0.002281734272,0.003683836031,9.215924636e-05,0.003775995277,0.0004960380052,-0.000118187741,0.0003778502642,0.0007142741091,-3.480530761e-05,0.0006794688015,0.0004811229962,-9.834029814e-05,0.000382782698,0.0007186337144,-5.714904812e-05,0.0006614846663,0.0006041555512,-0.0001568067826,0.0004473487686,-0.0001353045115,0.0001609213674,2.561685582e-05,-0.0003150409571,0.0001543810116,-0.0001606599455,0.001026096367,-0.0001696092679,0.0008564870986,0.0006161600328,-5.185588449e-05,0.0005643041483,0.001782243279,-0.0003302239599,0.001452019319,0.001238095447,-0.0001013350381,0.001136760409,0.003674650108,0.0001269077165,0.003801557825,0.001703159763,-0.0001635162743,0.001539643489,0.004537170445,-0.0001111139874,0.004426056458,0.002634334304,-0.0001551476764,0.002479186628,0.004237987628,-0.0001175452213,0.004120442407,0.0009193622203,-6.798727258e-06,0.0009125634931,0.002389056961,-0.0001036981676,0.002285358794,0.001694332395,4.371717522e-05,0.00173804957
1.7,-0.0009512842785,0.000261981747,-0.0006893025315,0.0002341640096,-0.0002524642211,-1.830021148e-05,6.803093752e-05,-1.040152459e-05,5.762941292e-05,0.0006808814058,-0.0002192382451,0.0004616431607,0.0005653504618,-0.0003189678366,0.0002463826253,0.0005107458946,-0.0001557572124,0.0003549886823,4.329273411e-05,-0.0001618695845,-0.0001185768504,-0.0002509014296,-0.0002792099978,-0.0005301114274,0.0004093945683,-0.0001065288865,0.0003028656818,0.0003610536578,5.37232567e-05,0.0004147769145,0.000367953959,-0.0002010323262,0.0001669216327,0.0006146408035,-0.0002507592578,0.0003638815457,0.001068921741,0.0001696928775,0.001238614619,-0.0001055970403,0.0001129214421,7.324401827e-06,0.001084603751,7.573931269e-05,0.001160343064,0.002216122222,2.298556532e-05,0.002239107788,0.00366618471,8.701685341e-05,0.003753201563,0.0004520753706,-0.0001258322255,0.0003262431451,0.0006734276212,-3.558338022e-05,0.000637844241,0.0004423119622,-0.0001058907142,0.000336421248,0.0006640419027,-7.083469564e-05,0.000593207207,0.0005825746871,-0.0001658731227,0.0004167015644,-0.0001570010936,0.0001613184101,4.317316583e-06,-0.0003465312701,0.0001609495716,-0.0001855816984,0.001025668086,-0.0001764700956,0.0008491979899,0.0006058310861,-5.017600709e-05,0.000555655079,0.001776091061,-0.0003286591478,0.001447431913,0.001245200028,-0.0001039906797,0.001141209348,0.003666283458,0.0001254906066,0.003791774065,0.001683903259,-0.0001749431429,0.001508960116,0.004517306013,-0.0001176347284,0.004399671285,0.002598518923,-0.0001552707836,0.002443248139,0.004249630061,-0.0001257872974,0.004123842764,0.0008822281828,-8.244640661e-06,0.0008739835422,0.002315582276,-0.000109576636,0.00220600564,0.001602508748,3.641486416e-05,0.001638923613
1.8,-0.0009878225148,0.0002670324984,-0.0007207900164,0.0002191815893,-0.0002512618285,-3.208023923e-05,5.352409402e-05,-9.315934584e-06,4.420815944e-05,0.000646954737,-0.0002266983007,0.0004202564363,0.0005416930828,-0.0003181915576,0.0002235015251,0.0004813950758,-0.0001588020818,0.000322592994,3.595030933e-06,-0.0001652373074,-0.0001616422764,-0.0003082897049,-0.0002838410879,-0.0005921307928,0.0003829767334,-0.0001048739368,0.0002781027967,0.00032460565,5.094858653e-05,0.0003755542366,0.0003367649454,-0.0001988631599,0.0001379017854,0.0006048910163,-0.0002536546411,0.0003512363752,0.001044337915,0.0001863293834,0.001230667298,-0.0001243706061,0.0001140869782,-1.028362797e-05,0.001061158403,7.644844527e-05,0.001137606848,0.002177709452,1.592252858e-05,0.002193631981,0.003644489875,8.177819391e-05,0.003726268069,0.0004090282282,-0.0001337851108,0.0002752431174,0.0006327883115,-3.613234669e-05,0.0005966559648,0.000402900216,-0.00011370671,0.000289193506,0.0006055061239,-8.558298185e-05,0.0005199231421,0.0005590379506,-0.0001750572021,0.0003839807485,-0.0001774873496,0.0001619186238,-1.55687258e-05,-0.0003773149446,0.0001677394651,-0.0002095754795,0.001026018948,-0.000183307189,0.0008427117594,0.0005953978096,-4.845641716e-05,0.0005469413924,0.001765160054,-0.0003225367092,0.001442623345,0.001250735973,-0.0001064220334,0.00114431394,0.003654138403,0.0001242269584,0.003778365362,0.00166364323,-0.0001861337159,0.001477509514,0.004491649357,-0.0001229429994,0.004368706358,0.002561735297,-0.0001546696309,0.002407065667,0.004258099228,-0.000132781989,0.004125317239,0.0008459530398,-1.004227269e-05,0.0008359107671,0.002241960393,-0.0001159572206,0.002126003173,0.001509239795,2.901228565e-05,0.001538252081
1.9,-0.0010248144,0.0002720660979,-0.0007527483018,0.0002041938555,-0.0002497827157,-4.558886022e-05,3.961262498e-05,-7.823421647e-06,3.178920333e-05,0.0006114342965,-0.0002341926834,0.000377241613,0.0005176619428,-0.0003170072384,0.0002006547045,0.0004513708518,-0.0001613554468,0.0002900154049,-3.740005192e-05,-0.0001687404384,-0.0002061404903,-0.0003643836665,-0.0002883919177,-0.0006527755842,0.0003575944432,-0.0001031342995,0.0002544601437,0.0002881076744,4.774779294e-05,0.0003358554674,0.0003067652026,-0.0001967679518,0.0001099972508,0.000595762422,-0.0002565593417,0.0003392030802,0.00101921151,0.0002029783954,0.001222189905,-0.0001420603482,0.0001152784206,-2.678192758e-05,0.001036880812,7.736129262e-05,0.001114242105,0.002136736209,8.7962708e-06,0.002145532479,0.003618816998,7.646359672e-05,0.003695280595,0.0003671495667,-0.0001419944169,0.0002251551499,0.0005926166447,-3.6507224e-05,0.0005561094207,0.0003630957088,-0.0001217973764,0.0002412983323,0.000543282281,-0.0001013830854,0.0004418991956,0.0005337305547,-0.0001843620897,0.000349368465,-0.0001963979677,0.0001627362183,-3.366174933e-05,-0.0004070965876,0.0001747484882,-0.0002323480994,0.001027281411,-0.0001901004508,0.0008371809603,0.0005849772817,-4.674252248e-05,0.0005382347593,0.001749581144,-0.0003117302623,0.001437850881,0.001254751801,-0.0001086753387,0.001146076462,0.003638350854,0.0001230810841,0.003761431938,0.001642594213,-0.0001969643729,0.00144562984,0.00446042238,-0.0001271205021,0.004333301878,0.002524403034,-0.0001535162502,0.002370886783,0.004263518808,-0.0001385541515,0.004124964657,0.0008107869525,-1.221314643e-05,0.0007985738061,0.002168587392,-0.0001229306211,0.002045656771,0.001415062995,2.145946137e-05,0.001436522457
2.0,-0.001062090596,0.000277082095,-0.0007850085013,0.0001893950184,-0.0002480439816,-5.864896328e-05,2.651026677e-05,-5.934947289e-06,2.057531948e-05,0.0005745781487,-0.0002417083,0.0003328698487,0.0004935006267,-0.0003154373542,0.0001780632726,0.0004209129246,-0.000163415389,0.0002574975356,-7.955564064e-05,-0.0001724212318,-0.0002519768724,-0.0004189070268,-0.0002929060723,-0.0007118130991,0.0003335108078,-0.000101337198,0.0002321736098,0.0002517677604,4.411991682e-05,0.0002958876773,0.0002782970616,-0.0001947851439,8.351191773e-05,0.000587358138,-0.0002594328908,0.0003279252472,0.0009939150612,0.0002193683839,0.001213283445,-0.0001585069941,0.0001165093715,-4.199762264e-05,0.00101197764,7.846910625e-05,0.001090446746,0.002093381238,1.666655032e-06,0.002095047893,0.003589238742,7.110245189e-05,0.003660341193,0.0003266932196,-0.0001504053799,0.0001762878397,0.0005531734824,-3.676785628e-05,0.0005164056262,0.0003231086589,-0.0001301687779,0.000192939881,0.0004776690738,-0.0001182134454,0.0003594556284,0.0005068520199,-0.0001937914141,0.0003130606058,-0.0002133885058,0.0001637801127,-4.960839303e-05,-0.0004355927957,0.0001819721351,-0.0002536206606,0.001029564994,-0.0001968284577,0.0008327365366,0.0005746856782,-4.507956346e-05,0.0005296061148,0.001729578013,-0.0002962199073,0.001433358106,0.001257303068,-0.0001107943235,0.001146508745,0.003619061164,0.0001220183615,0.003741079526,0.001620975522,-0.0002073025115,0.00141367301,0.0044238822,-0.0001302637237,0.004293618476,0.002486955774,-0.0001519974923,0.002334958282,0.004266018252,-0.0001431296593,0.004122888592,0.0007769807739,-1.477394951e-05,0.0007622068243,0.00209583571,-0.0001305778571,0.001965257853,0.001320537724,1.369374059e-05,0.001334231464
2.1,-0.001099468318,0.0002820820872,-0.0008173862306,0.0001749818035,-0.0002460640188,-7.108221533e-05,1.441872632e-05,-3.668423594e-06,1.075030273e-05,0.000536672897,-0.0002492307272,0.0002874421698,0.0004694562638,-0.0003135095611,0.0001559467027,0.0003902713625,-0.0001649868453,0.0002252845172,-0.0001227203716,-0.0001763199019,-0.0002990402735,-0.0004715923178,-0.0002974297335,-0.0007690220513,0.0003109751816,-9.951124876e-05,0.0002114639328,0.0002157980778,4.006896039e-05,0.0002558670382,0.0002516828427,-0.000192954505,5.872833775e-05,0.0005797763738,-0.0002622387905,0.0003175375832,0.0009688204543,0.0002352273266,0.001204047781,-0.0001735595533,0.0001177900379,-5.576951535e-05,0.0009866586328,7.975589441e-05,0.001066414527,0.002047835916,-5.408463811e-06,0.002042427452,0.003555832765,6.573354725e-05,0.003621566313,0.0002879117424,-0.0001589624991,0.0001289492433,0.0005147166161,-3.697821805e-05,0.000477738398,0.0002831489732,-0.0001388234577,0.0001443255154,0.0004090090716,-0.0001360408726,0.000272968199,0.0004786143839,-0.0002033488151,0.0002752655688,-0.0002281394974,0.0001650540993,-6.308539816e-05,-0.0004625352651,0.0001894037833,-0.0002731314819,0.001032954702,-0.0002034700391,0.0008294846631,0.0005646372988,-4.351211839e-05,0.0005211251804,0.001705453001,-0.0002760898352,0.001429363166,0.00125844939,-0.0001128162884,0.001145633101,0.003596413626,0.0001210061708,0.003717419796,0.001599011145,-0.0002170128347,0.00138199831,0.004382317099,-0.0001324817719,0.004249835327,0.002449831296,-0.000150311093,0.002299520203,0.004265722812,-0.0001465313531,0.004119191459,0.0007447862682,-1.773754523e-05,0.0007270487229,0.002024045058,-0.0001389638406,0.001885081218,0.001226235194,5.645403244e-06,0.001231880597
2.2,-0.001136751965,0.0002870700992,-0.0008496818661,0.0001611502997,-0.0002438618357,-8.271153596e-05,3.524484411e-06,-1.048664016e-06,2.475820395e-06,0.0004980328585,-0.0002567440809,0.0002412887775,0.0004457778651,-0.0003112564875,0.0001345213776,0.0003597037263,-0.0001660817948,0.0001936219315,-0.0001667279453,-0.0001804741518,-0.000347202097,-0.0005221837499,-0.0003020106989,-0.0008241944488,0.0002902206902,-9.768637487e-05,0.0001925343154,0.0001804146714,3.560403814e-05,0.0002160187095,0.0002272229323,-0.0001913166551,3.590627721e-05,0.000573111212,-0.0002649464288,0.0003081647832,0.0009442967299,0.0002502877762,0.001194584506,-0.0001870766807,0.0001191269229,-6.794975784e-05,0.0009611363303,8.11970547e-05,0.001042333385,0.002000304661,-1.237510639e-05,0.001987929555,0.003518681361,6.040461605e-05,0.003579085977,0.0002510551508,-0.0001676113876,8.344376313e-05,0.0004774982678,-3.72052754e-05,0.0004402929924,0.000243424206,-0.0001477599906,9.566421539e-05,0.0003376902806,-0.0001548197079,0.0001828705728,0.0004492409126,-0.0002130373189,0.0002362035938,-0.0002403585713,0.0001665572572,-7.380131419e-05,-0.0004876725396,0.0001970349597,-0.0002906375799,0.001037511348,-0.0002100056565,0.0008275056919,0.0005549442964,-4.208354333e-05,0.0005128607531,0.001677574322,-0.0002515249175,0.001426049404,0.001258252167,-0.0001147680574,0.00114348411,0.003570557819,0.0001200142078,0.003690572027,0.001576929962,-0.0002259633552,0.001350966607,0.004336043276,-0.0001338936223,0.004202149654,0.002413461582,-0.0001486610272,0.002264800555,0.004262746617,-0.0001487771619,0.004113969456,0.0007144576087,-2.111443821e-05,0.0006933431705,0.001953517352,-0.0001481319416,0.001805385411,0.001132728921,-2.755728968e-06,0.001129973192
2.3,-0.00117373362,0.0002920528652,-0.000881680755,0.0001480930568,-0.0002414563785,-9.336332173e-05,-6.003811908e-06,1.892777654e-06,-4.111034254e-06,0.0004589990285,-0.000264230876,0.0001947681525,0.0004227148755,-0.0003087155963,0.0001139992792,0.0003294721183,-0.0001667193687,0.0001627527496,-0.0002113970189,-0.0001849188665,-0.0003963158854,-0.0005704397626,-0.0003066975448,-0.0008771373073,0.0002714619991,-9.589375529e-05,0.0001755682438,0.0001458371609,3.073945525e-05,0.0001765766161,0.0002051940376,-0.0001899126205,1.528141709e-05,0.0005674536011,-0.000267532712,0.0002999208891,0.0009207088072,0.0002642915891,0.001185000396,-0.0001989278727,0.0001205224312,-7.840544149e-05,0.000935625567,8.275846104e-05,0.001018384028,0.001951005159,-1.91845847e-05,0.001931820575,0.003477872618,5.517065156e-05,0.00353304327,0.0002163694031,-0.0001763000703,4.006933281e-05,0.0004417626449,-3.751703447e-05,0.0004042456105,0.0002041379331,-0.0001569727174,4.716521574e-05,0.0002641470678,-0.000174491167,8.965590077e-05,0.0004189650217,-0.000222858836,0.0001961061857,-0.0002497827341,0.0001682842815,-8.149845261e-05,-0.0005107718072,0.0002048555009,-0.0003059163063,0.001043272544,-0.0002164178254,0.0008268547189,0.0005457167513,-4.083550695e-05,0.0005048812443,0.001646364312,-0.0002228057392,0.001423558572,0.001256773731,-0.0001166633189,0.001140110412,0.003541650489,0.0001190145006,0.003660664989,0.001554966199,-0.0002340307822,0.001320935417,0.004285400904,-0.000134624437,0.004150776467,0.002378263103,-0.0001472523819,0.002231010721,0.004257189401,-0.0001498811559,0.004107308245,0.0006862528723,-2.491426819e-05,0.0006613386041,0.001884514994,-0.0001581002378,0.001726414757,0.001040586317,-1.157409105e-05,0.001029012226
2.4,-0.001210193899,0.0002970400811,-0.0009131538179,0.0001359962078,-0.000238865985,-0.0001028697773,-1.401803172e-05,5.117911857e-06,-8.90011986e-06,0.0004199371228,-0.0002716717899,0.0001482653329,0.0004005146945,-0.000305929091,9.458560356e-05,0.0002998400729,-0.0001669260612,0.0001329140117,-0.0002565321133,-0.0001896858977,-0.000446218011,-0.0006161358117,-0.0003115388162,-0.0009276746279,0.0002548923022,-9.416581163e-05,0.0001607264906,0.0001122874499,2.549470416e-05,0.0001377821541,0.0001858461046,-0.0001887834295,-2.937324934e-06,0.000562892043,-0.0002699834465,0.0002929085965,0.0008984143341,0.0002769953133,0.001175409647,-0.0002089949813,0.0001219743759,-8.702060549e-05,0.0009103421805,8.439613811e-05,0.0009947383186,0.001900167391,-2.579440369e-05,0.001874372988,0.003433502298,5.009093156e-05,0.00348359323,0.0001840935047,-0.0001849795349,-8.860302105e-07,0.0004077424363,-3.797981957e-05,0.0003697626167,0.0001654882663,-0.0001664517023,-9.634360061e-07,0.0001888594361,-0.0001949829306,-6.123494441e-06,0.0003880289599,-0.0002328138358,0.0001552151241,-0.0002561823151,0.000170225551,-8.595676411e-05,-0.0005316218303,0.0002128535775,-0.0003187682527,0.001050253311,-0.0002226906004,0.0008275627106,0.0005370623719,-3.980751516e-05,0.0004972548567,0.001612288581,-0.0001903026912,0.001421985889,0.001254077785,-0.0001185020251,0.00113557576,0.003509856099,0.0001179816851,0.003627837784,0.00153335945,-0.0002411051622,0.001292254288,0.004230748176,-0.0001348012447,0.004095946931,0.002344627451,-0.0001462861773,0.002198341273,0.004249135972,-0.0001498571705,0.004099278802,0.0006604342728,-2.914693765e-05,0.0006312873351,0.001817260948,-0.0001688598604,0.001648401087,0.000950361117,-2.08636093e-05,0.0009294975077
2.5,-0.00124590353,0.0003020446848,-0.000943858845,0.0001250364315,-0.0002361080853,-0.0001110716538,-2.039363817e-05,8.582748934e-06,-1.181088924e-05,0.0003812343993,-0.0002790453966,0.0001021890027,0.0003794187139,-0.0003029437846,7.647492929e-05,0.0002710689516,-0.0001667358975,0.0001043330542,-0.0003019256816,-0.0001948038483,-0.0004967295299,-0.0006590674829,-0.0003165821868,-0.0009756496698,0.0002406791973,-9.253616181e-05,0.0001481430354,7.998711818e-05,1.989439028e-05,9.988150846e-05,0.0001693975187,-0.0001879696911,-1.857217248e-05,0.0005595126329,-0.0002722945104,0.0002872181225,0.0008777567496,0.0002881769943,0.001165933744,-0.0002171742712,0.0001234754994,-9.369877176e-05,0.0008855007409,8.605663392e-05,0.0009715573748,0.001848030841,-3.216859262e-05,0.001815862248,0.003385675356,4.522532402e-05,0.00343090068,0.000154455073,-0.0001936036766,-3.914860355e-05,0.0003756539196,-3.865530907e-05,0.0003369986105,0.0001276662076,-0.0001761827796,-4.851657203e-05,0.0001123502139,-0.0002162089097,-0.0001038586958,0.0003566818715,-0.0002429010507,0.0001137808208,-0.0002593666915,0.0001723669588,-8.699973266e-05,-0.0005500372103,0.0002210156695,-0.0003290215408,0.001058446146,-0.0002288089531,0.0008296371932,0.000529085219,-3.90361604e-05,0.0004900490586,0.001575846585,-0.0001544706345,0.001421375951,0.001250230715,-0.0001202713801,0.001129959334,0.003475344899,0.0001168938731,0.003592238772,0.001512353557,-0.0002470940279,0.001265259529,0.004172453444,-0.0001345488358,0.004037904608,0.002312912116,-0.0001459542481,0.002166957868,0.004238657206,-0.000148723946,0.00408993326,0.0006372665177,-3.382333864e-05,0.000603443179,0.001751939662,-0.000180375764,0.001571563898,0.0008625861386,-3.066491056e-05,0.0008319212281
2.6,-0.001280625645,0.000307083115,-0.0009735425301,0.0001153777928,-0.0002331992774,-0.0001178214845,-2.503299994e-05,1.223782966e-05,-1.279517028e-05,0.0003432954359,-0.0002863280392,5.696739664e-05,0.0003596572931,-0.0002998108546,5.984643854e-05,0.000243413553,-0.0001661902176,7.722333539e-05,-0.0003473609977,-0.0002002977858,-0.0005476587835,-0.0006990536578,-0.0003218735107,-0.001020927168,0.0002289598178,-9.103942807e-05,0.0001379203898,4.915379462e-05,1.396812182e-05,6.312191644e-05,0.0001560292698,-0.0001875110729,-3.148180315e-05,0.0005573983293,-0.0002744727187,0.0002829256106,0.0008590542023,0.0002976445805,0.001156698783,-0.0002233788902,0.0001250132085,-9.836568166e-05,0.0008613115091,8.767808204e-05,0.0009489895912,0.001794839989,-3.827751321e-05,0.001756562476,0.003334506203,4.063080176e-05,0.003375137005,0.0001276651211,-0.0002021289428,-7.446382166e-05,0.0003456912131,-3.959784619e-05,0.0003060933669,9.085375367e-05,-0.000186147573,-9.529381936e-05,3.518034345e-05,-0.0002380691503,-0.0002028888068,0.0003251771954,-0.0002531170843,7.206011109e-05,-0.0002591907762,0.0001746896386,-8.450113758e-05,-0.0005658633516,0.0002293265549,-0.0003365367967,0.001067820914,-0.0002347588178,0.0008330620958,0.0005218835696,-3.855417685e-05,0.0004833293928,0.001537564215,-0.0001158449276,0.001421719287,0.001245303173,-0.0001219475824,0.00112335559,0.003438288649,0.0001157339865,0.003554022636,0.001492194209,-0.000251926486,0.001240267723,0.004110886275,-0.0001339863696,0.003976899906,0.002283431446,-0.000146434113,0.002136997333,0.00422581174,-0.0001465104637,0.004079301276,0.0006170128433,-3.895555448e-05,0.0005780572889,0.001688698337,-0.0001925895815,0.001496108756,0.0007777660112,-4.100441005e-05,0.0007367616011
2.7,-0.001314118508,0.0003121754419,-0.001001943066,0.0001071686937,-0.0002301557817,-0.0001229870881,-2.786850415e-05,1.602885176e-05,-1.183965239e-05,0.0003065372044,-0.0002934939219,1.304328248e-05,0.0003414445459,-0.0002965853892,4.485915665e-05,0.0002171172839,-0.0001653370086,5.178027529e-05,-0.000392615314,-0.0002061888768,-0.0005988041907,-0.0007359395045,-0.0003274556486,-0.001063395153,0.0002198361882,-8.971085557e-05,0.0001301253326,1.999730735e-05,7.750359463e-06,2.774766681e-05,0.0001458795527,-0.0001874456511,-4.156609849e-05,0.0005566276361,-0.0002765362465,0.0002800913896,0.0008425856508,0.000305245173,0.001147830824,-0.000227541265,0.0001265696324,-0.0001009716326,0.0008379770726,8.919180672e-05,0.0009271688793,0.00174083891,-4.409744999e-05,0.00169674146,0.003280117525,3.635884846e-05,0.003316476374,0.0001039131402,-0.0002105139948,-0.0001066008545,0.0003180205545,-4.085214013e-05,0.0002771684144,5.52220328e-05,-0.0001963235557,-0.0001411015229,-4.205697069e-05,-0.0002604500013,-0.0003025069719,0.0002937698252,-0.0002634559989,3.031382628e-05,-0.0002555604679,0.0001771697832,-7.839068474e-05,-0.0005789808516,0.0002377693495,-0.0003412115021,0.001078324953,-0.0002405278112,0.0008377971422,0.0005155477232,-3.838975378e-05,0.0004771579694,0.001497988428,-7.503799726e-05,0.001422950431,0.001239371065,-0.0001234978185,0.001115873246,0.00339885531,0.0001144910981,0.003513346408,0.001473125754,-0.0002555576039,0.00121756815,0.004046408461,-0.0001332247215,0.003913183739,0.002256448583,-0.0001478840676,0.002108564516,0.004210647741,-0.0001432599347,0.004067387807,0.0005999285411,-4.45560751e-05,0.000555372466,0.001627647977,-0.0002054232197,0.001422224757,0.0006963695448,-5.189418424e-05,0.0006444753606
2.8,-0.001346138322,0.0003173453433,-0.001028792979,0.0001005392376,-0.0002269940382,-0.0001264548006,-2.886488368e-05,1.989743194e-05,-8.967451736e-06,0.0002713837698,-0.0003005153531,-2.91315833e-05,0.0003249740242,-0.0002933256445,3.164837971e-05,0.0001924079012,-0.0001642300707,2.817783057e-05,-0.0004374627196,-0.0002124940403,-0.0006499567599,-0.0007695990806,-0.0003333670611,-0.001102966142,0.0002133721801,-8.858582509e-05,0.000124786355,-7.283291742e-06,1.280139628e-06,-6.003152114e-06,0.0001390407393,-0.0001878092199,-4.87684806e-05,0.0005572732032,-0.0002785145403,0.0002787586629,0.0008285772179,0.0003108732285,0.001139450446,-0.0002296146913,0.0001281219219,-0.0001014927693,0.0008156893372,9.052414121e-05,0.0009062134784,0.001686266156,-4.961036105e-05,0.001636655795,0.003222638343,3.245401071e-05,0.003255092353,8.336343785e-05,-0.0002187196456,-0.0001353562078,0.0002927756775,-4.245128257e-05,0.000250324395,2.092998499e-05,-0.0002066843064,-0.0001857543214,-0.0001187422017,-0.0002832247402,-0.0004019669419,0.0002627136952,-0.0002739090455,-1.119535031e-05,-0.0002484349759,0.000179778799,-6.86561769e-05,-0.0005893078171,0.0002463256717,-0.0003429821455,0.001089883941,-0.0002461061353,0.0008437778055,0.0005101586345,-3.856644827e-05,0.0004715921863,0.001457682867,-3.273429613e-05,0.001424948571,0.001232515218,-0.0001248823891,0.001107632829,0.003357204477,0.000113161236,0.003470365713,0.001455388302,-0.0002579732358,0.001197415066,0.0039793664,-0.0001323648329,0.003847001567,0.002232169353,-0.0001504389185,0.002081730435,0.004193204452,-0.00013903134,0.004054173112,0.0005862532106,-5.06359844e-05,0.0005356172262,0.001568864468,-0.0002187820086,0.00135008246,0.0006188215691,-6.333096269e-05,0.0005554906065
2.9,-0.001376441827,0.0003226199774,-0.00105382185,9.559936894e-05,-0.0002237311357,-0.0001281317667,-2.802008831e-05,2.378201186e-05,-4.238076446e-06,0.0002382609014,-0.0003073630525,-6.910215111e-05,0.0003104163347,-0.0002900920514,2.032428334e-05,0.0001694947301,-0.0001629282606,6.566469512e-06,-0.0004816763088,-0.0002192258027,-0.0007009021115,-0.0007999370958,-0.0003396404223,-0.001139577518,0.0002095932671,-8.769939125e-05,0.0001218938759,-3.250095639e-05,-5.399427625e-06,-3.790038401e-05,0.0001355602593,-0.0001886346918,-5.307443249e-05,0.0005594009174,-0.0002804476981,0.0002789532193,0.0008171924657,0.0003144753502,0.001131667816,-0.0002295734427,0.0001296425484,-9.993089429e-05,0.0007946275332,9.159811018e-05,0.0008862256433,0.001631350987,-5.480390251e-05,0.001576547085,0.003162202271,2.895355627e-05,0.003191155827,6.615323275e-05,-0.000226709116,-0.0001605558832,0.0002700554866,-4.441521315e-05,0.0002256402734,-1.187603537e-05,-0.0002171999839,-0.0002290760193,-0.0001942348198,-0.0003062547295,-0.0005004895493,0.0002322602442,-0.0002844645501,-5.220430594e-05,-0.0002378247133,0.0001824839721,-5.534074119e-05,-0.0005967991635,0.0002549760077,-0.0003418231558,0.001102404197,-0.0002514873565,0.0008509168404,0.0005057879106,-3.910369676e-05,0.0004666842138,0.001417222288,1.031919721e-05,0.001427541486,0.001224819869,-0.0001260570249,0.001098762844,0.003313485068,0.0001117474066,0.003425232475,0.001439216216,-0.0002591947913,0.001180021425,0.003910086248,-0.0001314972856,0.003778588963,0.002210738758,-0.0001542065168,0.002056532241,0.004173514091,-0.0001338986715,0.00403961542,0.0005762041674,-5.720287354e-05,0.0005190012939,0.00151239109,-0.0002325574885,0.001279833601,0.0005454947952,-7.52932526e-05,0.0004702015426
3.0,-0.001404788518,0.0003280297485,-0.001076758769,9.243816515e-05,-0.0002203849875,-0.0001279468223,-2.536426772e-05,2.761886909e-05,2.254601373e-06,0.0002075906796,-0.0003140065055,-0.0001064158259,0.0002979190357,-0.0002869461805,1.097285523e-05,0.0001485673991,-0.0001614947048,-1.292730565e-05,-0.0005250297719,-0.0002263925236,-0.0007514222954,-0.0008268893752,-0.0003463016866,-0.001173191062,0.0002084892006,-8.708590492e-05,0.0001214032956,-5.548023919e-05,-1.22418871e-05,-6.772212628e-05,0.0001354452878,-0.0001899516646,-5.450637682e-05,0.0005630696813,-0.0002823853177,0.0002806843636,0.000808528364,0.0003160505378,0.001124578902,-0.0002274112446,0.0001310994238,-9.631182082e-05,0.0007749573131,9.233497681e-05,0.00086729229,0.001576311523,-5.967155215e-05,0.001516639971,0.003098946724,2.588787537e-05,0.0031248346,5.239239257e-05,-0.0002344483602,-0.0001820559676,0.0002499247291,-4.674996066e-05,0.0002031747684,-4.306174831e-05,-0.0002278378857,-0.000270899634,-0.0002678783163,-0.000329391065,-0.0005972693813,0.0002026576714,-0.0002951078298,-9.245015841e-05,-0.0002237853766,0.0001852495804,-3.853579622e-05,-0.0006014432873,0.0002637002297,-0.0003377430576,0.001115776872,-0.0002566691634,0.0008591077082,0.000502499164,-4.001766609e-05,0.000462481498,0.001377184532,5.332865238e-05,0.001430513184,0.001216370961,-0.0001269756227,0.001089395339,0.003267835714,0.0001102591049,0.003378094819,0.001424838155,-0.0002592829288,0.001165555226,0.003838872325,-0.0001307027912,0.003708169533,0.002192240262,-0.0001592648857,0.002032975377,0.00415160511,-0.0001279489753,0.004023656135,0.0005699725382,-6.425924863e-05,0.0005057132896,0.001458243217,-0.0002466306002,0.001211612617,0.0004767029394,-8.773723999e-05,0.0003889656994
3.1,-0.001430942583,0.0003336078665,-0.001097334716,9.112428722e-05,-0.0002169743439,-0.0001258500566,-2.095705669e-05,3.134320888e-05,1.03861522e-05,0.000179785762,-0.0003204143903,-0.0001406286283,0.0002876080132,-0.0002839498909,3.658122332e-06,0.0001297952885,-0.0001599957004,-3.020041197e-05,-0.0005672991232,-0.0002339990346,-0.0008012981578,-0.0008504220935,-0.0003533698388,-0.001203791932,0.0002100184253,-8.677867945e-05,0.0001232397458,-7.605646161e-05,-1.919830328e-05,-9.525476489e-05,0.0001386692684,-0.0001917861249,-5.311685648e-05,0.0005683315335,-0.0002843848216,0.0002839467119,0.000802615914,0.0003156467949,0.001118262709,-0.00022313877,0.0001324559632,-9.068280677e-05,0.0007568303121,9.265594909e-05,0.0008494862612,0.001521354625,-6.421256538e-05,0.00145714206,0.003033012999,2.328106591e-05,0.003056294065,4.216432421e-05,-0.0002419063298,-0.0001997420056,0.0002324170548,-4.944781136e-05,0.0001829692434,-7.25039211e-05,-0.0002385629891,-0.0003110669102,-0.0003390062923,-0.0003524767266,-0.0006914830189,0.0001741504547,-0.0003058211087,-0.000131670654,-0.0002064105819,0.000188038151,-1.837243093e-05,-0.0006032577343,0.0002724780845,-0.0003307796498,0.001129883551,-0.0002616543292,0.0008682292216,0.0005003499942,-4.13220317e-05,0.0004590279625,0.001338141316,9.547363879e-05,0.001433614954,0.001207255283,-0.0001275935912,0.001079661692,0.003220386985,0.0001087116691,0.003329098654,0.001412477888,-0.0002583394046,0.001154138484,0.003766008222,-0.0001300531688,0.003635955054,0.002176697307,-0.0001656596083,0.002011037699,0.004127506994,-0.000121280216,0.004006226778,0.0005677214789,-7.180155324e-05,0.0004959199257,0.001406414456,-0.0002608756953,0.001145538761,0.0004126962014,-0.000100593428,0.0003121027734
3.2,-0.001454675025,0.0003393896112,-0.001115285414,9.170693258e-05,-0.0002135186171,-0.0001218116845,-1.488387452e-05,3.489036558e-05,2.000649107e-05,0.000155242639,-0.0003265551038,-0.0001713124648,0.0002795888957,-0.0002811647137,-1.57581803e-06,0.0001133267965,-0.0001584992546,-4.517245812e-05,-0.0006082654147,-0.0002420475638,-0.0008503129786,-0.000870530399,-0.0003608571123,-0.001231387511,0.0002141126741,-8.680962606e-05,0.000127303048,-9.40759077e-05,-2.621820054e-05,-0.0001202941082,0.0001451778968,-0.000194160222,-4.898232515e-05,0.0005752314632,-0.0002865092402,0.000288722223,0.0007994238241,0.0003133554907,0.001112779315,-0.0002167811957,0.0001336713897,-8.310980601e-05,0.0007403834189,9.24841389e-05,0.0008328675578,0.001466676568,-6.84315127e-05,0.001398245055,0.002964546516,2.115140905e-05,0.002985697925,3.552747619e-05,-0.0002490554485,-0.0002135279723,0.0002175387475,-5.248821172e-05,0.0001650505357,-0.0001000893467,-0.0002493385012,-0.0003494278479,-0.0004069511472,-0.0003753493627,-0.00078230051,0.0001469785548,-0.0003165836195,-0.0001696050647,-0.0001858254798,0.0001908115548,4.986075019e-06,-0.0006022855652,0.0002812894951,-0.0003209960701,0.001144601967,-0.0002664517654,0.0008781502016,0.0004993934272,-4.302835848e-05,0.0004563650687,0.001300649858,0.0001359282833,0.001436578141,0.001197560564,-0.0001278713032,0.001069689261,0.003171264109,0.0001071254568,0.003278389566,0.001402354923,-0.0002565067425,0.001145848181,0.003691759199,-0.0001296125469,0.003562146652,0.002164075982,-0.000173401429,0.001990674553,0.004101255498,-0.0001139991532,0.003987256345,0.0005695847049,-7.981946422e-05,0.0004897652407,0.00135688302,-0.0002751653282,0.001081717692,0.0003536591315,-0.0001137656533,0.0002398934782
3.3,-0.001475766515,0.0003454113402,-0.001130355175,9.421642049e-05,-0.0002100373631,-0.0001158209426,-7.251889204e-06,3.819716327e-05,3.094527407e-05,0.0001343333486,-0.0003323974477,-0.0001980640991,0.00027394751,-0.0002786513413,-4.703831378e-06,9.928808762e-05,-0.0001570735455,-5.778545791e-05,-0.0006477188102,-0.0002505387257,-0.000898257536,-0.0008872370089,-0.0003687693056,-0.001256006314,0.0002206808063,-8.720881003e-05,0.0001334719962,-0.0001093978229,-3.325060496e-05,-0.0001426484278,0.0001548932956,-0.0001970920682,-4.219877263e-05,0.0005838064622,-0.0002888244821,0.00029498198,0.0007988649283,0.0003093038373,0.001108168766,-0.0002083764574,0.0001347013974,-7.367506003e-05,0.0007257374504,9.174653112e-05,0.0008174839816,0.001412463239,-7.233729494e-05,0.001340125944,0.002893696531,1.951185463e-05,0.002913208386,3.251684036e-05,-0.0002558725392,-0.0002233556988,0.0002052715848,-5.583911289e-05,0.0001494324719,-0.0001257142493,-0.000260126475,-0.0003858407243,-0.0004710562435,-0.000397844811,-0.0008689010544,0.0001213759034,-0.0003273720651,-0.0002059961618,-0.0001621824263,0.0001935318275,3.134940117e-05,-0.000598593243,0.0002901146665,-0.0003084785766,0.001159810372,-0.0002710771764,0.000888733196,0.0004996779371,-4.514605923e-05,0.0004545318779,0.001265244868,0.0001738815822,0.00143912645,0.001187375445,-0.0001277765628,0.001059598882,0.003120589094,0.0001055246987,0.003226113793,0.001394684294,-0.0002539656287,0.001140718665,0.003616373966,-0.0001294383996,0.003486935566,0.002154288269,-0.0001824646142,0.001971823655,0.004072896425,-0.0001062187891,0.003966677636,0.000575663716,-8.829510791e-05,0.000487368608,0.001309617831,-0.0002893756245,0.001020242206,0.0002997097777,-0.0001271323338,0.0001725774438
3.4,-0.001494011347,0.0003517093544,-0.001142301993,9.866396824e-05,-0.000206549339,-0.0001078853708,1.814170833e-06,4.120342967e-05,4.30176005e-05,0.0001173957037,-0.000337911549,-0.0002205158453,0.0002707492771,-0.000276469074,-5.71979693e-06,8.778144903e-05,-0.0001557855675,-6.800411846e-05,-0.0006854637016,-0.0002594723666,-0.0009449360682,-0.0009005909575,-0.0003771059941,-0.001277696952,0.0002296117555,-8.800390846e-05,0.000141607847,-0.0001218981443,-4.024522175e-05,-0.000162143366,0.0001677163901,-0.0002005955346,-3.287914454e-05,0.0005940838074,-0.0002913963458,0.0003026874615,0.0008008051051,0.0003036455722,0.001104450677,-0.0001979742038,0.0001354990511,-6.24751527e-05,0.0007129953066,9.037578275e-05,0.0008033710894,0.001358889273,-7.594185713e-05,0.001282947416,0.002820615219,1.83705909e-05,0.00283898581,3.314474494e-05,-0.0002623399325,-0.0002291951876,0.0001955744552,-5.945869387e-05,0.0001361157613,-0.0001492843492,-0.0002708884465,-0.0004201727957,-0.0005306913899,-0.0004198012354,-0.0009504926253,9.756794397e-05,-0.0003381613886,-0.0002405934446,-0.000135658423,0.0001961617806,6.050335757e-05,-0.0005922698722,0.0002989340992,-0.000293335773,0.001175389975,-0.0002755530048,0.00089983697,0.0005012458666,-4.768205473e-05,0.0004535638118,0.001232428728,0.0002085581083,0.001440986836,0.00117678822,-0.0001272855384,0.001049502681,0.003068481648,0.0001039360944,0.003172417743,0.001389674883,-0.0002509301724,0.001138744711,0.003540084549,-0.0001295819094,0.00341050264,0.002147195967,-0.000192786918,0.001954409049,0.004042486564,-9.805528414e-05,0.00394443128,0.0005860231542,-9.720206065e-05,0.0004888210935,0.001264583726,-0.0003033917284,0.0009611919976,0.0002508990077,-0.0001405486774,0.0001103503304
3.5,-0.0015092224,0.000358318702,-0.001150903698,0.0001050407437,-0.0002030712171,-9.803047337e-05,1.21765182e-05,4.385354808e-05,5.603006628e-05,0.0001047228283,-0.0003430699555,-0.0002383471272,0.000270038046,-0.0002746751681,-4.6371221e-06,7.888340462e-05,-0.0001546998311,-7.581642643e-05,-0.0007213239436,-0.0002688481008,-0.0009901720444,-0.0009106663372,-0.0003858606737,-0.001296527011,0.0002407769573,-8.921956339e-05,0.0001515573939,-0.0001314741724,-4.715368751e-05,-0.0001786278599,0.0001835282874,-0.0002046800027,-2.115171536e-05,0.0006060789697,-0.0002942877137,0.000311791256,0.0008050731398,0.0002965510257,0.001101624166,-0.0001856351422,0.0001360158422,-4.96193e-05,0.0007022398427,8.831196152e-05,0.0007905518042,0.001306116459,-7.92590336e-05,0.001226857425,0.002745456637,1.773135718e-05,0.002763187994,3.740072433e-05,-0.0002684463552,-0.0002310456309,0.0001883844228,-6.329765779e-05,0.000125086765,-0.0001707155562,-0.0002815859948,-0.000452301551,-0.0005852701854,-0.0004410634988,-0.001026333684,7.57682791e-05,-0.0003489256386,-0.0002731573595,-0.0001064532214,0.0001986655307,9.221230933e-05,-0.0005834269206,0.0003077286198,-0.0002756983008,0.001191225919,-0.0002799078527,0.0009113180667,0.0005041306726,-5.064022143e-05,0.0004534904512,0.001202659001,0.0002392402062,0.001441899207,0.001165884714,-0.0001263829121,0.001039501802,0.003015059017,0.0001023872239,0.003117446241,0.001387525619,-0.0002476411761,0.001139884443,0.003463104288,-0.0001300873575,0.00333301693,0.002142615359,-0.0002042715494,0.001938343809,0.004010091823,-8.962493154e-05,0.003920466892,0.0006006849793,-0.0001065042623,0.000494180717,0.001221744716,-0.0003171124081,0.0009046323078,0.0002072102898,-0.0001538493827,5.336090712e-05
3.6,-0.001521236472,0.0003652719444,-0.001155964528,0.0001133166525,-0.0001996161833,-8.62995308e-05,2.368928788e-05,4.609788139e-05,6.978716927e-05,9.655338997e-05,-0.0003478486563,-0.0002512952663,0.0002718351262,-0.0002733240904,-1.488964182e-06,7.264272703e-05,-0.0001538767523,-8.123402526e-05,-0.0007551469833,-0.0002786654318,-0.001033812415,-0.0009175607102,-0.000395020995,-0.001312581705,0.0002540329757,-9.087666242e-05,0.0001631563133,-0.0001380488618,-5.393076038e-05,-0.0001919796222,0.0002021919487,-0.0002093500699,-7.15812128e-06,0.0006197937795,-0.0002975562486,0.0003222375309,0.0008114699389,0.0002881983462,0.001099668285,-0.0001714304176,0.0001362029714,-3.522744617e-05,0.0006935319387,8.550434573e-05,0.0007790362845,0.001254292274,-8.230384858e-05,0.001171988425,0.002668376263,1.759314884e-05,0.002685969411,4.525123537e-05,-0.0002741876367,-0.0002289364013,0.0001836181529,-6.730217687e-05,0.0001163159761,-0.0001899349037,-0.0002921812352,-0.0004821161389,-0.0006342665999,-0.000461487314,-0.001095753914,5.617498816e-05,-0.0003596388042,-0.0003034638161,-7.478651615e-05,0.0002010090704,0.0001262225543,-0.0005721971541,0.000316479505,-0.0002557176492,0.001207207859,-0.0002841757312,0.0009230321276,0.0005083538593,-5.402077363e-05,0.0004543330857,0.001176335189,0.0002652899922,0.001441625182,0.001154746862,-0.0001250626741,0.001029684188,0.002960435565,0.000100904707,0.003061340272,0.001388419424,-0.0002443574447,0.001144061979,0.003385625353,-0.0001309906831,0.003254634669,0.002140322548,-0.0002167908668,0.001923531681,0.003975783485,-8.104156234e-05,0.003894741923,0.0006196229505,-0.0001161551057,0.0005034678447,0.00118106498,-0.0003304528158,0.0008506121645,0.0001685614992,-0.0001668524488,1.709050441e-06
3.7,-0.001529919018,0.0003725979389,-0.001157321079,0.000123439611,-0.0001961927866,-7.275317555e-05,3.62040723e-05,4.789397584e-05,8.409804814e-05,9.306398191e-05,-0.0003522277812,-0.0002591637993,0.0002761393981,-0.0002724666749,3.672723207e-06,6.907886501e-05,-0.0001533706579,-8.429179287e-05,-0.0007868059098,-0.0002889234987,-0.001075729409,-0.000921392916,-0.0004045691747,-0.001325962091,0.0002692252652,-9.299164988e-05,0.0001762336153,-0.0001415733295,-6.053535947e-05,-0.0002021086889,0.0002235556435,-0.0002146053031,8.95034041e-06,0.0006352155475,-0.0003012526556,0.0003339628919,0.0008197770995,0.0002787667876,0.001098543887,-0.0001554405802,0.0001360128877,-1.942769252e-05,0.0006869095648,8.191309212e-05,0.0007688226569,0.001203549396,-8.509243211e-05,0.001118456964,0.002589531617,1.794960678e-05,0.002607481223,5.664031059e-05,-0.0002795673954,-0.0002229270848,0.0001811742375,-7.141705904e-05,0.0001097571785,-0.0002068810913,-0.0003026374004,-0.0005095184916,-0.0006772281296,-0.0004809428883,-0.001158171018,3.896757106e-05,-0.0003702756556,-0.0003313080845,-4.089265965e-05,0.0002031610056,0.0001622683459,-0.0005587316033,0.0003251687564,-0.0002335628468,0.001223231133,-0.0002883952907,0.0009348358426,0.0005139226829,-5.781988733e-05,0.0004561027956,0.001153787664,0.0002861680487,0.001439955713,0.001143452961,-0.0001233300594,0.001020122901,0.00290472311,9.951215177e-05,0.003004235262,0.001392515863,-0.0002413456971,0.001151170166,0.003307817568,-0.0001323177255,0.003175499842,0.002140059718,-0.0002301914041,0.001909868314,0.003939633508,-7.241391117e-05,0.003867219597,0.0006427588793,-0.0001260968381,0.0005166620412,0.001142508579,-0.0003433447532,0.0007991638257,0.0001348101981,-0.0001793644159,-4.455421783e-05
3.8,-0.001535167551,0.00038032077,-0.001154846781,0.0001353360798,-0.000192804338,-5.746825817e-05,4.957608889e-05,4.92075563e-05,9.878364518e-05,9.436448843e-05,-0.0003561919687,-0.0002618274802,0.0002829291962,-0.0002721492121,1.077998409e-05,6.818164464e-05,-0.0001532278357,-8.504619102e-05,-0.0008161992217,-0.0002996206742,-0.001115819896,-0.00092230011,-0.0004144825566,-0.001336782667,0.0002861936751,-9.557601301e-05,0.0001906176621,-0.0001420268654,-6.69314646e-05,-0.00020895833,0.0002474590302,-0.0002204401866,2.701884358e-05,0.0006523176409,-0.0003054194764,0.0003468981644,0.0008297656178,0.0002684319361,0.001098197554,-0.0001377537198,0.0001354009482,-2.352771599e-06,0.0006823885116,7.751034715e-05,0.0007598988588,0.001154006785,-8.764261487e-05,0.00106636417,0.002509084184,1.878882659e-05,0.002527873011,7.149158518e-05,-0.0002845974559,-0.0002131058708,0.0001809366848,-7.558845145e-05,0.0001053482333,-0.0002215042054,-0.0003129195767,-0.0005344237821,-0.0007137842816,-0.0004993179865,-0.001213102268,2.430523213e-05,-0.000380812667,-0.0003565074349,-5.012384015e-06,0.0002050935138,0.0002000811297,-0.0005431942304,0.0003337795274,-0.000209414703,0.001239199253,-0.0002926090188,0.000946590234,0.0005208295155,-6.202986607e-05,0.0004587996494,0.001135269829,0.0003014474535,0.001436717282,0.001132079295,-0.0001212035647,0.00101087573,0.002848032727,9.822810645e-05,0.002946260834,0.001399944409,-0.0002388706488,0.00116107376,0.003229829364,-0.0001340826776,0.003095746686,0.002141542792,-0.0002442998456,0.001897242947,0.003901709811,-6.384236085e-05,0.00383786745,0.0006699615284,-0.0001362602533,0.0005337012751,0.001106039119,-0.0003557344901,0.0007503046291,0.0001057626301,-0.0001911866026,-8.542397254e-05
3.9,-0.001536913515,0.0003884589392,-0.001148454575,0.0001489131601,-0.0001894488796,-4.053571951e-05,6.367091163e-05,5.001334064e-05,0.0001136842523,0.0001004963793,-0.0003597306067,-0.0002592342274,0.0002921658642,-0.0002724125984,1.975326587e-05,6.991272024e-05,-0.0001534851653,-8.357244501e-05,-0.0008432489925,-0.0003107542647,-0.001154003257,-0.0009204339848,-0.0004247344228,-0.001345168408,0.0003047792103,-9.863602967e-05,0.0002061431806,-0.0001394149793,-7.308888721e-05,-0.0002125038665,0.0002737410192,-0.0002268443428,4.689667646e-05,0.0006710613811,-0.0003100903558,0.0003609710254,0.0008412047097,0.000257362536,0.001098567246,-0.0001184628175,0.0001343270088,1.586419132e-05,0.0006799646968,7.228052227e-05,0.0007522452191,0.001105772385,-8.997502834e-05,0.001015797357,0.002427202392,2.00939637e-05,0.002447296355,8.971131386e-05,-0.0002892975984,-0.0001995862845,0.0001827796885,-7.976584764e-05,0.0001030138409,-0.0002337647923,-0.0003229954278,-0.0005567602201,-0.0007436510763,-0.0005165203736,-0.00126017145,1.232635711e-05,-0.0003912289499,-0.0003789025928,3.26170289e-05,0.0002067833872,0.0002394004161,-0.0005257553341,0.0003422965994,-0.0001834587347,0.001255027684,-0.0002968624049,0.0009581652788,0.0005290529957,-6.663987635e-05,0.0004624131193,0.001120952192,0.0003108240156,0.001431776208,0.00112070263,-0.0001187159797,0.00100198665,0.002790478094,9.706416264e-05,0.002887542256,0.001410799519,-0.0002371867323,0.001173612787,0.003151790422,-0.0001362870871,0.003015503334,0.002144470056,-0.0002589292029,0.001885540853,0.003862072437,-5.541524531e-05,0.003806657192,0.0007010482496,-0.0001465647196,0.00055448353,0.001071620044,-0.0003675790448,0.000704040999,8.118542402e-05,-0.0002021219915,-0.0001209365674
4.0,-0.001535122941,0.0003970247948,-0.001138098146,0.0001640618145,-0.0001861195365,-2.205772203e-05,7.837117971e-05,5.029565274e-05,0.0001286668324,0.0001114333497,-0.0003628381512,-0.0002514048015,0.0003037978576,-0.0002732917117,3.050614589e-05,7.420835979e-05,-0.0001541695061,-7.996114629e-05,-0.000867898585,-0.0003223203671,-0.001190218952,-0.0009159564274,-0.0004352951725,-0.0013512516,0.0003248304895,-0.0001021727346,0.0002226577549,-0.0001337669132,-7.898383246e-05,-0.0002127507457,0.0003022470969,-0.0002338029573,6.844413956e-05,0.0006913983523,-0.0003152895779,0.0003761087745,0.0008538698764,0.0002457185875,0.001099588464,-9.766295816e-05,0.0001327567969,3.509383878e-05,0.0006796172373,6.62198387e-05,0.000745837076,0.001058946471,-9.211423264e-05,0.0009668322382,0.002344064783,2.184442453e-05,0.002365909207,0.000111191422,-0.0002936946286,-0.0001825032066,0.0001865732767,-8.390371552e-05,0.0001026695612,-0.0002436328855,-0.0003328356944,-0.0005764685799,-0.0007666332408,-0.0005324795602,-0.001299112801,3.148312005e-06,-0.0004015069877,-0.0003983586757,7.177040108e-05,0.0002082128544,0.0002799832555,-0.0005065855612,0.0003507067413,-0.0001558788199,0.00127064796,-0.0003012030497,0.0009694449102,0.0005385601995,-7.163693346e-05,0.000466923266,0.001110917346,0.0003141233919,0.001425040738,0.001109403606,-0.0001159146797,0.0009934889266,0.002732179551,9.60233416e-05,0.002828202893,0.001425136682,-0.0002365315357,0.001188605146,0.003073815063,-0.0001389195974,0.002934895466,0.002148530374,-0.000273884326,0.001874646048,0.003820770909,-4.720536796e-05,0.003773565541,0.0007357886665,-0.0001569186366,0.0005788700299,0.001039215348,-0.0003788421671,0.0006603731808,6.081842417e-05,-0.0002119827897,-0.0001511643655
4.1,-0.001529796283,0.0004060241172,-0.001123772165,0.0001806603239,-0.0001828051194,-2.144795586e-06,9.358217648e-05,5.004879115e-05,0.0001436309676,0.0001270837189,-0.0003655145142,-0.0002384307953,0.0003177639256,-0.0002748150658,4.294885981e-05,8.098259107e-05,-0.0001552976391,-7.431504801e-05,-0.0008901108538,-0.0003343137206,-0.001224424574,-0.0009090352698,-0.0004461336767,-0.001355168947,0.0003462083112,-0.0001061819866,0.0002400263246,-0.0001251338883,-8.459914136e-05,-0.0002097330296,0.0003328339128,-0.0002412972639,9.153664889e-05,0.0007132720356,-0.0003210316342,0.0003922404015,0.0008675494163,0.0002336501635,0.00110119958,-7.544915202e-05,0.0001306629724,5.521382039e-05,0.000681311337,5.933551542e-05,0.0007406468524,0.001013624143,-9.408936804e-05,0.0009195347748,0.002259862281,2.401718234e-05,0.002283879464,0.0001358114602,-0.0002978210791,-0.0001620096188,0.000192188727,-8.796294109e-05,0.0001042257859,-0.0002510874812,-0.000342414482,-0.0005935019632,-0.0007826253616,-0.0005471478212,-0.001329773183,-3.133212209e-06,-0.0004116330617,-0.0004147662739,0.0001122399076,0.0002093699179,0.0003216098255,-0.0004858520232,0.0003589988372,-0.000126853186,0.001286010653,-0.0003056796503,0.0009803310027,0.0005493087313,-7.700669488e-05,0.0004723020364,0.00110515693,0.0003113041054,0.001416461035,0.001098270674,-0.0001128617917,0.0009854088821,0.002673267559,9.509899162e-05,0.002768366551,0.001442968252,-0.0002371203316,0.00120584792,0.002996005985,-0.0001419566167,0.002854049369,0.002153409906,-0.0002889664875,0.001864443419,0.003777842458,-3.926710469e-05,0.003738575354,0.0007739092369,-0.0001672203372,0.0006066888997,0.001008789863,-0.0003894908642,0.0006192989985,4.438685035e-05,-0.0002205981201,-0.0001762112697
4.2,-0.001520967694,0.0004154558645,-0.001105511829,0.0001985772246,-0.0001794909488,1.90862758e-05,0.0001092351588,4.927712859e-05,0.0001585122874,0.0001472941923,-0.0003677652854,-0.0002204710931,0.0003339944792,-0.0002770046455,5.698983363e-05,9.012987143e-05,-0.0001568764645,-6.674659312e-05,-0.0009098671762,-0.000346727369,-0.001256594545,-0.000899840742,-0.000457218469,-0.001357059211,0.0003687875713,-0.0001106545717,0.0002581329996,-0.000113588547,-8.992417819e-05,-0.0002035127251,0.0003653702642,-0.0002493049948,0.0001160652693,0.0007366183482,-0.0003273208675,0.0004092974807,0.0008820492142,0.0002212960538,0.001103345268,-5.191520066e-05,0.0001280258357,7.611063509e-05,0.0006850002814,5.16449711e-05,0.0007366452525,0.0009698959989,-9.593410743e-05,0.0008739618915,0.002174798954,2.658768868e-05,0.002201386643,0.0001634388399,-0.000301713815,-0.0001382749751,0.000199502494,-9.191189612e-05,0.0001075905979,-0.0002561166072,-0.0003517095138,-0.000607826121,-0.0007916123331,-0.0005605005418,-0.001352112875,-6.44547168e-06,-0.0004215974747,-0.0004280429464,0.0001538362257,0.0002102481507,0.0003640843764,-0.0004637169579,0.0003671637859,-9.6553172e-05,0.001301086378,-0.000310340989,0.0009907453889,0.0005612479858,-8.273378325e-05,0.0004785142026,0.001103572129,0.0003024553764,0.001406027505,0.00108740333,-0.0001096340799,0.0009777692497,0.002613884372,9.427428417e-05,0.002708158656,0.001464259364,-0.0002391415678,0.001225117796,0.002918458368,-0.0001453641495,0.002773094219,0.002158797318,-0.0003039775938,0.001854819724,0.003733310813,-3.163417995e-05,0.003701676633,0.0008150976952,-0.0001773594807,0.0006377382145,0.0009803084897,-0.0003994929223,0.0005808155674,3.16109107e-05,-0.0002278204049,-0.0001962094942
4.3,-0.001508703811,0.000425312206,-0.001083391605,0.0002176734354,-0.0001761598378,4.151359768e-05,0.0001252878521,4.799492909e-05,0.0001732827812,0.0001718546941,-0.0003696015692,-0.0001977468752,0.000352411127,-0.0002798757973,7.253532977e-05,0.0001015270562,-0.0001589033441,-5.737628793e-05,-0.0009271671404,-0.0003595520915,-0.001286719232,-0.0008885428011,-0.0004685186099,-0.001357061411,0.0003924567179,-0.0001155763603,0.0002768803576,-9.922535391e-05,-9.495442657e-05,-0.0001941797805,0.0003997349291,-0.0002578007808,0.0001419341483,0.0007613655247,-0.0003341515955,0.0004272139292,0.0008971962163,0.0002087813836,0.0011059776,-2.715366884e-05,0.0001248336818,9.768001299e-05,0.0006906262836,4.317520139e-05,0.000733801485,0.0009278468825,-9.768599173e-05,0.0008301608908,0.002089091386,2.952993261e-05,0.002118621319,0.0001939276288,-0.00030541265,-0.0001114850212,0.0002083979412,-9.57269356e-05,0.0001126710056,-0.0002587179299,-0.0003607024334,-0.0006194203633,-0.0007936688521,-0.0005725359207,-0.001366204773,-6.740309098e-06,-0.0004313946924,-0.0004381350015,0.0001963863069,0.0002108460927,0.0004072323996,-0.0004403384558,0.0003751942676,-6.514418815e-05,0.001315864937,-0.0003152352139,0.001000629723,0.0005743193733,-8.880159668e-05,0.0004855177766,0.001105977518,0.0002877907237,0.001393768242,0.001076913138,-0.0001063219917,0.0009705911467,0.002554183414,9.352228364e-05,0.002647705697,0.001488924694,-0.0002427534907,0.001246171204,0.002841263809,-0.000149100733,0.002692163076,0.002164387996,-0.0003187246636,0.001845663333,0.003687185493,-2.431850745e-05,0.003662866985,0.0008590070205,-0.0001872191284,0.0006717878921,0.0009537347437,-0.0004088157507,0.000544918993,2.221184971e-05,-0.0002335294257,-0.000211317576
4.4,-0.001493101975,0.0004355789454,-0.00105752303,0.0002378037611,-0.0001727931388,6.501062228e-05,0.0001417223172,4.622585502e-05,0.0001879481722,0.0002005040436,-0.0003710394554,-0.0001705354118,0.0003729250703,-0.0002834371232,8.948794717e-05,0.0001150350152,-0.0001613666478,-4.633163258e-05,-0.0009420284372,-0.0003727756907,-0.001314804128,-0.0008753093182,-0.000480004112,-0.00135531343,0.0004171156235,-0.0001209285266,0.0002961870969,-8.216129015e-05,-9.969088807e-05,-0.0001818521782,0.0004358127325,-0.0002667564959,0.0001690562365,0.0007874340676,-0.0003415090724,0.0004459249952,0.0009128410637,0.0001962141752,0.001109055239,-1.256710791e-06,0.0001210828932,0.0001198261824,0.0006981205299,3.396220582e-05,0.0007320827358,0.000887553252,-9.938537922e-05,0.0007881678728,0.002002967188,3.28156209e-05,0.002035782809,0.0002271168347,-0.0003089590182,-8.184218349e-05,0.0002187649213,-9.93923228e-05,0.0001193725985,-0.0002588997706,-0.0003693790635,-0.0006282788342,-0.0007889574185,-0.0005832739925,-0.001372231411,-3.995822539e-06,-0.0004410233165,-0.000445019139,0.0002397295048,0.0002111664829,0.0004508959877,-0.0004158721101,0.0003830844857,-3.278762438e-05,0.001330353019,-0.0003204094316,0.001009943588,0.0005884557456,-9.519171218e-05,0.0004932640334,0.001112107379,0.0002676392795,0.001379746658,0.001066921915,-0.000103027752,0.0009638941633,0.002494326405,9.280680038e-05,0.002587133205,0.001516826292,-0.0002480817491,0.001268744543,0.002764512817,-0.0001531208318,0.002611391985,0.00216988731,-0.0003330242994,0.001836863011,0.003639461953,-1.731096649e-05,0.003622150987,0.0009052592247,-0.0001966785944,0.0007085806303,0.0009290294444,-0.0004174267147,0.0005116027297,1.591492635e-05,-0.0002376343307,-0.0002217194044
4.5,-0.001474287701,0.0004462362837,-0.001028051418,0.0002588183413,-0.0001693718577,8.944648356e-05,0.0001585410955,4.400213464e-05,0.0002025432301,0.0002329364124,-0.0003720992946,-0.0001391628821,0.0003954354817,-0.0002876903906,0.0001077450911,0.0001305003108,-0.0001642464219,-3.374611114e-05,-0.0009544863578,-0.0003863822753,-0.001340868633,-0.000860305137,-0.000491645757,-0.001351950894,0.0004426731601,-0.0001266877787,0.0003159853814,-6.253590597e-05,-0.0001041393562,-0.0001666752622,0.0004734907783,-0.0002761415241,0.0001973492542,0.0008147371783,-0.0003493711561,0.0004653660222,0.0009288603178,0.0001836817675,0.001112542085,2.568280358e-05,0.0001167779749,0.0001424607784,0.0007074031423,2.40502324e-05,0.0007314533747,0.0008490800074,-0.0001010742397,0.0007480057677,0.001916663244,3.641296842e-05,0.001953076212,0.0002628292981,-0.0003123948498,-4.956555171e-05,0.0002304979575,-0.0001028996795,0.000127598278,-0.0002566822483,-0.0003777294953,-0.0006344117436,-0.0007777240129,-0.0005927549705,-0.001370478983,1.782384396e-06,-0.0004504857204,-0.000448703336,0.0002837142892,0.0002112155671,0.0004949298563,-0.0003904720998,0.000390829957,3.57857259e-07,0.001344570974,-0.0003259093548,0.001018661619,0.0006035805962,-0.0001018830698,0.0005016975264,0.001121625335,0.0002424344454,0.001364059781,0.00105755804,-9.98630742e-05,0.000957694966,0.002434479285,9.208413779e-05,0.002526563422,0.00154777282,-0.0002552176931,0.001292555127,0.002688295153,-0.0001573778967,0.002530917257,0.002175012759,-0.0003467061434,0.001828306615,0.003590123167,-1.058478833e-05,0.003579538379,0.0009534495875,-0.0002056167268,0.0007478328607,0.0009061500215,-0.0004252947492,0.0004808552723,1.245058487e-05,-0.0002400742959,-0.000227623711
4.6,-0.001452411183,0.0004572597793,-0.0009951514042,0.0002805647197,-0.0001658779111,0.0001146868086,0.000175762861,4.136342235e-05,0.0002171262834,0.0002688086815,-0.0003728049168,-0.0001039962353,0.0004198290545,-0.0002926304704,0.0001271985841,0.0001477571111,-0.0001675149198,-1.975780873e-05,-0.0009645923726,-0.0004003516814,-0.001364944054,-0.0008436918282,-0.0005034143872,-0.001347106215,0.0004690457289,-0.0001328265733,0.0003362191556,-4.050982397e-05,-0.0001083096387,-0.0001488194626,0.0005126566665,-0.0002859229643,0.0002267337023,0.0008431817476,-0.0003577101056,0.000485471642,0.000945158883,0.0001712482009,0.001116407084,5.357059887e-05,0.000111931667,0.0001655022659,0.0007183837031,1.349079132e-05,0.0007318744944,0.0008124777109,-0.0001027949521,0.0007096827588,0.001830424211,4.028577111e-05,0.001870709982,0.0003008722006,-0.0003157618816,-1.488968101e-05,0.0002434942819,-0.0001062471032,0.0001372471788,-0.0002520980995,-0.0003857479962,-0.0006378460957,-0.0007602905842,-0.0006010370517,-0.001361327636,1.05610096e-05,-0.0004597873877,-0.0004492263781,0.0003281973424,0.0002110026365,0.000539199979,-0.0003642905068,0.0003984273879,3.413688106e-05,0.001358549597,-0.0003317789522,0.001026770644,0.0006196077094,-0.0001088511474,0.000510756562,0.00113413959,0.000212697308,0.001346836898,0.001048952619,-9.694706564e-05,0.0009520055531,0.002374808894,9.130514135e-05,0.002466114035,0.001581521182,-0.0002642174123,0.001317303769,0.002612698546,-0.000161826667,0.002450871879,0.002179495689,-0.0003596147533,0.001819880936,0.003539142916,-4.100993972e-06,0.003535041922,0.001003151809,-0.0002139148898,0.0007892369188,0.0008850502222,-0.0004323924605,0.0004526577617,1.155507225e-05,-0.0002408181428,-0.0002292630705
4.7,-0.00142764277,0.0004686213991,-0.0009590213707,0.0003028908189,-0.0001622954651,0.0001405953538,0.0001934185636,3.835547419e-05,0.0002317740377,0.0003077487588,-0.0003731828473,-6.543408851e-05,0.0004459813563,-0.0002982453258,0.0001477360305,0.0001666294179,-0.0001711369618,-4.507543958e-06,-0.0009724117187,-0.0004146591447,-0.001387070863,-0.0008256277225,-0.0005152800638,-0.001340907786,0.000496157247,-0.0001393133857,0.0003568438614,-1.626141699e-05,-0.0001122148252,-0.0001284762422,0.0005531992734,-0.0002960658665,0.0002571334069,0.0008726698609,-0.0003664939927,0.0005061758682,0.0009616729382,0.0001589531203,0.001120626059,8.23112129e-05,0.0001065650663,0.0001888762792,0.0007309627014,2.341512496e-06,0.0007333042139,0.000777781017,-0.0001045892646,0.0006731917524,0.001744501462,4.439314672e-05,0.001788894609,0.000341039656,-0.000319101454,2.193820205e-05,0.0002576528843,-0.0001094380618,0.0001482148224,-0.0002451928092,-0.0003934328145,-0.0006386256236,-0.0007370442208,-0.000608193888,-0.001345238109,2.228038881e-05,-0.0004689362096,-0.0004466558208,0.0003730451907,0.0002105397947,0.0005835849854,-0.0003374748084,0.0004058746329,6.839982444e-05,0.001372327946,-0.0003380602911,0.001034267655,0.0006364417327,-0.000116067334,0.0005203743987,0.001149224203,0.0001790140545,0.001328238258,0.001041236448,-9.440409593e-05,0.0009468323518,0.002315481861,9.041670582e-05,0.002405898567,0.001617781061,-0.0002751016364,0.001342679425,0.002537806806,-0.0001664246012,0.002371382205,0.002183083806,-0.0003716102095,0.001811473597,0.003486490104,2.185880353e-06,0.003488675984,0.001053924094,-0.0002214591439,0.0008324649502,0.0008656795262,-0.000438697683,0.0004269818432,1.297136999e-05,-0.0002398629839,-0.0002268916139
4.8,-0.001400167707,0.0004802906368,-0.0009198770698,0.0003256483911,-0.0001586120907,0.0001670363004,0.0002115483482,3.502877683e-05,0.000246577125,0.0003493645214,-0.0003732615623,-2.389704084e-05,0.0004737595586,-0.0003045161307,0.0001692434279,0.0001869336118,-0.0001750704048,1.1863207e-05,-0.0009780206068,-0.0004292752544,-0.001407295861,-0.0008062679262,-0.0005272114586,-0.001333479385,0.0005239398833,-0.0001461131484,0.000377826735,1.001757164e-05,-0.0001158706709,-0.0001058530993,0.0005950108203,-0.0003065336015,0.0002884772188,0.0009031006664,-0.0003756876742,0.0005274129922,0.000978372921,0.0001468119608,0.001125184882,0.0001118088923,0.0001007075971,0.0002125164893,0.0007450337875,-9.335125022e-06,0.0007356986625,0.0007450086456,-0.0001064976355,0.0006385110101,0.001659152213,4.868977728e-05,0.00170784199,0.0003831169007,-0.0003224545329,6.066236781e-05,0.0002728748701,-0.0001124801269,0.0001603947432,-0.000236024093,-0.0004007859252,-0.0006368100182,-0.0007084241841,-0.000614311831,-0.001322736015,3.685711942e-05,-0.0004779419106,-0.0004410847911,0.0004181366256,0.0002098417863,0.0006279784119,-0.0003101648018,0.0004131706815,0.0001030058798,0.001385952381,-0.0003447936572,0.001041158723,0.0006539797177,-0.0001234987173,0.0005304810005,0.001166443293,0.0001420103008,0.001308453594,0.001034537569,-9.236064504e-05,0.0009421769243,0.002256665148,8.936260897e-05,0.002346027757,0.00165622126,-0.0002878559198,0.001368365341,0.002463698124,-0.0001711325618,0.002292565563,0.002185544855,-0.0003825681553,0.001802976699,0.003432132764,8.323206029e-06,0.003440455971,0.001105315807,-0.0002281418416,0.0008771739652,0.0008479816143,-0.000444193914,0.0004037877002,1.645047872e-05,-0.0002372320452,-0.0002207815665
4.9,-0.001370180748,0.000492235665,-0.0008779450826,0.0003486960787,-0.0001548195203,0.0001938765583,0.0002301988492,3.143719192e-05,0.0002616360411,0.0003932526208,-0.0003730708401,2.01817807e-05,0.000503025275,-0.0003114176209,0.0001916076541,0.000208481007,-0.0001792669318,2.921407525e-05,-0.0009815039765,-0.0004441661123,-0.001425670089,-0.0007857643526,-0.000539175584,-0.001324939937,0.0005523341595,-0.0001531878653,0.0003991462942,3.812611915e-05,-0.0001192950556,-8.116893647e-05,0.0006379880583,-0.0003172883573,0.0003206997011,0.0009343722706,-0.0003852536079,0.0005491186627,0.0009952654101,0.0001348169888,0.001130082399,0.0001419684324,9.439674922e-05,0.0002363651816,0.0007604860869,-2.147305032e-05,0.0007390130365,0.0007141643822,-0.0001085589785,0.0006056054037,0.001574638111,5.312627212e-05,0.001627764383,0.0004268847991,-0.0003258615613,0.0001010232377,0.0002890644592,-0.0001153837387,0.0001736807205,-0.0002246611911,-0.0004078126451,-0.0006324738362,-0.0006749087051,-0.000619486939,-0.001294395644,5.418710516e-05,-0.0004868155262,-0.000432628421,0.000463363621,0.0002089256839,0.000672289305,-0.0002824905758,0.0004203155801,0.0001378250044,0.001399475936,-0.0003520178514,0.001047458084,0.0006721131888,-0.0001311084044,0.0005410047844,0.001185373233,0.0001023265709,0.001287699803,0.001028978509,-9.094031962e-05,0.0009380381897,0.002198526404,8.808428277e-05,0.002286610687,0.001696475865,-0.0003024301138,0.001394045751,0.002390444021,-0.0001759153382,0.002214528682,0.002186670794,-0.0003923799426,0.001794290851,0.003376040737,1.435679059e-05,0.003390397527,0.001156874033,-0.0002338632321,0.0009230108005,0.0008318916851,-0.0004488696626,0.0003830220225,2.175247936e-05,-0.0002329719549,-0.0002112194755
5.0,-0.001337881251,0.0005044243974,-0.0008334568532,0.0003719013957,-0.0001509140413,0.0002209873544,0.000249420265,2.763662015e-05,0.0002770568851,0.0004390063329,-0.000372641223,6.636510981e-05,0.0005336363025,-0.0003189187141,0.0002147175884,0.0002310797391,-0.0001836730518,4.740668733e-05,-0.0009829544244,-0.0004592935533,-0.001442247978,-0.0007642659961,-0.0005511377782,-0.001315403774,0.0005812874208,-0.0001604972856,0.0004207901352,6.785671914e-05,-0.0001225074028,-5.465068369e-05,0.0006820311229,-0.000328291655,0.0003537394679,0.0009663831623,-0.0003951526582,0.0005712305041,0.001012392473,0.0001229393765,0.001135331849,0.0001726953566,8.767757243e-05,0.0002603729291,0.0007772056206,-3.400354602e-05,0.0007432020745,0.000685237973,-0.0001108104151,0.0005744275578,0.001491222398,5.764964639e-05,0.001548872044,0.0004721233634,-0.0003293618837,0.0001427614797,0.0003061295887,-0.0001181614082,0.0001879681805,-0.0002111844295,-0.0004145210434,-0.0006257054729,-0.0006370030246,-0.0006238217845,-0.001260824809,7.414823151e-05,-0.0004955688038,-0.0004214205722,0.0005086294983,0.0002078103216,0.0007164398199,-0.0002545724048,0.0004273102164,0.0001727378116,0.001412956794,-0.0003597704332,0.001053186361,0.0006907301172,-0.0001388563143,0.0005518738029,0.001205619021,6.059786696e-05,0.001266216887,0.001024672077,-9.025728617e-05,0.0009344147911,0.002141232616,8.652211031e-05,0.002227754727,0.001738149402,-0.0003187372474,0.001419412154,0.002318108987,-0.0001807427318,0.002137366255,0.002186281343,-0.00040095316,0.001785328183,0.003318186826,2.032754577e-05,0.003338514372,0.001208149194,-0.0002385332667,0.0009696159274,0.0008173327709,-0.0004527171622,0.0003646156087,2.864683335e-05,-0.0002271498232,-0.0001985029899
5.1,-0.001303469182,0.0005168253413,-0.0007866438411,0.0003951414205,-0.0001468967237,0.0002482446968,0.0002692628864,2.368373149e-05,0.0002929466179,0.0004862219023,-0.0003720035075,0.0001142183949,0.0005654467855,-0.0003269833176,0.0002384634678,0.0002545354558,-0.0001882311028,6.6304353e-05,-0.0009824723351,-0.0004746153041,-0.001457087639,-0.0007419196749,-0.0005630618508,-0.001304981526,0.0006107505398,-0.0001679995104,0.0004427510295,9.899665422e-05,-0.0001255279902,-2.653133596e-05,0.0007270399328,-0.0003395047757,0.0003875351571,0.0009990327087,-0.0004053447824,0.0005936879263,0.001029827732,0.0001111325497,0.001140960281,0.0002038952917,8.060191711e-05,0.0002844972088,0.0007950754637,-4.685579585e-05,0.0007482196679,0.0006582050529,-0.0001132865661,0.0005449184869,0.001409165319,6.22041611e-05,0.001471369481,0.0005186136045,-0.0003329926883,0.0001856209162,0.0003239813512,-0.0001208276149,0.0002031537363,-0.0001956851773,-0.0004209212121,-0.0006166063894,-0.0005952292274,-0.0006274222601,-0.001222651487,9.660236463e-05,-0.000504213543,-0.0004076111784,0.0005538445107,0.000206515504,0.0007603600147,-0.0002265224854,0.0004341559692,0.0002076334839,0.001426454956,-0.0003680874389,0.001058367518,0.0007097164688,-0.0001467003166,0.0005630161522,0.001226823545,1.74379847e-05,0.00124426153,0.001021714901,-9.040930467e-05,0.0009313055961,0.00208494664,8.461739039e-05,0.00216956403,0.001780821869,-0.0003366532164,0.001444168652,0.002246750131,-0.0001855912011,0.00206115893,0.002184225699,-0.0004082122005,0.001776013499,0.003258547215,2.626765448e-05,0.003284814869,0.001258698863,-0.0002420731786,0.001016625684,0.0008042114145,-0.0004557311736,0.0003484802408,3.691175592e-05,-0.0002198504313,-0.0001829386753
5.2,-0.001267142204,0.0005294082398,-0.0007377339641,0.000418302352,-0.0001427736225,0.0002755287295,0.0002897731447,1.963486006e-05,0.0003094080048,0.000534503212,-0.0003711881509,0.0001633150611,0.0005983060454,-0.0003355711662,0.0002627348792,0.0002786511162,-0.0001928803191,8.577079705e-05,-0.0009801668059,-0.0004900850527,-0.001470251859,-0.000718871326,-0.0005749103057,-0.001293781632,0.0006406734412,-0.0001756515138,0.0004650219274,0.0001313281887,-0.0001283772063,2.950982394e-06,0.0007729090173,-0.0003508890726,0.0004220199447,0.001032220704,-0.0004157895669,0.0006164311373,0.001047669552,9.93364598e-05,0.001147006012,0.0002354727889,7.322739694e-05,0.0003087001859,0.0008139750628,-5.995730237e-05,0.0007540177605,0.0006330261991,-0.0001160184215,0.0005170077776,0.001328718311,6.673246677e-05,0.001395450777,0.0005661377966,-0.0003367876549,0.0002293501417,0.0003425320218,-0.0001233991458,0.000219132876,-0.0001782660398,-0.000427024527,-0.0006052905668,-0.0005501177132,-0.0006303946378,-0.001180512351,0.0001213967321,-0.0005127609604,-0.0003913642283,0.000598920019,0.0002050611536,0.0008039811726,-0.0001984477828,0.0004408543186,0.0002424065357,0.001440026761,-0.0003770019486,0.001063024813,0.0007289573422,-0.0001545975832,0.0005743597591,0.001248670798,-2.657238991e-05,0.001222098408,0.001020178861,-9.147131623e-05,0.000928707545,0.002029822243,8.231475178e-05,0.002112136994,0.001824054952,-0.0003560184181,0.001468036534,0.002176415807,-0.0001904452695,0.001985970538,0.00218038164,-0.000414098365,0.001766283275,0.003197102047,3.219652881e-05,0.003229298576,0.001308089453,-0.0002444164282,0.001063673025,0.0007924134459,-0.0004579084982,0.0003345049478,4.633312868e-05,-0.0002111740718,-0.0001648409431
5.3,-0.001229093782,0.0005421445983,-0.0006869491835,0.000441278256,-0.0001385558982,0.0003027223578,0.0003109896064,1.55451092e-05,0.0003265347156,0.0005834650378,-0.0003702246101,0.0002132404277,0.0006320568506,-0.0003446385621,0.0002874182884,0.0003032268567,-0.0001975581798,0.0001056686769,-0.0009761567211,-0.0005056525112,-0.001481809232,-0.0006952677183,-0.00058664449,-0.001281912208,0.0006710005118,-0.0001834096373,0.0004875908745,0.0001646285253,-0.0001310748628,3.355366244e-05,0.0008195223026,-0.0003624061958,0.0004571161068,0.001065846493,-0.0004264467936,0.0006393996992,0.001066031976,8.748255886e-05,0.001153514534,0.0002673300372,6.561612734e-05,0.0003329461646,0.0008337794339,-7.323442937e-05,0.0007605450045,0.0006096460003,-0.0001190323342,0.0004906136661,0.001250118026,7.117669102e-05,0.001321294717,0.0006144788649,-0.000340775804,0.0002737030609,0.0003616920981,-0.0001258952856,0.0002357968125,-0.0001590410342,-0.0004328429394,-0.0005918839736,-0.0005021997682,-0.0006328430059,-0.001135042774,0.0001483649813,-0.0005212210842,-0.0003728561029,0.0006437630307,0.0002034666308,0.0008472296615,-0.0001704528337,0.0004474065546,0.0002769537209,0.001453717831,-0.0003865413416,0.00106717649,0.0007483378192,-0.0001625059463,0.0005858318729,0.001270884596,-7.089420919e-05,0.001199990387,0.001020102123,-9.348998566e-05,0.0009266121375,0.001975998975,7.956455543e-05,0.00205556353,0.001867400022,-0.0003766414779,0.001490758544,0.00210714295,-0.0001952979996,0.001911844951,0.002174652177,-0.0004185695131,0.001756082664,0.00313383628,3.811745745e-05,0.003171953738,0.001355896284,-0.0002455091379,0.001110387146,0.0007818007517,-0.0004592482484,0.0003225525033,5.67038141e-05,-0.0002012355016,-0.0001445316875
5.4,-0.00118951203,0.0005550081402,-0.0006345038895,0.0004639695064,-0.0001342596975,0.0003297098089,0.000332939604,1.146760532e-05,0.0003444072093,0.0006327355253,-0.0003691407758,0.0002635947495,0.0006665342151,-0.0003541389728,0.0003123952424,0.0003280606187,-0.0002022019992,0.0001258586195,-0.0009705712558,-0.0005212636032,-0.001491834859,-0.0006712581723,-0.0005982245714,-0.001269482744,0.0007016671425,-0.0001912300944,0.0005104370481,0.0001986704618,-0.0001336396173,6.503084448e-05,0.0008667496465,-0.0003740182425,0.000492731404,0.001099808316,-0.0004372771206,0.0006625311954,0.001085034109,7.549953531e-05,0.001160533645,0.0002993659631,5.783341885e-05,0.0003571993819,0.0008543588189,-8.661302008e-05,0.0007677457988,0.0005879931635,-0.0001223496337,0.0004656435299,0.001173581255,7.547915877e-05,0.001249060414,0.000663419917,-0.0003449811215,0.0003184387955,0.0003813674533,-0.0001283375599,0.0002530298935,-0.0001381354583,-0.000438388258,-0.0005765237163,-0.0004520005422,-0.0006348670573,-0.001086867599,0.0001773284438,-0.000529602143,-0.0003522736992,0.0006882729708,0.0002017504241,0.0008900233949,-0.0001426412416,0.0004538136825,0.000311172441,0.001467556152,-0.0003967239454,0.001070832207,0.000767743754,-0.0001703850365,0.0005973587175,0.00129322354,-0.0001150341862,0.001178189353,0.001021482602,-9.648017451e-05,0.0009250024274,0.001923598186,7.632485563e-05,0.001999923042,0.001910407788,-0.0003983046026,0.001512103185,0.002038953893,-0.0002001504015,0.001838803492,0.002166961074,-0.0004215997932,0.001745361281,0.003068740233,4.401567471e-05,0.003112755908,0.001401703103,-0.0002453104455,0.001156392657,0.0007722097287,-0.0004597524988,0.0003124572299,6.78237837e-05,-0.0001901635307,-0.000122339747
5.5,-0.001148578846,0.0005679751324,-0.0005806037138,0.000486281659,-0.0001299057727,0.0003563758863,0.0003556371866,7.45282467e-06,0.0003630900113,0.00068195859,-0.0003679626779,0.0003139959121,0.0007015657186,-0.0003640235258,0.0003375421927,0.0003529496459,-0.0002067505217,0.0001461991242,-0.0009635492842,-0.0005368608772,-0.001500410161,-0.0006469956253,-0.0006096095201,-0.001256605145,0.0007325982894,-0.0001990694583,0.0005335288311,0.0002332243567,-0.000136088495,9.713586171e-05,0.0009144463966,-0.000385687841,0.0005287585557,0.001134003277,-0.0004482427316,0.0006857605454,0.001104789646,6.331920992e-05,0.001168108856,0.0003314761135,4.99465903e-05,0.0003814227038,0.0008755791286,-0.0001000189205,0.0007755602081,0.0005679821993,-0.0001259868904,0.0004419953089,0.001099301594,7.958258626e-05,0.001178884181,0.0007127447503,-0.0003494231007,0.0003633216496,0.000401457906,-0.0001307493085,0.0002707085975,-0.0001156851481,-0.0004436714488,-0.0005593565968,-0.0004000319314,-0.0006365602235,-0.001036592155,0.0002080981407,-0.0005379100001,-0.0003298118594,0.0007323417117,0.0001999302361,0.0009322719478,-0.0001151151794,0.0004600765048,0.0003449613253,0.001481547299,-0.0004075560728,0.001073991227,0.0007870629499,-0.0001781970789,0.000608865871,0.00131547307,-0.000158544218,0.001156928852,0.001024276311,-0.0001004248192,0.0009238514921,0.001872720785,7.256294637e-05,0.001945283731,0.00195263917,-0.0004207697926,0.001531869378,0.00197185376,-0.0002050099304,0.00176684383,0.002157248976,-0.0004231799968,0.001734068979,0.003001809679,4.985798945e-05,0.003051667668,0.001445102475,-0.000243793159,0.001201309316,0.0007634521457,-0.0004594271688,0.0003040249768,7.950093008e-05,-0.0001781001066,-9.859917651e-05
5.6,-0.001106469058,0.0005810245023,-0.0005254445561,0.0005081253702,-0.0001255189725,0.0003826063977,0.0003790826504,3.548002245e-06,0.0003826306527,0.0007307965105,-0.0003667144777,0.0003640820328,0.0007369735621,-0.0003742414749,0.0003627320872,0.0003776926709,-0.0002111454207,0.0001665472502,-0.0009552377426,-0.0005523841558,-0.001507621898,-0.000622636471,-0.0006207574669,-0.001243393938,0.0007637089647,-0.0002068851177,0.0005568238469,0.0002680612119,-0.0001384365034,0.0001296247085,0.0009624557312,-0.0003973782108,0.0005650775205,0.001168327968,-0.0004593078156,0.000709020152,0.001125398674,5.088144984e-05,0.001176280124,0.0003635533398,4.202390192e-05,0.0004055772417,0.0008973031481,-0.0001133784217,0.0007839247264,0.0005495164171,-0.0001299564246,0.0004195599925,0.001027448212,8.342982802e-05,0.00111087804,0.00076223948,-0.0003541177722,0.0004081217078,0.0004218578009,-0.0001331555093,0.0002887022917,-9.183498995e-05,-0.0004487021234,-0.0005405371133,-0.0003467856048,-0.000638008263,-0.0009847938678,0.0002404776307,-0.0005461477828,-0.0003056701521,0.0007758561817,0.0001980232824,0.0009738794641,-8.79734115e-05,0.0004661957698,0.0003782223583,0.001495672806,-0.0004190299776,0.001076642829,0.0008061870833,-0.0001859073828,0.0006202797005,0.001337436472,-0.0002010180673,0.001136418405,0.001028400885,-0.0001052783696,0.0009231225152,0.001823446343,6.825691011e-05,0.001891703253,0.001993676821,-0.0004437853391,0.001549891482,0.001905828973,-0.0002098882989,0.001695940674,0.002145471316,-0.0004233186481,0.001722152668,0.002933045496,5.559379613e-05,0.002988639292,0.001485698004,-0.0002409448637,0.00124475314,0.0007553189151,-0.0004582834287,0.0002970354864,9.155251152e-05,-0.0001651984604,-7.364594883e-05
5.7,-0.001063349683,0.00059413776,-0.0004692119234,0.0005294173106,-0.000121127672,0.0004082896386,0.0004032632858,-2.033178906e-07,0.0004030599679,0.0007789322972,-0.0003654186064,0.0004135136908,0.0007725775136,-0.0003847406974,0.0003878368162,0.000402092345,-0.0002153327108,0.0001867596342,-0.0009457896094,-0.0005677713465,-0.001513560956,-0.000598339221,-0.000631626655,-0.001229965876,0.0007949055897,-0.0002146357389,0.0005802698508,0.0003029558813,-0.0001406963793,0.000162259502,0.001010612,-0.0004090532822,0.0006015587178,0.001202679482,-0.0004704389067,0.000732240575,0.001146942606,3.813739856e-05,0.001185080005,0.0003954888033,3.413351646e-05,0.0004296223198,0.0009193920128,-0.0001266187475,0.0007927732653,0.0005324912825,-0.0001342665959,0.0003982246866,0.0009581659416,8.696368627e-05,0.001045129628,0.0008116945423,-0.0003590785834,0.0004526159588,0.0004424578528,-0.0001355828359,0.0003068750169,-6.673693356e-05,-0.0004534883471,-0.0005202252806,-0.0002927272519,-0.0006392884084,-0.0009320156602,0.0002742662006,-0.000554315808,-0.0002800496074,0.0008187015272,0.0001960465383,0.001014748065,-6.130928993e-05,0.0004721722775,0.0004108629876,0.001509891134,-0.0004311228192,0.001078768315,0.00082501409,-0.0001934845893,0.0006315295007,0.001358926528,-0.00024208786,0.001116838668,0.001033742181,-0.0001109721945,0.0009227699866,0.001775832754,6.339737855e-05,0.001839230133,0.002033136345,-0.0004670925425,0.001566043802,0.001840846429,-0.0002147987767,0.001626047652,0.002131597838,-0.0004220432861,0.001709554552,0.002862452308,6.115740688e-05,0.002923609715,0.001523108187,-0.0002367692849,0.001286338902,0.000747586074,-0.0004563399491,0.0002912461249,0.0001038071996,-0.0001516210645,-4.781386487e-05
5.8,-0.001019379737,0.0006072988139,-0.0004120809234,0.0005500814183,-0.0001167631126,0.0004333183056,0.0004281546181,-3.76157466e-06,0.0004243930435,0.0008260711177,-0.0003640959367,0.000461975181,0.0008081974238,-0.000395468249,0.0004127291748,0.000425957223,-0.0002192640023,0.0002066932207,-0.0009353622857,-0.0005829593076,-0.001518321593,-0.0005742627179,-0.0006421768015,-0.001216439519,0.000826086996,-0.000222281747,0.000603805249,0.0003376893211,-0.0001428785057,0.0001948108153,0.001058743077,-0.0004206779026,0.0006380651739,0.001236956291,-0.0004816051568,0.0007553511343,0.001169481226,2.505119063e-05,0.001194532417,0.000427172717,2.634245219e-05,0.0004535151692,0.0009417062694,-0.00013966856,0.0008020377094,0.0005167971309,-0.0001389216937,0.0003778754371,0.0008915751268,9.012743685e-05,0.0009817025636,0.000860905883,-0.0003643167449,0.0004965891381,0.0004631465827,-0.0001380595074,0.0003250870754,-4.054807364e-05,-0.0004580366623,-0.0004985847359,-0.0002382932642,-0.0006404690375,-0.0008787623018,0.0003092616261,-0.0005624117321,-0.000253150106,0.0008607629335,0.0001940167614,0.001054779695,-3.52100547e-05,0.0004780069055,0.0004427968508,0.001524139834,-0.0004437966536,0.00108034318,0.0008434501136,-0.0002009006576,0.000642549456,0.001379758695,-0.000281421813,0.001098336882,0.001040161103,-0.0001174202603,0.0009227408427,0.001729915889,5.798913158e-05,0.001787905021,0.002070675915,-0.0004904327434,0.001580243171,0.00177685265,-0.0002197531679,0.001557099482,0.002115612437,-0.0004194008564,0.00169621158,0.002790035248,6.647168955e-05,0.002856506938,0.001556970775,-0.0002312876157,0.001325683159,0.0007400212422,-0.0004536261599,0.0002863950823,0.0001161073337,-0.0001375385203,-2.143118665e-05
5.9,-0.0009747109231,0.0006204937156,-0.0003542172075,0.0005700498552,-0.0001124587077,0.0004575911475,0.0004537215443,-7.091363735e-06,0.0004466301805,0.0008719403652,-0.0003627659957,0.0005091743695,0.0008436544365,-0.0004063709682,0.0004372834682,0.0004491028905,-0.000222897562,0.0002262053285,-0.0009241167759,-0.000597884659,-0.001522001435,-0.0005505647047,-0.0006523704222,-0.001202935127,0.0008571444633,-0.0002297857523,0.000627358711,0.0003720493591,-0.0001449909761,0.000227058383,0.001106670745,-0.000432218048,0.0006744526968,0.001271058436,-0.0004927785115,0.0007782799243,0.00119305013,1.160090078e-05,0.001204651031,0.0004584945665,1.871554522e-05,0.0004772101117,0.0009641061528,-0.0001524583448,0.000811647808,0.0005023207427,-0.0001439215409,0.0003583992018,0.0008277702293,9.286612106e-05,0.0009206363503,0.000909674574,-0.0003698410907,0.0005398334833,0.0004838100178,-0.0001406145468,0.000343195471,-1.342929709e-05,-0.0004623520948,-0.0004757813919,-0.0001838903577,-0.0006416097409,-0.0008255000986,0.0003452619198,-0.0005704307505,-0.0002251688307,0.0009019253763,0.0001919502796,0.001093875656,-9.75786755e-06,0.0004837005738,0.0004739427063,0.001538337734,-0.0004569994044,0.00108133833,0.0008614102701,-0.0002081305346,0.0006532797355,0.001399746095,-0.0003187235554,0.00108102254,0.001047499019,-0.0001245245085,0.0009229745107,0.001685709051,5.205193564e-05,0.001737760987,0.002106003287,-0.0005135545903,0.001592448696,0.001713773115,-0.000224759128,0.001489013987,0.002097511725,-0.0004154562928,0.001682055432,0.00271579461,7.145291619e-05,0.002787247526,0.001586946727,-0.0002245398691,0.001362406858,0.0007323890661,-0.0004501864053,0.0002822026608,0.0001283107611,-0.0001231298677,5.180893425e-06
6.0,-0.0009294891611,0.0006337103016,-0.0002957788595,0.0005892633856,-0.0001082494483,0.0004810139373,0.0004799190964,-1.016151718e-05,0.0004697575793,0.0009162884921,-0.0003614472619,0.0005548412302,0.0008787707885,-0.0004173960783,0.0004613747102,0.0004713523155,-0.0002261991874,0.0002451531281,-0.0009122176078,-0.0006124844308,-0.001524702039,-0.00052740117,-0.0006621737193,-0.001189574889,0.0008879608664,-0.000237112823,0.0006508480434,0.0004058301,-0.0001470397245,0.0002587903755,0.001154209306,-0.0004436409269,0.0007105683792,0.001304886808,-0.0005039337119,0.0008009530959,0.001217657723,-2.220824023e-06,0.001215436899,0.0004893428818,1.131445195e-05,0.0005006573338,0.0009864512135,-0.0001649206983,0.0008215305152,0.0004889457876,-0.0001492609846,0.000339684803,0.0007668173277,9.512796593e-05,0.0008619452936,0.0009578049667,-0.000375657684,0.0005821472828,0.0005043295465,-0.0001432764867,0.0003610530598,1.445541151e-05,-0.0004664380739,-0.0004519826624,-0.0001298976717,-0.0006427617065,-0.0007726593782,0.0003820659432,-0.0005783657708,-0.0001962998276,0.000942071731,0.0001898626313,0.001131934362,1.496789416e-05,0.0004892541679,0.000504222062,0.001552386795,-0.0004706665784,0.001081720217,0.0008788182573,-0.0002151516112,0.000663666646,0.001418696047,-0.0003537327829,0.001064963264,0.001055581922,-0.0001321801406,0.0009234017812,0.001643202186,4.562041258e-05,0.001688822598,0.002138879914,-0.000536220996,0.001602658918,0.001651512695,-0.0002298187202,0.001421693975,0.002077301715,-0.000410289318,0.001667012397,0.002639718806,7.601682568e-05,0.002715735632,0.001612723613,-0.0002165865153,0.001396137098,0.0007244547551,-0.0004460841026,0.0002783706525,0.0001402916092,-0.0001085838406,3.170776864e-05
6.1,-0.0008838565833,0.0006469377485,-0.0002369188348,0.0006076711417,-0.0001041714014,0.0005034997404,0.0005066928236,-1.294505645e-05,0.0004937477672,0.0009588831235,-0.0003601575013,0.0005987256222,0.0009133687122,-0.000428491692,0.0004848770202,0.0004925356418,-0.0002291427639,0.000263392878,-0.0008998331087,-0.0006266964925,-0.001526529601,-0.0005049265289,-0.0006715568205,-0.001176483349,0.0009184095105,-0.0002442305898,0.0006741789208,0.0004388305945,-0.0001490286742,0.0002898019203,0.001201163433,-0.0004549149438,0.0007462484891,0.001338341903,-0.0005150481789,0.0008232937246,0.001243282251,-1.640664395e-05,0.001226875607,0.0005196047946,4.196731281e-06,0.0005238015259,0.001008599778,-0.0001769907463,0.0008316090312,0.0004765523899,-0.0001549293459,0.000321623044,0.0007087511046,9.686548786e-05,0.0008056165924,0.001005102028,-0.0003817692416,0.0006233327867,0.0005245789148,-0.0001460719328,0.000378506982,4.293930397e-05,-0.0004702964103,-0.0004273571064,-7.667013597e-05,-0.0006439684004,-0.0007206385364,0.0004194732835,-0.0005862076464,-0.0001667343629,0.000981080503,0.0001877681946,0.001168848698,3.888813683e-05,0.0004946684675,0.0005335566044,0.001566173849,-0.0004847233052,0.001081450544,0.0008956053723,-0.0002219431942,0.0006736621781,0.001436408021,-0.000386226668,0.001050181353,0.001064223862,-0.0001402807131,0.0009239431489,0.001602360953,3.874317509e-05,0.001641104129,0.002169121772,-0.0005582142886,0.001610907483,0.001589957381,-0.0002349282813,0.001355029099,0.002054993615,-0.0004039904537,0.001651003161,0.002561776777,8.008560401e-05,0.002641862381,0.001634018685,-0.0002075101757,0.001426508509,0.0007159853214,-0.0004414044645,0.0002745808569,0.0001519395755,-9.410020318e-05,5.783937236e-05
6.2,-0.0008379534352,0.0006601661672,-0.000177787268,0.00062522994,-0.0001002611441,0.0005249687959,0.0005339790261,-1.541899117e-05,0.0005185600349,0.0009995091834,-0.0003589140541,0.0006405951292,0.0009472693811,-0.0004396071348,0.0005076622462,0.0005124896388,-0.0002317102662,0.0002807793726,-0.0008871354498,-0.0006404598135,-0.001527595263,-0.0004832943903,-0.0006804934071,-0.001163787797,0.0009483536148,-0.0002511092633,0.0006972443515,0.000470853789,-0.0001509599296,0.0003198938594,0.001247326878,-0.0004660095931,0.000781317285,0.001371322865,-0.0005261019715,0.0008452208934,0.001269869825,-3.093477519e-05,0.00123893505,0.0005491658332,-2.584989931e-06,0.0005465808432,0.001030408878,-0.0001886068933,0.0008418019846,0.0004650162389,-0.0001609098405,0.0003041063984,0.0006535719064,9.803656013e-05,0.0007516084665,0.001051368751,-0.0003881743707,0.0006631943799,0.0005444217397,-0.0001490244292,0.0003953973104,7.185327414e-05,-0.0004739274601,-0.0004020741859,-2.454159748e-05,-0.0006452664487,-0.0006698080462,0.0004572841038,-0.0005939455361,-0.0001366614324,0.001018824895,0.0001856799883,0.001204504884,6.192260486e-05,0.0004999441948,0.0005618667997,0.001579572597,-0.0004990861715,0.001080486425,0.0009117094784,-0.0002284861051,0.0006832233733,0.001452674038,-0.0004160213121,0.001036652726,0.001073229696,-0.0001487222585,0.0009245074373,0.001563126094,3.148159738e-05,0.001594607692,0.002196596712,-0.0005793381568,0.001617258555,0.001528976875,-0.0002400788875,0.001288897987,0.002030600599,-0.0003966575909,0.001633943008,0.002481911989,8.359438589e-05,0.002565506375,0.001650581708,-0.0001974164582,0.00145316525,0.0007067492302,-0.0004362550448,0.0002704941854,0.0001631580831,-7.989059171e-05,8.326749138e-05
6.3,-0.0007919192788,0.0006733863551,-0.0001185329237,0.000641903599,-9.655508221e-05,0.0005453485168,0.0005617053503,-1.756402329e-05,0.000544141327,0.00103796784,-0.0003577340814,0.0006802337588,0.0009802930318,-0.0004506930937,0.0005295999381,0.0005310573209,-0.0002338911239,0.000297166197,-0.0008742998284,-0.000653714707,-0.001528014535,-0.0004626583731,-0.0006889599969,-0.00115161837,0.0009776474646,-0.0002577216551,0.0007199258095,0.0005017068205,-0.0001528340626,0.0003488727579,0.001292483669,-0.0004768953698,0.0008155882996,0.001403727411,-0.0005370778843,0.0008666495267,0.001297334049,-4.576878851e-05,0.001251565261,0.0005779105496,-8.983792234e-06,0.0005689267573,0.001051735204,-0.0001997118616,0.0008520233425,0.0004542079316,-0.0001671790748,0.0002870288568,0.0006012436479,9.860596463e-05,0.0006998496125,0.001096404792,-0.0003948668224,0.0007015379692,0.0005637106506,-0.0001521537209,0.0004115569297,0.0001010266943,-0.0004773304234,-0.000376303729,2.61735614e-05,-0.0006466865242,-0.0006205129628,0.0004952995815,-0.0006015672825,-0.000106267701,0.001055174632,0.0001836097986,0.00123878443,8.399044198e-05,0.0005050822855,0.0005890727275,0.001592446284,-0.0005136644694,0.001078781815,0.0009270742782,-0.0002347623396,0.0006923119386,0.001467283005,-0.0004429719533,0.001024311052,0.001082397465,-0.0001574058851,0.0009249915799,0.00152541371,2.390858113e-05,0.001549322291,0.002221219639,-0.0005994170312,0.001621802607,0.00146842836,-0.0002452570719,0.001223171288,0.002004136953,-0.0003883941403,0.001615742813,0.002400040703,8.649512002e-05,0.002486535823,0.00166219776,-0.0001864331859,0.001475764574,0.0006965161626,-0.0004307643127,0.0002657518498,0.000173862048,-6.617823743e-05,0.0001076838106
6.4,-0.0007458930384,0.0006865897016,-5.930333676e-05,0.0006576628156,-9.308877372e-05,0.0005645740419,0.000589792251,-1.936426991e-05,0.0005704279811,0.001074076813,-0.0003566348746,0.0007174419382,0.001012261002,-0.0004617016916,0.0005505593104,0.0005480883968,-0.0002356811442,0.0003124072526,-0.0008615024827,-0.0006664032015,-0.001527905684,-0.0004431723761,-0.0006969352876,-0.001140107664,0.001006139656,-0.0002640432366,0.0007420964193,0.0005312031121,-0.0001546504854,0.0003765526267,0.001336412433,-0.0004875437424,0.0008488686906,0.001435452614,-0.0005479615539,0.0008874910604,0.001325557263,-6.085651656e-05,0.001264700747,0.0006057242567,-1.495914698e-05,0.0005907651098,0.001072437248,-0.0002102538582,0.0008621833902,0.0004439932635,-0.0001737067555,0.000270286508,0.0005516934327,9.854747168e-05,0.0006502409043,0.00114000732,-0.0004018350523,0.0007381722677,0.0005822885445,-0.0001554752367,0.0004268133078,0.000130288875,-0.0004805036527,-0.0003502147778,7.518077402e-05,-0.0006482540577,-0.0005730732837,0.0005333231278,-0.000609059632,-7.573650422e-05,0.001090000584,0.0001815686114,0.001271569195,0.0001050127728,0.0005100843481,0.000615097121,0.001604651551,-0.0005283609472,0.001076290604,0.0009416491079,-0.0002407547027,0.0007008944052,0.001480029301,-0.0004669706808,0.00101305862,0.001091521498,-0.0001662393032,0.0009252821949,0.001489117062,1.610745969e-05,0.001505224522,0.002242947733,-0.0006182952213,0.001624652512,0.00140816214,-0.0002504459733,0.001157716167,0.001975619601,-0.0003793086882,0.001596310913,0.00231605622,8.875637155e-05,0.002404812591,0.001668690358,-0.0001747080755,0.001493982283,0.0006850578093,-0.0004250783136,0.0002599794958,0.0001839753117,-5.319551442e-05,0.0001307797973
6.5,-0.0007000118292,0.0006997681424,-2.436868204e-07,0.0006724857447,-8.989636464e-05,0.0005825893801,0.0006181553043,-2.080705474e-05,0.0005973482495,0.00110767192,-0.0003556342825,0.0007520376373,0.001042999352,-0.0004725866031,0.0005704127489,0.0005634406534,-0.0002370812851,0.0003263593683,-0.0008489179224,-0.0006784695661,-0.001527387488,-0.0004249898454,-0.000704399953,-0.001129389798,0.001033677689,-0.000270052233,0.0007636254556,0.0005591656353,-0.0001564078315,0.0004027578038,0.001378892677,-0.000497927203,0.0008809654739,0.001466396075,-0.0005587414815,0.0009076545934,0.001354392937,-7.612861295e-05,0.001278264324,0.0006324954649,-2.047742974e-05,0.0006120180351,0.001092378306,-0.0002201878303,0.000872190476,0.0004342345276,-0.0001804555809,0.0002537789467,0.0005048134122,9.784582229e-05,0.0006026592345,0.001181974026,-0.0004090621492,0.0007729118767,0.0005999918221,-0.000158999881,0.0004409919412,0.0001594710716,-0.0004834449367,-0.0003239738651,0.0001222069826,-0.0006499897613,-0.0005277827787,0.0005711621364,-0.0006164083152,-4.524617881e-05,0.001123180505,0.0001795671196,0.001302747624,0.0001249161909,0.0005149531096,0.0006398693005,0.001616043559,-0.0005430726218,0.001072970938,0.0009553891372,-0.0002464464072,0.00070894273,0.001490724406,-0.0004879423193,0.001002782086,0.001100397044,-0.0001751381229,0.0009252589214,0.001454110054,8.170741143e-06,0.001462280795,0.002261776958,-0.0006358376509,0.001625939308,0.001348028438,-0.0002556266726,0.001092401766,0.001945070464,-0.0003695148908,0.001575555573,0.002229838583,9.035953445e-05,0.002320198118,0.001669924528,-0.0001624052192,0.001507519309,0.0006721485274,-0.0004193549776,0.0002527935497,0.0001934268422,-4.117847725e-05,0.0001522483649
6.6,-0.0006544090206,0.0007129140884,5.85050678e-05,0.0006863587818,-8.701011535e-05,0.0005993486665,0.0006467077043,-2.188272369e-05,0.0006248249806,0.001138609079,-0.0003547511363,0.0007838579432,0.001072342734,-0.0004833032493,0.0005890394848,0.0005769817325,-0.0002380964912,0.0003388852413,-0.0008367162622,-0.0006898608998,-0.001526577162,-0.0004082619588,-0.0007113370083,-0.001119598967,0.001060112379,-0.0002757297413,0.0007843826379,0.0005854300125,-0.0001581042841,0.0004273257284,0.001419710689,-0.0005080194143,0.0009116912749,0.001496457013,-0.0005694089681,0.0009270480453,0.001383668954,-9.149791233e-05,0.001292171042,0.0006581181719,-2.551221153e-05,0.0006326059603,0.001111429661,-0.0002294769193,0.0008819527414,0.0004247920973,-0.0001873812138,0.0002374108835,0.0004604646637,9.649782481e-05,0.0005569624885,0.001222107143,-0.0004165260199,0.0008055811232,0.000616654987,-0.0001627345719,0.0004539204151,0.0001884086478,-0.0004861518059,-0.0002977431581,0.0001670023971,-0.0006519100813,-0.0004849076842,0.0006086297767,-0.0006235982119,-1.496843514e-05,0.001154603492,0.0001776160328,0.001332219524,0.0001436355827,0.0005196926593,0.000663328242,0.001626481704,-0.0005576922757,0.001068789429,0.0009682554953,-0.0002518207261,0.0007164347692,0.00149920965,-0.0005058411444,0.0009933685055,0.001108826082,-0.0001840272109,0.0009247988713,0.001420251786,1.982309886e-07,0.001420450017,0.002277739333,-0.0006519324674,0.001625806866,0.001287883229,-0.0002607788713,0.001027104358,0.0019125178,-0.0003591304103,0.00155338739,0.002141266898,9.129364733e-05,0.002232560546,0.001665808425,-0.000149700624,0.001516107801,0.0006575639128,-0.0004137562826,0.0002438076302,0.0002021446841,-3.03583842e-05,0.0001717862999
6.7,-0.0006092122432,0.0007260203543,0.0001168081111,0.000699276775,-8.445990997e-05,0.000614816865,0.0006753621247,-2.258443122e-05,0.0006527776935,0.001166765814,-0.0003540055146,0.0008127602994,0.001100137075,-0.0004938090198,0.0006063280547,0.0005885908132,-0.0002387347978,0.0003498560154,-0.0008250614288,-0.0007005276737,-0.001525589103,-0.0003931352643,-0.0007177324036,-0.001110867668,0.001085300824,-0.0002810598498,0.0008042409745,0.0006098463886,-0.0001597378334,0.0004501085552,0.001458663144,-0.0005177954553,0.0009408676883,0.001525536853,-0.0005799578753,0.0009455789774,0.001413191812,-0.00010686056,0.001306331252,0.0006824933128,-3.004429967e-05,0.0006524490131,0.001129473346,-0.0002380941777,0.0008913791678,0.0004155256265,-0.0001944324566,0.0002210931699,0.0004184820343,9.451230801e-05,0.0005129943423,0.001260216867,-0.0004241996552,0.0008360172114,0.0006321155805,-0.0001666836886,0.0004654318919,0.0002169428379,-0.0004886218331,-0.0002716789952,0.0002093412529,-0.0006540276521,-0.0004446863992,0.0006455463456,-0.0006306137581,1.49325875e-05,0.001184171567,0.0001757260626,0.001359897629,0.0001611151908,0.0005243084673,0.0006854236581,0.001635834716,-0.0005721108865,0.001063723829,0.0009802148727,-0.0002568608575,0.0007233540152,0.001505368474,-0.0005206509037,0.0009847175702,0.001116623069,-0.0001928417484,0.0009237813205,0.001387391154,-7.705680256e-06,0.001379685474,0.002290899326,-0.0006664943534,0.001624404973,0.001227591432,-0.0002658806023,0.0009617108302,0.001877995954,-0.0003482751568,0.001529720797,0.002050230422,9.155136907e-05,0.002141781791,0.001656292394,-0.0001367772767,0.001519515117,0.0006410769499,-0.0004084398789,0.0002326370711,0.0002100475165,-2.095101917e-05,0.0001890964973
